bvp
-0.004649946000427
-0.0042777117341756
-0.0038587334565818
-0.0033847265876829
-0.002855428494513
-0.0022770720534026
-0.0016618750523775
-0.0010264134034514
-0.0003876909613609
0.000238427426666
0.0008364105597138
0.0013899244368076
0.0018760515376925
0.0022562067024409
0.0024748775176703
0.0024696211330592
0.0021851547062397
0.0015865070745348
0.0006689303554594
-0.0005380236543715
-0.0019719833508133
-0.0035436297766864
-0.0051466608420014
-0.0066702431067824
-0.0080114267766475
-0.0090844668447971
-0.0098254214972257
-0.0101947356015443
-0.0101824132725596
-0.0098144682124257
-0.0091526042670011
-0.0082828197628259
-0.007298469543457
-0.0062863212078809
-0.0053179981186985
-0.0044445740059018
-0.0036931983195245
-0.0030671153217554
-0.0025508808903396
-0.0021185453515499
-0.0017397487536072
-0.0013826576760038
-0.0010147676803171
-0.0006013063248246
-0.0001079936046153
0.0004856912419199
0.0011743756476789
0.0019277917454019
0.0027003376744687
0.0034419568255543
0.0041079949587583
0.0046659363433718
0.0050966818816959
0.0053903786465525
0.0055407807230949
0.0055417800322175
0.0053853653371334
0.005060757510364
0.004557347856462
0.0038710287772119
0.0030080564320087
0.0019844039343297
0.000826614908874
-0.0004248698242008
-0.0017168647609651
-0.0029903347603976
-0.0041879941709339
-0.005259642843157
-0.0061651319265365
-0.0068766809999942
-0.0073810131289064
-0.0076792286708951
-0.0077852378599345
-0.007723931223154
-0.0075250538066029
-0.0072137443348765
-0.0068077342584729
-0.0063230926170945
-0.0057782558724284
-0.0051914909854531
-0.004576944746077
-0.0039433864876627
-0.0032944232225418
-0.0026293015107512
-0.0019454024732112
-0.0012408876791596
-0.0005154162645339
0.000229706056416
0.0009905053302645
0.0017617587000131
0.0025419788435101
0.0033360728994011
0.0041523892432451
0.0049967681989073
0.005869124084711
0.0067663108929991
0.0076862606219947
0.0086265057325363
0.0095788026228547
0.0105257127434015
0.0114397909492254
0.0122832767665386
0.0130119323730468
0.0135853914543986
0.0139776756986975
0.0141813801601529
0.0142060182988643
0.014075431972742
0.0138231199234724
0.0134817222133278
0.013073768466711
0.0126102771610021
0.0120932571589946
0.0115191973745822
0.0108823431655764
0.0101765226572752
0.0093976212665438
0.0085469270125031
0.0076330890879035
0.0066715646535158
0.0056827161461114
0.0046912021934986
0.0037273732014
0.0028275894001126
0.0020277923904359
0.001350101083517
0.000793419778347
0.0003374144434928
-4.48073260486126e-05
-0.0003765299916267
-0.00067541282624
-0.0009546293877065
-0.0012205154635012
-0.0014705541543662
-0.0016963281668722
-0.0018867957405745
-0.0020281495526432
-0.0021033510565757
-0.0020934026688337
-0.001980350818485
-0.0017580245621502
-0.0014498969539999
-0.0011160611175
-0.00084038823843
-0.0007089572027325
-0.0007908488623797
-0.0011245091445744
-0.0017111550550907
-0.0025174075271934
-0.0034839913714677
-0.0045333346351981
-0.0055755544453859
-0.0065171876922249
-0.0072716269642114
-0.0077669750899076
-0.0079523082822561
-0.0078061148524284
-0.0073443632572889
-0.0066215731203556
-0.0057235667482018
-0.0047536278143525
-0.0038132234476506
-0.0029829135164618
-0.0023105600848793
-0.0018083117902278
-0.001457302365452
-0.0012183026410639
-0.0010436032898724
-0.0008860062807798
-0.0007048128172755
-0.0004688436165452
-0.0001550507731735
0.000251937424764
0.000753644388169
0.0013330597430467
0.0019600763916969
0.0026020496152341
0.0032292997930198
0.0038128271698951
0.0043193427845835
0.0047083864919841
0.0049328301101922
0.0049412799999117
0.0046837851405143
0.0041236355900764
0.0032493767794221
0.002081876154989
0.0006783404387533
-0.0008718024473637
-0.0024634271394461
-0.003993566147983
-0.0053705866448581
-0.0065179094672203
-0.0073777511715888
-0.0079147508367896
-0.0081173796206712
-0.0079977009445428
-0.0075900773517787
-0.0069480282254517
-0.0061402833089232
-0.0052452962845563
-0.0043410719372332
-0.0034915506839752
-0.0027345188427716
-0.0020785252563655
-0.0015130275860428
-0.0010213628411293
-0.0005846749991178
-0.0001812223345041
0.0002113627269864
0.0006140379700809
0.0010478077456355
0.0015335353091359
0.0020863476675003
0.0027089137583971
0.0033894146326929
0.0041043944656848
0.0048198369331657
0.0054875453934073
0.0060435337945818
0.0064103752374649
0.0065014269202947
0.0062319561839103
0.0055376002565026
0.0043924981728196
0.0028216019272804
0.0009029174689203
-0.0012416394893079
-0.0034626994747668
-0.005602141842246
-0.0075111463665962
-0.0090680997818708
-0.0101944152265787
-0.0108604617416858
-0.0110786408185958
-0.0108912140130996
-0.0103621333837509
-0.0095733338966965
-0.0086180102080106
-0.0075884312391281
-0.0065646283328533
-0.0056077050976455
-0.0047557055950164
-0.0040214611217379
-0.0033936006948351
-0.0028399708680808
-0.002313869073987
-0.0017646122723817
-0.0011484241113066
-0.0004331078380346
0.0004039518535137
0.0013775224797427
0.0024898503907024
0.0037229070439934
0.0050358325242996
0.0063721351325511
0.0076711955480277
0.0088721849024295
0.0099080009385943
0.0106995729729533
0.0111598325893282
0.0112069323658943
0.0107805114239454
0.0098546296358108
0.0084442486986517
0.0066074202768504
0.0044464105740189
0.0021051634103059
-0.0002452656626701
-0.0024339146912097
-0.0043153683654963
-0.0057824170216917
-0.0067686988040804
-0.0072477031499147
-0.0072317779995501
-0.0067698908969759
-0.0059403413906693
-0.0048394054174423
-0.0035696439445018
-0.002229792997241
-0.0009064516052603
0.0003336099907755
0.0014509176835417
0.0024378239177167
0.003313994500786
0.0041118906810879
0.0048643806949257
0.005601542070508
0.0063487533479928
0.0071223848499357
0.0079284766688942
0.0087661398574709
0.0096307089552283
0.0105139696970582
0.0114038437604904
0.0122838970273733
0.0131310727447271
0.0139120910316705
0.0145801035687327
0.0150741543620824
0.0153210535645484
0.0152373760938644
0.0147372316569089
0.0137500585988163
0.0122420564293861
0.0102336853742599
0.0078061786480247
0.0050937491469085
0.0022672824561595
-0.0004844712675549
-0.0029770277906209
-0.005055050831288
-0.0066103753633797
-0.0075887027196586
-0.0079896599054336
-0.0078601203858852
-0.0072849006392061
-0.0063803913071751
-0.0052831075154244
-0.0041293227113783
-0.0030346831772476
-0.0020813702140003
-0.0013144406257197
-0.000744758406654
-0.0003550907131284
-0.0001072869636118
5.056103691458702e-05
0.0001769519876688
0.000330019975081
0.0005602112505584
0.0009036862757056
0.0013815369457006
0.0020005931146442
0.0027471333742141
0.0035818303003907
0.0044478815980255
0.0052869976498186
0.0060503673739731
0.006700231693685
0.0072063538245856
0.0075402562506496
0.0076678949408233
0.007545624859631
0.0071236761286854
0.0063559347763657
0.0052135335281491
0.003699648194015
0.0018594907596707
-0.000222573056817
-0.0024379529058933
-0.0046695829369127
-0.0068011186085641
-0.0087222242727875
-0.0103358719497919
-0.0115676950663328
-0.0123730776831507
-0.0127409817650914
-0.012694988399744
-0.0122897513210773
-0.0116022070869803
-0.010721462778747
-0.0097412522882223
-0.0087504982948303
-0.0078190146014094
-0.0069897142238914
-0.0062835575081408
-0.0057073310017585
-0.0052566537633538
-0.0049137873575091
-0.0046447948552668
-0.0044035846367478
-0.0041411551646888
-0.0038119521923363
-0.0033766399137675
-0.0028044446371495
-0.0020764656364917
-0.001190910115838
-0.0001664450392127
0.0009592613205313
0.0021296478807926
0.0032633934170007
0.004250019788742
0.0049591772258281
0.0052646696567535
0.0050715636461973
0.0043363030999898
0.0030775694176554
0.0013774670660495
-0.0006281556561589
-0.0027684886008501
-0.0048610363155603
-0.0067354631610214
-0.008253707550466
-0.0093217985704541
-0.0098915314301848
-0.0099553521722555
-0.0095443492755293
-0.0087315877899527
-0.0076282499358057
-0.0063671255484223
-0.0050823460333049
-0.0038918843492865
-0.0028829886578023
-0.0021024835295975
-0.0015550777316093
-0.0012093437835574
-0.0010089576244354
-0.0008862074464559
-0.0007749674841761
-0.0006202580407261
-0.0003801556304097
-2.243928611278534e-05
0.0004728091880679
0.0011044358834624
0.0018475856631994
0.0026599485427141
0.0034915134310722
0.004293380305171
0.0050198854878544
0.0056238835677504
0.0060516968369483
0.006242087110877
0.006131044588983
0.0056627327576279
0.0048036277294158
0.0035543153062462
0.0019566090777516
9.595509618520735e-05
-0.0019078748300671
-0.0039224009960889
-0.0058212112635374
-0.0074937101453542
-0.0088523672893643
-0.0098383389413356
-0.0104224290698766
-0.0106027573347091
-0.0104029309004545
-0.0098710376769304
-0.0090766288340091
-0.0081037133932113
-0.0070404973812401
-0.0059687104076147
-0.0049533932469785
-0.004034346435219
-0.0032253861427307
-0.0025231731124222
-0.0019159498624503
-0.0013852883130311
-0.0009056127164512
-0.0004457822069525
2.778414636850357e-05
0.0005460768006742
0.0011307259555906
0.0017889873124659
0.0025136105250567
0.0032859032507985
0.0040800366550683
0.0048679686151444
0.0056235771626234
0.0063263666816055
0.0069606564939022
0.0075039155781269
0.0079133585095405
0.0081265550106763
0.0080742537975311
0.007694985717535
0.0069499178789556
0.0058364961296319
0.0043935058638453
0.0026953667402267
0.0008416236378252
-0.0010536001063883
-0.0028723594732582
-0.0045042522251605
-0.005855580791831
-0.0068538654595613
-0.0074528651311993
-0.0076420693658292
-0.0074518071487545
-0.0069463360123336
-0.0062098689377307
-0.0053329598158597
-0.0044022588990628
-0.003492638003081
-0.0026591022033244
-0.0019313003867864
-0.0013151103630661
-0.0007979478104971
-0.0003538729506544
4.996021743863821e-05
0.0004475319292396
0.000872817414347
0.0013579835649579
0.0019252778729423
0.0025791444350034
0.0033050277270376
0.0040723998099565
0.0048411479219794
0.0055718952789902
0.0062353871762752
0.0068171680904924
0.0073174075223505
0.0077448212541639
0.0081067597493529
0.0084010912105441
0.0086111743003129
0.0087041184306144
0.0086352741345763
0.0083562694489955
0.0078221382573246
0.0070003233850002
0.0058822762221097
0.0044919438660144
0.0028878394514322
0.0011583224404603
-0.0005896716611459
-0.0022451018448919
-0.0037065627984702
-0.0048933909274637
-0.0057524926960468
-0.006261886563152
-0.0064315651543438
-0.0062968833371996
-0.0059055630117654
-0.0053113792091608
-0.0045777484774589
-0.0037769530899822
-0.0029792496934533
-0.0022407085634768
-0.0015969006344676
-0.0010640725959092
-0.0006447766209021
-0.0003314474306534
-0.00010561668023
6.237125489860773e-05
0.000208719400689
0.000368991488358
0.0005732089630328
0.000845112663228
0.0012029007775709
0.0016548524145036
0.002191340085119
0.0027841995470225
0.0033950344659388
0.0039845188148319
0.0045190304517745
0.0049741934053599
0.0053334217518568
0.0055810892954468
0.0056966943666338
0.0056563299149274
0.0054359966889023
0.0050118942745029
0.0043640295043587
0.0034859306178987
0.0023937695659697
0.0011264374479651
-0.000263703521341
-0.0017190210055559
-0.0031774556264281
-0.0045701540075242
-0.0058230310678482
-0.0068654255010187
-0.0076416786760091
-0.0081201381981372
-0.0082971239462494
-0.0081962142139673
-0.0078650740906596
-0.0073683490045368
-0.0067752269096672
-0.0061467457562685
-0.0055282530374825
-0.0049490351229906
-0.0044279121793806
-0.0039783688262104
-0.0036079450510442
-0.0033149148803204
-0.0030869706533849
-0.0029014102183282
-0.0027262051589787
-0.002524230396375
-0.0022604370024055
-0.0019082815852016
-0.0014533093199133
-0.0008937420789152
-0.0002387918066233
0.0004942282103002
0.0012837337562814
0.0021052497904747
0.0029259920120239
0.0036977925337851
0.0043577579781413
0.0048372386954724
0.0050731403753161
0.0050186538137495
0.0046535772271454
0.0039918287657201
0.0030820961110293
0.0020005302503705
0.0008391381707042
-0.000304740620777
-0.001336432993412
-0.0021704577375203
-0.0027361081447452
-0.0029862073715776
-0.0029098540544509
-0.0025390111841261
-0.0019420201424509
-0.0012077884748578
-0.0004272428341209
0.0003211409784853
0.0009786635637283
0.0015086468774825
0.0018954719416797
0.0021425895392894
0.0022706277668476
0.0023139275144785
0.0023154441732913
0.0023224740289151
0.002384576248005
0.0025482869241386
0.0028438018634915
0.0032742421608418
0.0038182109128683
0.0044400324113667
0.0051003992557525
0.0057639274746179
0.0064007355831563
0.00698574911803
0.007498534861952
0.0079188933596014
0.0082189748063683
0.0083598280325531
0.0082951672375202
0.0079811178147792
0.0073884758166968
0.006508152000606
0.0053480807691812
0.0039335079491138
0.0023137680254876
0.0005648878286592
-0.0012170609552413
-0.0029279552400112
-0.0044687720946967
-0.0057571418583393
-0.0067346012219786
-0.0073692835867404
-0.0076575390994548
-0.0076256506145
-0.0073272101581096
-0.0068322024308145
-0.0062109618447721
-0.0055239433422684
-0.0048237792216241
-0.0041599106043577
-0.0035752977710217
-0.0030990273226052
-0.0027408809401094
-0.0024891279172152
-0.0023125414736568
-0.0021673256997019
-0.002006750088185
-0.0017891011666506
-0.0014819423668086
-0.0010646949522197
-0.0005316107999533
0.0001095163170248
0.0008457363583147
0.0016625032294541
0.0025356772821396
0.0034250007010996
0.0042771599255502
0.005031774751842
0.0056253317743539
0.0059949262067675
0.0060836505144834
0.0058456482365727
0.0052512539550662
0.0042955139651894
0.0030060592107474
0.0014436659403145
-0.0003035723930224
-0.0021285633556544
-0.0039150090888142
-0.0055512143298983
-0.0069467024877667
-0.0080413110554218
-0.0088026989251375
-0.0092222997918725
-0.0093151368200778
-0.0091175530105829
-0.0086803473532199
-0.0080620450899004
-0.0073243016377091
-0.0065267900936305
-0.0057217236608266
-0.0049493317492306
-0.0042333165183663
-0.0035775816068053
-0.0029672794044017
-0.0023759379982948
-0.0017765723168849
-0.0011505326256155
-0.0004902766086161
0.0002028532326221
0.0009236512705683
0.0016677007079124
0.0024327980354428
0.0032190321944653
0.0040285410359501
0.0048621241003274
0.005714779254049
0.006574410945177
0.0074205351993441
0.0082196500152349
0.0089222323149442
0.0094629982486367
0.0097620766609907
0.0097324717789888
0.0092974826693534
0.0084119066596031
0.007077076472342
0.0053439768962562
0.0033065704628825
0.0010903151705861
-0.0011605424806475
-0.003296707291156
-0.0051792603917419
-0.0066934088245034
-0.0077582681551575
-0.0083327330648899
-0.0084169497713446
-0.0080525260418653
-0.0073217619210481
-0.0063386759720742
-0.0052305669523775
-0.0041176117956638
-0.003097619395703
-0.0022384701296687
-0.0015742289833724
-0.0011020726524293
-0.0007850457914173
-0.0005631893873214
-0.0003671236336231
-0.0001278594136238
0.0002160584554076
0.0007109143771231
0.0013828976079821
0.0022362279705703
0.0032494505867362
0.004374579526484
0.005547453649342
0.006704460363835
0.0077944523654878
0.00878163613379
0.0096397995948791
0.0103402864187955
0.0108412876725196
0.011086412705481
0.0110121481120586
0.0105582289397716
0.0096795754507184
0.0083611514419317
0.0066306665539741
0.0045592412352561
0.0022488206159323
-0.0001809201203286
-0.00259973667562
-0.0048755877651274
-0.0068855821155011
-0.0085257720202207
-0.0097224246710538
-0.0104410899803042
-0.0106883225962519
-0.0105084795504808
-0.0099762715399265
-0.0091851968318223
-0.008235665038228
-0.0072233965620398
-0.006227939389646
-0.005307154264301
-0.0044991080649197
-0.0038220859132707
-0.0032705413177609
-0.0028167138807475
-0.0024201995693147
-0.0020370315760374
-0.0016239238902926
-0.0011414280161261
-0.0005583623424172
0.0001439563930034
0.0009682197123765
0.0019003432244062
0.0029142242856323
0.0039793001487851
0.0050641424022614
0.0061302743852138
0.0071185640990734
0.0079426206648349
0.0084985308349132
0.0086830742657184
0.0084119886159896
0.007637707516551
0.0063643679022789
0.0046556312590837
0.0026315252762287
0.0004533589817583
-0.0016982979141175
-0.0036453641951084
-0.0052301129326224
-0.0063283797353506
-0.0068582161329686
-0.0067886295728385
-0.0061503066681325
-0.0050375084392726
-0.00359264947474
-0.0019796504639089
-0.0003570220433175
0.0011424208059906
0.0024242186918854
0.0034389647189527
0.0041822912171483
0.0046877576969563
0.0050165564753115
0.0052463822066783
0.0054590739309787
0.0057307393290102
0.0061259483918547
0.0066895373165607
0.0074355360120534
0.0083434805274009
0.0093668019399046
0.0104477778077125
0.0115297688171267
0.0125591475516557
0.0134786171838641
0.0142194563522934
0.0146975554525852
0.0148166427388787
0.0144808515906333
0.0136138293892145
0.0121782971546053
0.0101916613057255
0.0077350186184048
0.0049493047408759
0.0020133624784648
-0.0008864097762852
-0.0035791411064565
-0.0059223994612693
-0.0078091165050864
-0.0091709475964307
-0.0099800685420632
-0.0102492626756429
-0.0100287944078445
-0.0094009395688772
-0.0084728049114346
-0.0073650181293487
-0.006195762194693
-0.0050639947876334
-0.0040373387746512
-0.0031498393509536
-0.0024081193841993
-0.0017982450081035
-0.0012898559216409
-0.0008394930046051
-0.0003962272312492
8.918670937418938e-05
0.0006547826342284
0.0013218699023127
0.0020950599573552
0.0029650656506419
0.0039106355980038
0.0048999986611306
0.0058931251987814
0.0068456470035016
0.0077140880748629
0.008454711176455
0.009013021364808
0.0093157785013318
0.009273967705667
0.0087955826893448
0.0078057087957859
0.0062673967331647
0.0041958317160606
0.0016625458374619
-0.0012100785970687
-0.0042600538581609
-0.0073022674769163
-0.0101521350443363
-0.0126496003940701
-0.0146726397797465
-0.0161392409354448
-0.0170096270740032
-0.0172940455377101
-0.0170531701296567
-0.0163845811039209
-0.0154057573527097
-0.0142404772341251
-0.0130059607326984
-0.0117996176704764
-0.0106889158487319
-0.0097076259553432
-0.0088582998141646
-0.008117701858282
-0.0074435574933886
-0.0067834085784852
-0.006083040498197
-0.0052916202694177
-0.0043688621371984
-0.0032976074144244
-0.002091113012284
-0.0007861307822167
0.0005710679106414
0.001934970729053
0.0032661790028214
0.0045345756225287
0.0057197394780814
0.0068073305301368
0.0077814706601202
0.0086151678115129
0.0092629278078675
0.0096597103402018
0.0097296014428138
0.0094018848612904
0.0086249811574816
0.0073742102831602
0.0056593306362628
0.0035328976809978
0.0010924628004431
-0.0015260120853781
-0.0041609709151089
-0.0066425409168004
-0.0088113909587264
-0.0105352718383073
-0.0117213446646928
-0.0123234754428267
-0.0123445354402065
-0.0118349781259894
-0.0108861029148101
-0.0096148941665887
-0.0081469099968671
-0.0066061648540198
-0.0051062740385532
-0.0037371206562966
-0.002553540514782
-0.0015715518966317
-0.0007729902863502
-0.0001161191612482
0.0004539368674159
0.0009978301823139
0.0015746881254017
0.0022328742779791
0.0030027017928659
0.0038953507319092
0.0049060583114624
0.0060164704918861
0.0071942685171961
0.0083936303853988
0.009560439735651
0.0106404712423682
0.0115859741345047
0.0123589821159839
0.0129326991736888
0.013289401307702
0.0134119521826505
0.0132744032889604
0.0128398044034838
0.0120659470558166
0.0109167462214827
0.0093758897855877
0.0074592186138033
0.0052245873957872
0.002772307023406
0.0002293130382895
-0.0022733760997653
-0.0046157524921
-0.0066943895071744
-0.0084236236289143
-0.0097395032644271
-0.0106094907969236
-0.0110401641577482
-0.0110758664086461
-0.0107898293063044
-0.0102710267528891
-0.0096102505922317
-0.0088889552280306
-0.0081707797944545
-0.0074944389052689
-0.0068714721128344
-0.0062907468527555
-0.0057245958596467
-0.0051352544687688
-0.0044842180795967
-0.0037412457168102
-0.0028890636749565
-0.0019250740297138
-0.000860780943185
0.0002811886370182
0.0014685126952826
0.0026577715761959
0.0037968968972563
0.0048348726704716
0.0057336091995239
0.0064751929603517
0.0070584523491561
0.0074864253401756
0.0077551444992423
0.0078493440523743
0.0077441446483135
0.0074100326746702
0.0068178297951817
0.0059446478262543
0.0047831377014517
0.0033503649756312
0.0016915211454033
-0.0001220945268869
-0.0019999872893095
-0.0038411184214055
-0.0055405520834028
-0.0069952858611941
-0.0081149097532033
-0.0088388137519359
-0.0091495662927627
-0.0090729482471942
-0.0086686145514249
-0.008018422871828
-0.0072139147669076
-0.0063436385244131
-0.0054838596843183
-0.0046936804428696
-0.0040120496414601
-0.0034561404027044
-0.0030219792388379
-0.0026872726157307
-0.002414584159851
-0.0021538012661039
-0.0018483605235815
-0.001448449678719
-0.0009255707263946
-0.0002794144675135
0.0004670294001698
0.0012788511812686
0.0021184901706874
0.0029505603015422
0.0037445006892085
0.0044759237207472
0.0051258895546197
0.0056782565079629
0.0061163385398685
0.0064206323586404
0.0065699480473995
0.0065445890650153
0.0063250856474041
0.0058873100206255
0.0052047953940927
0.0042610289528965
0.003062876407057
0.0016478500328958
8.300552144646645e-05
-0.0015435507521033
-0.0031346520408988
-0.0045958519913256
-0.0058460570871829
-0.0068265325389802
-0.007505714893341
-0.0078777223825454
-0.0079561723396182
-0.0077684000134468
-0.0073552010580897
-0.0067731384187936
-0.0060910363681614
-0.0053794784471392
-0.0046991584822535
-0.0040935683064162
-0.0035859206691384
-0.0031772113870829
-0.0028477003797888
-0.0025647981092333
-0.0022926023229956
-0.0019989940337836
-0.0016618677182123
-0.0012713950127363
-0.0008240628521889
-0.0003148443065583
0.0002623084001243
0.0009060257580131
0.0016008261591196
0.0023178609553724
0.0030210299883037
0.0036741837393492
0.0042468179017305
0.0047172522172331
0.005072099622339
0.0053025903180241
0.0054011857137084
0.0053585371933877
0.0051598735153675
0.0047869198024272
0.0042288792319595
0.0034943972714245
0.0026127703022211
0.0016232323832809
0.0005645607598125
-0.0005263285711407
-0.001610807608813
-0.0026467184070497
-0.0035907619167119
-0.0044030994176864
-0.0050513516180217
-0.005514211487025
-0.0057839751243591
-0.005864982958883
-0.0057692942209541
-0.00551472697407
-0.0051243770867586
-0.004623350687325
-0.0040380237624049
-0.0034009672235697
-0.0027511571533977
-0.0021254757884889
-0.0015498978318646
-0.0010367050999775
-0.000586528214626
-0.000190183869563
0.0001705738250166
0.0005202393513172
0.0008840123191475
0.0012814421206712
0.0017220636364072
0.0022042177151888
0.0027173906564712
0.003249670844525
0.0037937939632683
0.004343066830188
0.004884488414973
0.0054000057280063
0.0058727953583002
0.0062888478860259
0.006630684249103
0.006870549172163
0.006971635390073
0.0068964529782533
0.006616017781198
0.0061168074607849
0.005404891911894
0.0045060189440846
0.0034642608370631
0.0023418287746608
0.0012117596343159
0.0001407893141731
-0.0008222975302487
-0.0016457682941108
-0.0023105898872017
-0.0028081238269805
-0.0031393156386911
-0.0033145677298307
-0.0033532767556607
-0.0032831837888807
-0.003138312138617
-0.0029527842998504
-0.0027535362169146
-0.0025569160934537
-0.0023686061613261
-0.0021849232725799
-0.0019968387205153
-0.0017971354536712
-0.0015855096280574
-0.0013673894573003
-0.0011488483287394
-0.0009317370131611
-0.0007123199757188
-0.0004844923969358
-0.0002442908007651
8.453615009784698e-06
0.0002722879871726
0.0005466945003718
0.0008324107620865
0.0011310561094433
0.0014452079776674
0.0017789404373615
0.0021345445420593
0.0025029189419001
0.0028571549337357
0.0031557651236653
0.0033504969906061
0.00339494086802
0.0032532666809856
0.0029072978068143
0.0023613355588167
0.0016443964559584
0.0008076683152467
-8.291006088256836e-05
-0.000955787487328
-0.0017429976724088
-0.002387510612607
-0.0028456095606088
-0.0030893753282725
-0.0031146737746894
-0.0029451581649482
-0.0026243720203638
-0.0022030663676559
-0.0017291991971433
-0.0012426613830029
-0.0007742783054709
-0.0003454932011663
3.210455179214477e-05
0.0003559608012437
0.0006312350742518
0.0008688559755682
0.0010846965014934
0.0013017235323786
0.0015486644115298
0.0018495959229767
0.0022121781948953
0.0026258849538862
0.0030695809982717
0.0035197525285184
0.0039540976285934
0.0043514082208275
0.0046922350302338
0.0049616852775216
0.0051504201255738
0.0052514695562422
0.00525509333238
0.0051454426720738
0.0049027251079678
0.0045119668357074
0.0039728223346173
0.0033004875294864
0.0025170142762362
0.0016458578174933
0.0007158531807363
-0.0002328066620975
-0.0011478662490844
-0.0019725563470274
-0.0026569948531687
-0.0031639181543141
-0.003469469025731
-0.0035659831482917
-0.0034634468611329
-0.0031847455538809
-0.0027595376595854
-0.0022192508913576
-0.001592754619196
-0.000908505404368
-0.0002030883915722
0.0004754024557769
0.0010753707028925
0.0015547121874988
0.0018910611979663
0.0020862317178398
0.002163871191442
0.0021627596579492
0.0021287975832819
0.0021056237164884
0.0021260203793644
0.0022083669900894
0.0023574086371809
0.0025668079033493
0.0028239411767572
0.0031140609644353
0.0034204693511128
0.0037251054309308
0.004011346027255
0.0042640143074095
0.004467052873224
0.0046016266569495
0.0046431859955191
0.004559461493045
0.0043145571835339
0.0038786102086305
0.0032360162585973
0.002389394911006
0.0013631695182994
0.0002062375133391
-0.0010112007148563
-0.0022103337105363
-0.0033223428763449
-0.0042992150411009
-0.0051121320575475
-0.0057471860200166
-0.006201690994203
-0.0064793792553246
-0.0065890392288565
-0.0065480298362672
-0.0063852672465145
-0.0061399596743285
-0.0058542103506624
-0.0055615287274122
-0.0052794818766415
-0.0050086094997823
-0.0047336881980299
-0.0044309184886515
-0.0040811002254486
-0.003677146974951
-0.0032220571301877
-0.0027237012982368
-0.0021911300718784
-0.00163506611716
-0.0010704806772992
-0.0005152432713657
1.4326651580631731e-05
0.0005055400542914
0.0009498159051872
0.0013432679697871
0.0016861330950632
0.0019839042797684
0.0022503447253257
0.0025031706318259
0.0027490649372339
0.0029699308797717
0.0031221397221088
0.0031464954372495
0.0029821023344993
0.0025822296738624
0.0019274046644568
0.0010293287923559
-7.221952546387911e-05
-0.0013147107092663
-0.0026206404436379
-0.0039078234694898
-0.0050998050719499
-0.0061320289969444
-0.006951592862606
-0.0075182300060987
-0.007812398020178
-0.0078421896323561
-0.0076405573636293
-0.0072554135695099
-0.0067402943968772
-0.0061498712748289
-0.0055368086323142
-0.004945961292833
-0.0044088466092944
-0.0039419666863977
-0.0035476521588861
-0.0032154908403754
-0.0029244567267596
-0.0026448247954249
-0.0023402404040098
-0.0019744462333619
-0.0015234057791531
-0.000984214246273
-0.00037189014256
0.000293138436973
0.0009956462308764
0.001729920040816
0.0025015491992235
0.003325808327645
0.0042203092016279
0.0051958868280053
0.0062479176558554
0.0073489136993885
0.0084469551220536
0.0094716381281614
0.0103434054180979
0.0109800733625888
0.0113009931519627
0.0112361572682857
0.0107402866706252
0.009805760346353
0.0084693077951669
0.0068080453202128
0.0049275811761617
0.002948835492134
0.0009943216573446
-0.000826045172289
-0.0024257260374724
-0.0037467656657099
-0.0047603864222764
-0.005463371053338
-0.0058719334192574
-0.0060189119540154
-0.0059556858614087
-0.0057497839443385
-0.0054729864932596
-0.005187930073589
-0.0049412511289119
-0.0047617400996387
-0.0046596201136708
-0.0046279644593596
-0.0046469834633171
-0.0046872925013303
-0.0047114714980125
-0.00467867590487
-0.0045523191802203
-0.0043040243908762
-0.003913321532309
-0.0033697774633765
-0.002677297219634
-0.0018562376499176
-0.000941811595112
2.291891723871231e-05
0.0009959978051483
0.0019396720454096
0.0028163553215563
0.0035823318175971
0.0041854833252727
0.0045712953433394
0.0046936944127082
0.004525389522314
0.0040668183937668
0.0033510425128042
0.0024419343098998
0.0014249188825488
0.0003904257901012
-0.0005811862647533
-0.0014244718477129
-0.0020884089171886
-0.0025384500622749
-0.002759707160294
-0.0027563106268644
-0.0025484021753072
-0.0021695224568247
-0.0016610901802778
-0.0010632229968905
-0.000407394953072
0.0002856403589248
0.0010051559656858
0.0017506657168269
0.002529498655349
0.0033476641401648
0.0042022550478577
0.0050825481303036
0.0059737185947597
0.0068591851741075
0.0077236825600266
0.0085550565272569
0.0093433046713471
0.0100796381011605
0.0107567105442285
0.0113688763231039
0.0119123561307787
0.0123862084001302
0.0127927120774984
0.0131326764822006
0.0133932074531912
0.0135340541601181
0.0134857706725597
0.0131645146757364
0.012493884190917
0.0114238951355218
0.0099435783922672
0.0080853477120399
0.005921512376517
0.003556627780199
0.0011175147956237
-0.0012606736272573
-0.0034511378034949
-0.0053491909056901
-0.0068787792697548
-0.007992710918188
-0.0086743775755167
-0.0089436033740639
-0.0088557302951812
-0.0084907598793506
-0.0079410132020711
-0.0072990185581147
-0.0066445986740291
-0.0060358410701155
-0.0055078421719372
-0.0050756316632032
-0.0047353585250675
-0.0044658752158284
-0.0042356844060122
-0.004011261742562
-0.0037594749592244
-0.0034451696556061
-0.0030333129689097
-0.0025000411551445
-0.0018434707308188
-0.0010848167585209
-0.0002605025074444
0.0005888261948712
0.0014267009682953
0.0022243580315262
0.0029599335975944
0.0036145471967756
0.0041658533737063
0.0045801945962011
0.0048086629249155
0.0047915307804942
0.0044693918898701
0.0037987094838172
0.0027659903280436
0.0013905693776905
-0.0002814244944602
-0.0021804305724799
-0.0042136353440582
-0.0062698675319552
-0.0082313250750303
-0.0099857645109295
-0.0114355245605111
-0.0125059774145483
-0.0131534170359373
-0.0133699523285031
-0.0131835266947746
-0.0126507636159658
-0.0118438201025128
-0.0108383707702159
-0.0097091095522046
-0.0085304202511906
-0.0073744556866586
-0.0063036372885107
-0.0053615192882716
-0.0045671933330595
-0.003913851454854
-0.0033701490610837
-0.0028861539904028
-0.0024031493812799
-0.0018635657615959
-0.001221383921802
-0.0004516586195677
0.0004465943202376
0.0014568762853741
0.0025567237753421
0.0037233722396194
0.0049287714064121
0.0061335954815149
0.0072892103344202
0.0083437897264957
0.0092443134635686
0.009933671914041
0.0103485751897096
0.0104226684197783
0.0100971674546599
0.0093366336077451
0.0081408619880676
0.0065487404353916
0.0046374946832656
0.0025182738900184
0.0003254238981753
-0.0018016966059803
-0.0037380657158792
-0.0053839301690459
-0.0066672218963503
-0.0075448136776685
-0.0080051021650433
-0.008068130351603
-0.0077820601873099
-0.0072181797586381
-0.0064638336189091
-0.0056122243404388
-0.0047498689964413
-0.0039432221092283
-0.003230343805626
-0.002621621126309
-0.0021042001899331
-0.0016477659810334
-0.001214537769556
-0.0007693017832934
-0.0002836962230503
0.0002631319221109
0.0008830826263874
0.0015775575302541
0.0023389300331473
0.0031537041068077
0.0040046097710728
0.0048725069500505
0.0057389428839087
0.0065867756493389
0.0073976935818791
0.0081510683521628
0.0088243735954165
0.009386483579874
0.0097858682274818
0.0099499635398387
0.0097990911453962
0.0092644952237606
0.0083053177222609
0.0069217141717672
0.005159308668226
0.0031059021130204
0.000885106739588
-0.0013553644530475
-0.0034619369544088
-0.0052924389019608
-0.0067303040996193
-0.0076957694254815
-0.0081490566954016
-0.0080912923440337
-0.0075704650953412
-0.0066811498254537
-0.005548542831093
-0.004306613933295
-0.0030805736314505
-0.00197289371863
-0.001052300678566
-0.0003491952084004
0.0001421701163053
0.0004579605301842
0.0006573566934093
0.0008124347077682
0.0009955444838851
0.0012701133964583
0.0016866041114553
0.0022754317615181
0.0030375546775758
0.0039452505297958
0.0049539459869265
0.0060140648856759
0.0070767505094408
0.0080932835116982
0.009011048823595
0.0097692962735891
0.0102966409176588
0.0105146737769246
0.0103499563410878
0.0097490679472684
0.0086901597678661
0.0071915397420525
0.0053197029046714
0.003187779104337
0.0009370089974254
-0.0012859081616625
-0.0033428198657929
-0.005113448947668
-0.006504819728434
-0.0074576204642653
-0.0079470835626125
-0.0079812705516815
-0.0075998259708285
-0.0068718451075255
-0.0058895526453852
-0.0047578988596796
-0.0035823918879032
-0.0024553542025387
-0.0014423350803554
-0.0005766088142991
0.0001338478177785
0.000695664435625
0.0011259436141699
0.0014531996566802
0.0017155115492641
0.0019548109266906
0.0022129202261567
0.002529063494876
0.0029340030159801
0.0034423766192048
0.0040498385205864
0.0047372756525874
0.0054759881459176
0.0062303114682435
0.0069621559232473
0.0076327235437929
0.0081921312958002
0.008567551150918
0.0086658801883459
0.0083891972899436
0.0076538068242371
0.0064079840667545
0.0046450486406683
0.0024078795686364
-0.0002154791727662
-0.0031003206968307
-0.006095150951296
-0.009034845046699
-0.0117570236325263
-0.0141176050528883
-0.0160011015832424
-0.0173276457935571
-0.0180622711777687
-0.0182213857769966
-0.0178680550307035
-0.0171000398695468
-0.0160367768257856
-0.0148044433444738
-0.0135195860639214
-0.0122756445780396
-0.0111357439309358
-0.0101321600377559
-0.0092695225030183
-0.0085279606282711
-0.0078660072758793
-0.0072249956429004
-0.0065352618694305
-0.0057279197499156
-0.0047537828795611
-0.0035967305302619
-0.0022727644536644
-0.0008221304742619
0.0007000990444794
0.0022351318039
0.003730930853635
0.0051475325599312
0.0064547285437583
0.0076245116069912
0.0086226221174001
0.0094036804512143
0.0099124982953071
0.0100908009335398
0.0098874568939208
0.0092669837176799
0.0082130348309874
0.0067334086634218
0.0048699430190026
0.0027043444570153
0.0003537671873345
-0.0020395121537148
-0.004321395419538
-0.0063427640125155
-0.0079761054366827
-0.0091280126944184
-0.0097475508227944
-0.0098296636715531
-0.0094122597947716
-0.0085697192698717
-0.0074034538120031
-0.0060283811762928
-0.004561704583466
-0.0031157948542386
-0.0017870354931801
-0.0006415364332497
0.0002930636983364
0.0010275944368913
0.0016046385280787
0.002086482476443
0.0025435269344598
0.0030443645082414
0.0036441928241401
0.0043768021278083
0.0052550681866705
0.0062748454511165
0.0074172434397041
0.0086484905332326
0.0099192429333925
0.0111684706062078
0.0123333372175693
0.013358267955482
0.0141957281157374
0.0147996675223112
0.0151192881166934
0.015099024400115
0.0146854789927601
0.0138379409909248
0.0125390086323022
0.0108035868033766
0.0086840968579053
0.006270701996982
0.0036861062981188
0.0010724544990807
-0.00142776616849
-0.0036865090951323
-0.0055957487784326
-0.0070712678134441
-0.0080594522878527
-0.0085437130182981
-0.008548317477107
-0.0081380829215049
-0.0074102375656366
-0.0064794686622917
-0.0054624248296022
-0.0044651441276073
-0.0035720500163733
-0.0028361245058476
-0.0022740643471479
-0.0018702987581491
-0.0015885840402916
-0.0013846160145476
-0.00121352635324
-0.0010323291644454
-0.0008031278266571
-0.0004990108427591
-0.0001066047698259
0.0003761767875403
0.0009419171838089
0.0015745774144306
0.0022521237842738
0.0029499966185539
0.0036430489271879
0.0043063405901193
0.0049160327762365
0.0054458994418382
0.0058572366833686
0.0060921525582671
0.006078687030822
0.0057444376870989
0.0050322641618549
0.0039145452901721
0.0024023591540753
0.0005466546863317
-0.0015653981827199
-0.0038157477974891
-0.0060649700462818
-0.0081666093319654
-0.0099822022020816
-0.0113926511257886
-0.0123088276013731
-0.0126872528344392
-0.0125429760664701
-0.0119466818869113
-0.011008957400918
-0.0098609859123826
-0.0086347069591283
-0.0074451509863138
-0.0063783661462366
-0.0054856091737747
-0.0047824908979237
-0.0042517404071986
-0.0038493848405778
-0.0035131941549479
-0.003172458615154
-0.0027584894560277
-0.0022127348929643
-0.0014935991493985
-0.0005856360075995
0.000494607083965
0.001703537767753
0.0029832823202013
0.0042743012309074
0.0055225612595677
0.0066793300211429
0.0076955528929829
0.0085162166506052
0.0090792700648307
0.0093208467587828
0.0091848606243729
0.008633492514491
0.0076591302640736
0.00629593571648
0.0046209851279854
0.0027410399634391
0.0007753016543574
-0.0011556807439774
-0.0029360610060393
-0.0044608367606997
-0.0056431661359965
-0.0064219832420349
-0.00676852138713
-0.0066894949413836
-0.0062254047952592
-0.0054442952387034
-0.0044336030259728
-0.003291708882898
-0.0021156873553991
-0.0009847005130723
4.963448736816645e-05
0.0009594081202521
0.0017326765228062
0.0023701239842921
0.0028850967064499
0.0033029650803655
0.0036585731431841
0.0039932965300977
0.0043506291694939
0.004768983926624
0.0052731679752469
0.0058673387393355
0.0065340409055352
0.007241035811603
0.0079520447179675
0.008635708130896
0.0092653157189488
0.0098075754940509
0.0102112097665667
0.0104040428996086
0.0102979000657796
0.0098016429692506
0.0088415928184986
0.0073819337412714
0.0054365545511245
0.0030695716850459
0.0003896038979291
-0.002457951195538
-0.0053044557571411
-0.0079793995246291
-0.0103321205824613
-0.012245375663042
-0.0136422291398048
-0.0144917285069823
-0.0148113099858164
-0.014660932123661
-0.0141288749873638
-0.0133151169866323
-0.0123186726123094
-0.0112287709489464
-0.0101173399016261
-0.0090335328131914
-0.0080020381137728
-0.0070256842300295
-0.0060914140194654
-0.0051765725947916
-0.0042534130625426
-0.0032928781583905
-0.0022707437165081
-0.001176452729851
-1.7748447135090828e-05
0.0011836143676191
0.0024004492443054
0.0036064409650862
0.0047784056514501
0.0058972919359803
0.0069497753866016
0.0079285278916358
0.0088285543024539
0.0096394214779138
0.0103364679962396
0.0108755053952336
0.0111945522949099
0.0112215848639607
0.0108837084844708
0.0101175457239151
0.0088832974433898
0.0071804486215114
0.005059388000518
0.0026215927209705
5.366804543882608e-06
-0.0026351725682616
-0.005146742798388
-0.0073870327323675
-0.0092352507635951
-0.0106060896068811
-0.0114586167037487
-0.0117938881739974
-0.0116461347788572
-0.0110738314688205
-0.0101548181846737
-0.0089844232425093
-0.0076696127653121
-0.006316746585071
