bvp
-0.0134787689894437
-0.0138766765594482
-0.0135459965094923
-0.0126288887113332
-0.0112981395795941
-0.0097381826490163
-0.008122899569571
-0.0065946565009653
-0.0052518351003527
-0.0041470490396022
-0.0032904366962611
-0.0026540986727923
-0.002180109731853
-0.00179194053635
-0.0014045829884707
-0.0009353696368634
-0.0003205374814569
0.0004698778502643
0.0014297659508883
0.0025249938480556
0.0037043699994683
0.0049115517176687
0.0060955332592129
0.0072155054658651
0.0082414764910936
0.0091517306864261
0.0099213887006044
0.0105038164183497
0.0108201541006565
0.0107679301872849
0.0102440873160958
0.0091692963615059
0.0075058490037918
0.0052706999704241
0.0025428067892789
-0.0005400544032454
-0.0037942128255963
-0.0070097306743264
-0.0099744610488414
-0.012497778981924
-0.0144305964931845
-0.0156804453581571
-0.0162185132503509
-0.0160776916891336
-0.0153453480452299
-0.0141514036804437
-0.0126498639583587
-0.0109989224001765
-0.0093458602204918
-0.0078147202730178
-0.0064940974116325
-0.0054285703226923
-0.0046178014017641
-0.0040225316770374
-0.0035759103484451
-0.003199839964509
-0.0028215153142809
-0.0023843082599341
-0.0018522180616855
-0.0012099402956664
-0.0004603150300681
0.0003814054653048
0.0012950329110026
0.0022581294178962
0.0032404540106654
0.0041944310069084
0.0050462232902646
0.0056915832683444
0.0060031563043594
0.0058509595692157
0.0051291985437273
0.0037811845541
0.0018180292099714
-0.0006730007007718
-0.0035350057296454
-0.0065610688179731
-0.0095207020640373
-0.0121867842972278
-0.01435905136168
-0.0158867258578538
-0.0166896563023328
-0.0167670845985412
-0.0161881372332572
-0.0150708686560392
-0.0135596981272101
-0.0118075534701347
-0.0099629955366253
-0.0081584239378571
-0.0064984802156686
-0.0050504356622695
-0.003839511424303
-0.0028522422071546
-0.0020459042862057
-0.0013589963782578
-0.0007206994923762
-6.211291474755853e-05
0.0006700251251459
0.0015030676731839
0.0024362355470657
0.0034465263597667
0.0044994484633207
0.0055581871420145
0.0065884543582797
0.0075615774840116
0.0084553435444831
0.0092476280406117
0.0099026961252093
0.0103579144924879
0.0105210524052381
0.0102855004370212
0.0095597645267844
0.0082939872518181
0.0064911362715065
0.004209297709167
0.0015622889623045
-0.00128756579943
-0.0041499882936477
-0.0068334825336933
-0.0091674048453569
-0.011017395183444
-0.012296007014811
-0.0129662239924073
-0.0130389239639043
-0.0125696174800395
-0.0116531271487474
-0.010410526767373
-0.008970164693892
-0.0074528334662318
-0.005964923184365
-0.0045912005007267
-0.0033838497474789
-0.0023558414541184
-0.0014832457527518
-0.0007126415148377
2.818740904331208e-05
0.0008153496310114
0.0017142491415143
0.0027698632329702
0.0040011699311435
0.0053992616012692
0.0069302208721637
0.0085435081273317
0.0101828053593635
0.0117909079417586
0.0133076850324869
0.0146699510514736
0.0158129259943962
0.0166653059422969
0.0171414948999881
0.0171430185437202
0.0165745355188846
0.0153689980506896
0.0135115887969732
0.0110547728836536
0.0081197973340749
0.0048841745592653
0.0015604505315423
-0.0016274359077215
-0.0044671962969005
-0.0067817694507539
-0.0084504354745149
-0.0094186579808592
-0.0096955895423889
-0.009344452060759
-0.0084679303690791
-0.0071917856112122
-0.0056520393118262
-0.003986420109868
-0.0023252889513969
-0.0007798764854669
0.0005690846592187
0.0016788402572274
0.0025458796881139
0.0032026870176196
0.0037105674855411
0.0041437395848333
0.0045695495791733
0.0050371815450489
0.00557655794546
0.0062024570070207
0.00691978354007
0.00772650167346
0.0086143398657441
0.0095691615715622
0.0105710932984948
0.0115938400849699
0.0126031590625643
0.0135529739782214
0.0143764819949865
0.0149785941466689
0.01524178404361
0.0150437615811824
0.0142782721668481
0.0128777446225285
0.010833952575922
0.008208904415369
0.0051333676092326
0.0017926248256117
-0.0015982659533619
-0.0048222383484244
-0.0076839961111545
-0.0100265014916658
-0.0117415320128202
-0.0127755692228674
-0.0131293106824159
-0.0128521649166941
-0.0120336953550577
-0.0107952300459146
-0.0092833265662193
-0.0076564708724617
-0.0060626207850873
-0.0046177078038454
-0.0033924034796655
-0.0024098989088088
-0.0016527527477592
-0.0010733760427683
-0.0006054048426449
-0.0001759899314492
0.0002811006270349
0.0008151771035045
0.0014550681225955
0.0022111604921519
0.0030801307875663
0.0040471218526363
0.0050809080712497
0.0061298310756683
0.0071262014098465
0.0079920785501599
0.0086395824328064
0.0089703500270843
0.0088829891756176
0.0082921450957655
0.0071521569043397
0.0054749115370213
0.0033367369323968
0.0008711559930816
-0.0017505852738395
-0.0043399757705628
-0.0067072827368974
-0.008681415580213
-0.010134651325643
-0.010999072343111
-0.011267521418631
-0.0109853670001029
-0.0102417469024658
-0.0091594820842146
-0.0078778928145766
-0.0065332632511854
-0.0052447696216404
-0.0041045397520065
-0.003170897020027
-0.0024661626666784
-0.0019779843278229
-0.00166334095411
-0.0014542810386046
-0.0012674540048465
-0.001020691357553
-0.0006498028524219
-0.0001164692803286
0.0005921419360674
0.0014683902263641
0.0024904436431825
0.0036260313354432
0.0048343851231038
0.0060683325864374
0.007272285874933
0.0083726253360509
0.0092684682458639
0.009834281168878
0.0099360337480902
0.0094561381265521
0.0083189252763986
0.0065069086849689
0.0040676156058907
0.0011147623881697
-0.0021787073928862
-0.0055977166630327
-0.0089094284921884
-0.0118903247639536
-0.014351331628859
-0.0161555670201778
-0.017226068302989
-0.0175466984510421
-0.0171591080725193
-0.0161556284874677
-0.0146671794354915
-0.0128445513546466
-0.0108386650681495
-0.0087900487706065
-0.0068238340318202
-0.0050410395488142
-0.003507760586217
-0.0022473209537565
-0.0012398369144648
-0.0004316654521971
0.0002504377625882
0.0008854786865413
0.0015450427308678
0.0022835796698927
0.0031341810245066
0.0041079428046941
0.0051973853260278
0.0063837408088147
0.007640101481229
0.0089263077825307
0.0101845003664493
0.0113381557166576
0.0122884204611182
0.0129128061234951
0.0130774108693003
0.0126623911783099
0.0115901390090584
0.0098461741581559
0.0074886688962578
0.0046457974240183
0.0015000120038166
-0.0017373635200783
-0.0048514576628804
-0.0076431194320321
-0.0099463956430554
-0.0116471061483025
-0.012694357894361
-0.0130988582968711
-0.0129223577678203
-0.0122632943093776
-0.011240592226386
-0.0099781546741724
-0.0085922097787261
-0.0071817035786807
-0.0058208340778946
-0.0045527084730565
-0.003387392964214
-0.0023076185025274
-0.0012766746804118
-0.0002447133883833
0.0008397893980145
0.002012038603425
0.0032798626925796
0.0046284836716949
0.0060320785269141
0.0074615376070141
0.0088887065649032
0.01028757635504
0.0116312224417924
0.012890150770545
0.014035353437066
0.015039867721498
0.0158727169036865
0.0164875425398349
0.016815947368741
0.0167728085070848
0.0162704512476921
0.0152372987940907
0.0136393038555979
0.0114971380680799
0.0088920686393976
0.0059599820524454
0.0028760954737663
-0.0001659843255765
-0.0029779593460261
-0.0053978124633431
-0.0073028532788157
-0.0086175939068198
-0.0093187820166349
-0.0094342129305005
-0.0090328520163893
-0.0082098310813307
-0.007075865752995
-0.0057536121457815
-0.0043706740252673
-0.0030442774295806
-0.0018656470347195
-0.0008912385092116
-0.0001404151553288
0.0004020235501229
0.0007781947497278
0.0010458813048899
0.0012682784581556
0.0015065391780808
0.0018123106565326
0.0022216741926968
0.002755569294095
0.0034240668173879
0.0042254975996911
0.0051394109614193
0.0061231097206473
0.007118503563106
0.0080640772357583
0.0089001171290874
0.0095638670027256
0.0099843759089708
0.0100856190547347
0.0097979251295328
0.00907220877707
0.007890660315752
0.0062741562724113
0.0042880913242697
0.002042232081294
-0.0003198739141225
-0.0026421761140227
-0.004780497867614
-0.0066177602857351
-0.0080694062635302
-0.0090870950371027
-0.009660392999649
-0.0098127238452434
-0.0095946788787841
-0.0090780947357416
-0.0083493022248148
-0.0074990312568843
-0.0066101001575589
-0.0057481210678815
-0.0049583106301724
-0.0042641009204089
-0.0036645228974521
-0.0031381291337311
-0.0026570032350718
-0.0021983617916703
-0.0017461166717112
-0.0012898622080683
-0.0008264360949397
-0.0003606891259551
9.691063314676283e-05
0.0005339551717042
0.0009395824745297
0.0013071224093437
0.0016335947439074
0.0019146390259265
0.0021361680701375
0.0022667488083243
0.0022573675960302
0.0020493092015385
0.0015834989026188
0.0008111679926514
-0.0002905474975705
-0.0017047431319952
-0.0033714668825268
-0.0051942653954029
-0.0070529510267078
-0.0088196825236082
-0.010373999364674
-0.0116155184805393
-0.0124735683202743
-0.0129123460501432
-0.0129324989393353
-0.0125663839280605
-0.011867731809616
-0.0109068322926759
-0.009772608987987
-0.0085676284506917
-0.007391307502985
-0.0063234716653823
-0.0054158940911293
-0.0046875877305865
-0.0041249329224228
-0.0036906157620251
-0.0033340509980916
-0.0029975415673106
-0.0026238814461976
-0.0021670004352927
-0.0015990822575986
-0.0009103557094931
-0.000103329308331
0.0008104853332042
0.0018056374974548
0.0028379145078361
0.0038488823920488
0.0047751800157129
0.0055526662617921
0.0061136563308537
0.0063839461654424
0.006286681164056
0.0057550980709493
0.0047508352436125
0.0032814624719321
0.0014099404215812
-0.0007485873065888
-0.003040237352252
-0.0052904142066836
-0.00732680875808
-0.0090066120028495
-0.0102363927289843
-0.0109776370227336
-0.0112418327480554
-0.011077488772571
-0.0105526773259043
-0.0097418092191219
-0.0087202098220586
-0.0075619206763803
-0.0063369488343596
-0.0051078484393656
-0.0039265104569494
-0.0028321598656475
-0.0018489127978682
-0.0009816898964345
-0.0002165327314287
0.0004703057929873
0.0011015214258804
0.0016953514423221
0.0022693325299769
0.0028435555286705
0.0034396939445286
0.0040777353569865
0.0047713862732052
0.0055244537070393
0.0063318880274891
0.0071833292022347
0.0080622676759958
0.0089385909959673
0.0097611472010612
0.0104585187509655
0.0109456311911344
0.0111308470368385
0.0109300129115581
0.0102882785722613
0.0091967293992638
0.0076983557082712
0.0058857267722487
0.00388985266909
0.0018605332588776
-5.4981326684355736e-05
-0.0017271616961807
-0.0030551757663488
-0.0039761834777891
-0.0044671017676591
-0.0045379856601357
-0.0042231064289808
-0.0035755424760282
-0.002666987478733
-0.0015873378142714
-0.0004386082291603
0.000678245909512
0.0016804090701043
0.0025163651444017
0.0031702106352895
0.0036575836129486
0.0040155155584216
0.0042899795807898
0.0045260908082127
0.0047633606009185
0.005032951477915
0.0053546004928648
0.0057360003702342
0.0061736842617392
0.006652389653027
0.0071464627981185
0.007623029872775
0.0080405343323946
0.008344504982233
0.0084678288549184
0.0083378162235021
0.0078891990706324
0.0070789288729429
0.0058980314061045
0.004380508325994
0.0026055411435663
0.0006881787558086
-0.0012349608587101
-0.0030197976157069
-0.0045341327786445
-0.0056797959841787
-0.00640519708395
-0.0067049581557512
-0.0066128335893154
-0.0061923339962959
-0.0055247396230697
-0.0046953097917139
-0.0037840288132429
-0.0028628003783524
-0.0019937397446483
-0.0012269637081772
-0.0005977747496217
-0.0001231941860169
0.0002006340073421
0.0004017305327579
0.0005299053154885
0.0006408491171896
0.0007790711242705
0.0009728344157338
0.0012366082519292
0.0015739989466965
0.0019797242712229
0.0024425075389444
0.0029495584312826
0.0034871466923505
0.0040330193005502
0.0045454730279743
0.0049577178433537
0.0051840525120496
0.0051395981572568
0.0047652283683419
0.0040419423021376
0.0029886495321989
0.0016525161918252
0.0001013886358123
-0.0015803291462361
-0.0032957792282104
-0.0049434122629463
-0.0064275744371116
-0.007666680496186
-0.0085972100496292
-0.0091776214540004
-0.0093933017924427
-0.0092583606019616
-0.0088132014498114
-0.0081183817237615
-0.0072434339672327
-0.0062573100440204
-0.0052274269983172
-0.0042198179289698
-0.0032931866589933
-0.0024900853168219
-0.0018293750472366
-0.0013032825663685
-0.0008813457097858
-0.0005189725197851
-0.0001671737991273
0.0002177145797759
0.0006658054189756
0.0011897447984665
0.0017857626080513
0.002437746617943
0.0031226384453475
0.0038110869936645
0.0044585382565855
0.0049967337399721
0.0053373728878796
0.0053870282135903
0.0050664190202951
0.0043284203857183
0.0031710150651633
0.0016419366002082
-0.0001657340908423
-0.0021253549493849
-0.0040929340757429
-0.0059231081977486
-0.0074832793325185
-0.0086657190695405
-0.0093948552384972
-0.0096338866278529
-0.009395639412105
-0.0087457168847322
-0.0077875587157905
-0.0066403998062014
-0.0054235002025961
-0.0042457212693989
-0.0031949602998793
-0.0023282910697162
-0.0016678660176694
-0.0012042210437357
-0.0009023984894156
-0.0007078880444169
-0.0005542212165892
-0.0003702789545059
-8.558155968785286e-05
0.0003594164736568
0.0009979326277971
0.0018287291750311
0.0028186030685901
0.0039093345403671
0.0050256187096238
0.0060805659741163
0.0069782719947397
0.0076189339160919
0.0079094422981143
0.007776740938425
0.0071788867935538
0.0061126044020056
0.0046202731318771
0.0027935535181313
0.0007670545019209
-0.0012998864986002
-0.0032480075024068
-0.0049398699775338
-0.0062721935100853
-0.0071788197383284
-0.0076288972049951
-0.0076235658489167
-0.0071924515068531
-0.0063908379524946
-0.0052951853722333
-0.0039964793249964
-0.0025942232459783
-0.0011887196451425
0.0001328568905591
0.0013133054599165
0.0023349444381892
0.0032141264528036
0.0039848680607974
0.0046831546351313
0.0053390995599329
0.005976075772196
0.0066118724644184
0.0072597032412886
0.0079286005347967
0.0086217587813735
0.0093343099579215
0.010052322410047
0.0107504688203334
0.0113845719024539
0.0118830036371946
0.0121493823826313
0.0120813027024269
0.0115923229604959
0.0106242913752794
0.0091557605192065
0.0072141126729547
0.0048823505640029
0.0022914591245353
-0.000397166237235
-0.0030115027911961
-0.0053873383440077
-0.0073834918439388
-0.0088928118348121
-0.0098491944372653
-0.0102318804711103
-0.0100669767707586
-0.0094223069027066
-0.0083949165418744
-0.0070993206463754
-0.0056603052653372
-0.0042029842734336
-0.0028363461606204
-0.0016368306241929
-0.0006398912519216
0.0001581134274601
0.0007919315248727
0.0013179201632738
0.0018027727492153
0.002311248332262
0.002897361293435
0.0036000432446599
0.0044400412589311
0.0054184217005968
0.0065202843397855
0.0077194962650537
0.0089759742841124
0.0102279661223292
0.0113874580711126
0.0123414006084203
0.0129606006667017
0.0131174027919769
0.0127074234187603
0.0116691216826438
0.009997796267271
0.0077519454061985
0.0050499639473855
0.0020566973835229
-0.0010361194144934
-0.004028973635286
-0.0067320414818823
-0.008985374122858
-0.010678606107831
-0.0117590297013521
-0.012226615101099
-0.0121253756806254
-0.011535070836544
-0.0105594405904412
-0.0093120317906141
-0.0079057365655899
-0.0064443401060998
-0.005012284964323
-0.0036674840375781
-0.0024407296441495
-0.0013389434898272
-0.0003484038170427
0.0005627807695418
0.0014371577417477
0.0023137908428907
0.0032161786220967
0.0041487659327685
0.0051012495532631
0.0060556251555681
0.0069907666184008
0.0078846542164683
0.0087166177108883
0.0094688702374696
0.0101241776719689
0.0106575060635805
0.0110269095748662
0.011172778904438
0.0110276564955711
0.0105309914797544
0.0096399784088134
0.0083347223699092
0.0066254958510398
0.0045624170452356
0.0022381297312676
-0.0002201180905103
-0.0026656028348952
-0.0049505452625453
-0.0069429734721779
-0.0085385125130414
-0.0096673760563135
-0.0102978982031345
-0.0104378331452608
-0.0101332748308777
-0.0094620455056428
-0.0085216723382473
-0.0074200821109116
-0.006270988844335
-0.0051830867305397
-0.0042406432330608
-0.003488291054964
-0.0029284358024597
-0.0025289391633123
-0.0022363511379808
-0.0019885059446096
-0.0017224284820258
-0.0013817446306347
-0.0009249132126569
-0.0003297985531389
0.0004056678153574
0.0012672352604568
0.0022313673980534
0.003267552703619
0.0043346458114683
0.0053790160454809
0.0063370205461978
0.0071383006870746
0.0077084992080926
0.007973214611411
0.0078640757128596
0.0073258401826024
0.0063250279054045
0.0048612505197525
0.00297821033746
0.0007673604413866
-0.0016404148191213
-0.0040910881944
-0.0064222640357911
-0.0084760952740907
-0.010117613710463
-0.011254834011197
-0.0118504986166954
-0.0119227804243564
-0.0115365516394376
-0.0107883606106042
-0.0097907967865467
-0.0086590014398098
-0.0074981125071644
-0.0063925152644515
-0.005399864166975
-0.0045505692251026
-0.0038497438654303
-0.0032780198380351
-0.0027934880927205
-0.0023434683680534
-0.001885331235826
-0.0013989387080073
-0.0008826679550111
-0.0003444356843829
0.0002033710479736
0.0007462697103619
0.0012710117734968
0.0017691091634333
0.0022364566102623
0.0026689730584621
0.0030563101172447
0.0033749276772141
0.003583151847124
0.0036222087219357
0.0034272791817784
0.0029440717771649
0.0021407958120107
0.0010152030736207
-0.000399543903768
-0.002032910939306
-0.0037821256555616
-0.0055238953791558
-0.0071309562772512
-0.0084896571934223
-0.0095124626532197
-0.0101436832919716
-0.0103630200028419
-0.0101886177435517
-0.0096749383956193
-0.0089015234261751
-0.0079567981883883
-0.0069280620664358
-0.0058993487618863
-0.0049458760768175
-0.0041230805218219
-0.0034589001443237
-0.002951884875074
-0.0025735369417816
-0.0022743213921785
-0.0019930589478462
-0.001669185468927
-0.0012529863743111
-0.0007097243797034
-2.183648757636547e-05
0.0008086492307484
0.0017621060833334
0.0028077873867005
0.0039076809771358
0.0050144717097282
0.006071439012885
0.0070206578820943
0.0078127551823854
0.0084094330668449
0.0087785199284553
0.0088876020163297
0.0087015908211469
0.0081859240308403
0.0073154680430889
0.0060851946473121
0.004516921006143
0.0026628167834132
0.0006076605059206
-0.0015344542916864
-0.0036333906464278
-0.0055625615641474
-0.0072159795090556
-0.0085183959454298
-0.009428285062313
-0.0099346209317445
-0.010052272118628
-0.0098193883895874
-0.0092943888157606
-0.0085496781393885
-0.0076634744182229
-0.0067131449468433
-0.0057685626670718
-0.0048837270587682
-0.0040899794548749
-0.0033930731005966
-0.0027774819172918
-0.0022186676505953
-0.0016933714505285
-0.0011816341429948
-0.0006651368457823
-0.0001258864067494
0.0004539526998996
0.001089641591534
0.0017897423822432
0.0025542415678501
0.0033756541088223
0.00424071168527
0.0051323305815458
0.0060334876179695
0.0069317142479121
0.0078191719949245
0.0086856642737984
0.0095077296718955
0.0102403024211525
0.0108156744390726
0.0111494371667504
0.0111513454467058
0.0107409572228789
0.0098659833893179
0.0085165239870548
0.0067317089997231
0.0046003796160221
0.0022535372991114
-0.0001535930205136
-0.0024633666034787
-0.0045315115712583
-0.0062354137189686
-0.0074831824749708
-0.0082259867340326
-0.0084648998454213
-0.0082462821155786
-0.0076487939804792
-0.0067695267498493
-0.0057133957743644
-0.0045849424786865
-0.003480655606836
-0.00247906986624
-0.0016289856284856
-0.0009423880837857
-0.0003977748565375
4.8805028200149536e-05
0.0004530535079538
0.0008737654425203
0.0013607353903353
0.0019407300278544
0.0026116361841559
0.0033485158346593
0.0041144164279103
0.004869190044701
0.0055760042741894
0.0062057417817413
0.0067392424680292
0.0071696229279041
0.0075040501542389
0.0077616232447326
0.0079662753269076
0.0081366151571273
0.0082773752510547
0.0083749135956168
0.0083926832303404
0.0082674222066998
0.0079167960211634
0.0072617018595337
0.0062509858980774
0.0048756771720945
0.0031728232279419
0.0012246831320226
-0.0008490574546158
-0.0029090496245771
-0.0048167686909437
-0.006450118497014
-0.0077149225398898
-0.0085540851578116
-0.0089517496526241
-0.0089307175949215
-0.008547781035304
-0.0078898631036281
-0.0070654917508363
-0.0061886645853519
-0.0053613972850143
-0.0046607870608568
-0.0041289664804935
-0.0037663551047444
-0.0035348921082913
-0.0033705751411616
-0.0031971931457519
-0.002938138321042
-0.0025291023775935
-0.0019303141161799
-0.0011295219883322
-0.0001346310600638
0.0010311156511306
0.0023248419165611
0.0036822706460952
0.0050286632031202
0.0062952633015811
0.0074279569089412
0.0083847763016819
0.0091280611231923
0.0096163321286439
0.009797983802855
0.0096119437366724
0.0090004941448569
0.0079270843416452
0.0063891694881021
0.0044287107884883
0.0021410514600574
-0.0003305464051663
-0.0028192838653922
-0.0051615759730339
-0.0072127869352698
-0.0088550709187984
-0.0100035704672336
-0.0106132384389638
-0.0106836259365081
-0.010258630849421
-0.0094212032854557
-0.0082831140607595
-0.0069717192091047
-0.0056154737249016
-0.0043291114270687
-0.0032002236694097
-0.0022781244479119
-0.0015698377974331
-0.0010478803887963
-0.000663876067847
-0.0003591664135456
-7.106736302375793e-05
0.0002611898817121
0.0006891535595059
0.0012500747106969
0.0019653378985822
0.0028397976420819
0.0038619232363998
0.0050053363665938
0.0062311701476573
0.0074930624105036
0.0087452642619609
0.0099477749317884
0.0110621033236384
0.0120388232171535
0.0128039680421352
0.0132537633180618
0.0132633857429027
0.0127068106085062
0.0114829530939459
0.0095424577593803
0.0069059273228049
0.0036677282769232
-1.2631528079509737e-05
-0.0039268610998988
-0.0078392475843429
-0.0115115623921155
-0.0147287482395768
-0.0173195600509643
-0.0191701650619506
-0.0202334988862276
-0.0205309092998504
-0.0201426018029451
-0.0191914960741996
-0.0178245641291141
-0.0161935910582542
-0.0144394729286432
-0.0126823773607611
-0.0110161919146776
-0.0095041766762733
-0.0081747723743319
-0.0070204520598053
-0.006003207527101
-0.0050640711560845
-0.004131481051445
-0.0031326273456215
-0.0020105047151446
-0.0007349140942096
0.0006980597972869
0.002270302735269
0.0039473371580243
0.0056870216503739
0.007447944022715
0.0091946329921484
0.0108995288610458
0.0125396996736526
0.0140858320519328
0.0154858324676752
0.0166508462280035
0.0174535326659679
0.0177438706159591
0.017375523224473
0.0162330400198698
0.0142586678266525
0.0114736687391996
0.007985807955265
0.0039830603636801
-0.000286042690277
-0.0045449156314134
-0.0085252625867724
-0.0119955204427242
-0.0147774731740355
-0.0167540926486253
-0.0178726315498352
-0.0181446634232997
-0.0176402293145656
-0.0164742581546306
-0.0147909596562385
-0.0127517720684409
-0.0105240102857351
-0.0082654803991317
-0.0061066057533025
-0.0041339602321386
-0.0023800749331712
-0.0008256658911705
0.0005870424211025
0.0019375570118427
0.0033103236928582
0.0047790221869945
0.0063949665054678
0.0081806723028421
0.0101290196180343
0.0122084990143775
0.0143686011433601
0.0165420249104499
0.0186512880027294
0.02062045969069
0.0223827697336673
0.0238828100264072
0.0250743553042411
0.0259095802903175
0.0263240002095699
0.0262289531528949
0.0255185328423976
0.0240910127758979
0.0218790806829929
0.018879922106862
0.0151755213737487
0.0109354527667164
0.0063989013433456
0.0018397406674921
-0.0024724379181861
-0.0063024349510669
-0.0094673167914152
-0.0118452869355678
-0.0133806504309177
-0.0140844602137804
-0.0140265002846717
-0.0133215636014938
-0.0121159087866544
-0.0105740157887339
-0.0088626984506845
-0.0071344231255352
-0.0055138720199465
-0.0040858495049178
-0.002888080663979
-0.0019171657040715
-0.0011400543153285
-0.0005006343126296
7.445598021149635e-05
0.0006666867993772
0.0013552303425967
0.0022063066717237
0.0032644593156874
0.0045484127476811
0.0060502924025058
0.007738116197288
0.0095612667500972
0.0114554539322853
0.013346005231142
0.0151462974026799
0.0167461205273866
0.0179982278496027
0.0187209174036979
0.0187231078743934
0.0178439803421497
0.0159939527511596
0.0131838722154498
0.0095337824895977
0.0052615837194025
0.0006580795161426
-0.0039470097981393
-0.0082238093018531
-0.0118785090744495
-0.0146826207637786
-0.0164923015981912
-0.0172540470957756
-0.0170028805732727
-0.0158607028424739
-0.0140261584892869
-0.0117470119148492
-0.009282655082643
-0.006870936602354
-0.0047056912444531
-0.0029213086236268
-0.0015828260220587
-0.0006859907880425
-0.0001680715940892
7.590698078274727e-05
0.000175901222974
0.0002691661939024
0.0004823571071028
0.000915084965527
0.0016257655806839
0.0026217615231871
0.0038611283525824
0.0052676303312182
0.0067492490634322
0.0082109598442912
0.0095557477325201
0.0106733255088329
0.0114295650273561
0.011671052314341
0.0112454164773225
0.0100305499508976
0.0079652871936559
0.0050723794847726
0.0014673238620162
-0.0026481989771127
-0.0070098796859383
-0.0113287167623639
-0.0153287546709179
-0.0187725946307182
-0.0214768350124359
-0.023323468863964
-0.0242672618478536
-0.0243350192904472
-0.0236174836754798
-0.0222586579620838
-0.0204400718212127
-0.0183566361665725
-0.0161911249160766
-0.0140946954488754
-0.0121731404215097
-0.0104784667491912
-0.009011055342853
-0.0077336775138974
-0.0065873945131897
-0.0055029694922268
-0.0044108238071203
-0.0032498068176209
-0.0019737211987376
-0.0005568638443946
0.001002780161798
0.0026848493143916
0.0044516110792756
0.0062549384310841
0.0080438302829861
0.0097688548266887
0.0113793509081006
0.012813713401556
0.0139849167317152
0.0147677212953567
0.0150028811767697
0.0145247345790266
0.0132005773484706
0.0109674474224448
0.0078569594770669
0.0040027033537626
-0.0003716461360454
-0.0049810018390417
-0.0095155332237482
-0.0136760892346501
-0.0172059256583452
-0.0199169665575027
-0.0217028241604566
-0.0225348696112632
-0.022452313452959
-0.0215565636754035
-0.0200035348534584
-0.0179855730384588
-0.0157058238983154
-0.0133527424186468
-0.0110796615481376
-0.0089923962950706
-0.0071480236947536
-0.0055617932230234
-0.0042133191600441
-0.0030503696762025
-0.0019964470993727
-0.0009634008165448
0.0001356245484203
0.0013756928965449
0.0028101128991693
0.0044596982188522
0.0063064657151699
0.0082976715639233
0.0103584602475166
0.0124062076210975
0.0143625596538186
0.0161610692739486
0.0177462436258792
0.0190625693649053
0.0200387686491012
0.0205784849822521
0.0205671600997447
0.0198944732546806
0.0184846296906471
0.0163241196423769
0.0134739652276039
0.0100624058395624
0.006269774865359
0.0023128180764615
-0.0015761125832796
-0.0051730433478951
-0.0082821724936366
-0.0107503524050116
-0.0124777946621179
-0.0134256090968847
-0.0136187905445694
-0.0131396008655428
-0.0121103897690773
-0.010673888027668
-0.0089771104976534
-0.0071576368063688
-0.0053344271145761
-0.0036047887988388
-0.0020395496394485
-0.0006761201657354
0.0004818933084607
0.0014603803865611
0.0023098574019968
0.0030959458090364
0.0038848337717354
0.0047294939868152
0.0056605408899486
0.006682856939733
0.0077774650417268
0.0089075816795229
0.010030772536993
0.0111141260713338
0.0121380537748336
0.0130853820592165
0.0139303635805845
0.0146339293569326
0.0151411853730678
0.0153806265443563
0.0152659267187118
0.0147036649286746
0.0136114601045846
0.0119422944262623
0.0097051681950688
0.0069745453074574
0.0038838619366288
0.0006052209064364
-0.0026721116155385
-0.0057561872527003
-0.0084683988243341
-0.0106677738949656
-0.0122712245211005
-0.013256455771625
-0.0136523814871907
-0.0135292848572134
-0.0129909990355372
-0.0121645303443074
-0.0111849904060363
-0.0101769985631108
-0.0092380307614803
-0.0084300441667437
-0.0077785262838006
-0.0072748754173517
-0.0068805171176791
-0.0065324380993843
-0.0061554540880024
-0.0056822961196303
-0.0050680921413004
-0.0042916839011013
-0.0033517321571707
-0.0022642477415502
-0.0010596793144941
0.0002212142571806
0.0015306547284126
0.0028178030624985
0.0040334649384021
0.0051319310441613
0.0060675553977489
0.0067863771691918
0.0072200447320938
0.0072908122092485
0.0069238469004631
0.0060589853674173
0.0046648550778627
0.0027560954913496
0.0004039164632558
-0.0022647054865956
-0.0050767268985509
-0.0078320363536477
-0.0103301657363772
-0.0123959137126803
-0.0138968676328659
-0.0147539675235748
-0.0149484444409608
-0.0145224099978804
-0.0135665321722626
-0.0121997473761439
-0.0105568403378129
-0.0087849898263812
-0.0070343217812478
-0.005437646061182
-0.0040893601253628
-0.0030319013167172
-0.0022527442779392
-0.0016944736707955
-0.0012745694257318
-0.0009057619608938
-0.0005116565153002
-3.582146018743515e-05
0.0005565914325416
0.0012820390984416
0.0021419043187052
0.0031246647704392
0.0042070755735039
0.0053527378477156
0.0065129199065268
0.0076360134407877
0.0086783049628138
0.0096049755811691
0.0103802131488919
0.0109523404389619
0.0112446770071983
0.0111622102558612
0.0106118284165859
0.0095247253775596
0.0078741665929555
0.0056883036158978
0.0030555711127817
0.0001191175542771
-0.0029401474166661
-0.0059302700683474
-0.0086754839867353
-0.0110329613089561
-0.0129005359485745
-0.0142208728939294
-0.0149814467877149
-0.0152088608592748
-0.0149598326534032
-0.0143117355182766
-0.0133539866656064
-0.0121813062578439
-0.0108863739296793
-0.0095498925074934
-0.008231190033257
-0.006961204111576
-0.0057429526932537
-0.0045639718882739
-0.0034090573899447
-0.0022632509935647
-0.0011125556193292
5.268119275569916e-05
0.0012367840390652
0.0024403976276516
0.0036602551117539
0.004888579249382
0.0061154291033744
0.0073306411504745
0.0085222395136952
0.0096750184893608
0.0107726892456412
0.0117996959015727
0.0127346199005842
0.0135360127314925
0.0141334347426891
0.0144318640232086
0.0143276117742061
0.0137316128239035
0.012593837454915
0.0109194535762071
0.0087713422253727
0.0062620160169899
0.0035401657223701
0.0007735393010079
-0.0018705558031797
-0.0042417622171342
-0.0062159402295947
-0.0077007389627397
-0.0086439549922943
-0.0090420739725232
-0.0089395055547356
-0.0084173679351806
-0.0075794593431055
-0.0065398742444813
-0.0054104495793581
-0.0042875204235315
-0.0032411781139671
-0.0023105880245566
-0.0015057981945574
-0.0008113048970699
-0.0001895753666758
0.0004127393476665
0.0010568685829639
0.0018041492439806
0.0027041507419198
0.0037781125865876
0.0050099561922252
0.0063522574491798
0.0077407248318195
0.0091095650568604
0.0104026114568114
0.0115778986364603
0.0126075930893421
0.0134767144918441
0.0141809144988656
0.0147185232490301
0.0150767806917428
0.0152204968035221
0.0150917861610651
0.0146226547658443
0.0137495314702391
0.0124227181077003
0.0106190890073776
0.0083587225526571
0.0057155834510922
0.0028170268051326
-0.0001698968408163
-0.0030626051593571
-0.0056885438971221
-0.0079046413302421
-0.0096089709550142
-0.0107471328228712
-0.0113140949979424
-0.0113485995680093
-0.0109207453206181
-0.0101189268752932
-0.0090433098375797
-0.0078049511648714
-0.0065195099450647
-0.0052932142280042
-0.0042104199528694
-0.0033246341627091
-0.0026516979560256
-0.0021700081415474
-0.0018299296498298
-0.0015676507027819
-0.0013173475163057
-0.0010190273169428
-0.0006240517832338
-0.0001006991369649
0.0005653451080434
0.0013783891918137
0.002334781223908
0.0034140618517994
0.004574398510158
0.0057586869224905
0.006903279107064
0.0079437782987952
0.0088144149631261
0.0094420816749334
0.0097442520782351
0.0096369599923491
0.0090504409745335
0.0079476404935121
0.0063397572375833
0.0042921723797917
0.0019212353508919
-0.0006158906035125
-0.00314347515814
-0.0054972106590867
-0.0075445366092026
-0.0091893775388598
-0.0103703681379556
-0.0110592599958181
-0.0112599143758416
-0.0110076945275068
-0.0103681404143571
-0.0094319758936762
-0.0083049274981021
-0.0070940726436674
-0.0058944900520145
-0.0047791781835258
-0.0037917245645076
-0.0029414929449558
-0.0022072382271289
-0.0015522672329097
-0.000941174919717
-0.0003468170179985
0.0002519972622394
0.0008738567703403
0.0015338329831138
0.0022405895870178
0.0029953722842037
0.0037916176952421
0.0046142335049808
0.0054427511058747
0.0062573547475039
0.0070409481413662
0.0077767679467797
0.0084415357559919
0.0089917192235589
0.0093513876199722
0.0094146160408854
0.0090629067271947
0.0081895627081394
0.0067244358360767
0.0046551106497645
0.0020393468439579
-0.0009980425238609
-0.0042828670702874
-0.0076148193329572
-0.0107906740158796
-0.0136250415816903
-0.0159670803695917
-0.017713064327836
-0.018811821937561
-0.0192628409713506
-0.0191126130521297
-0.0184494294226169
-0.0173928514122962
-0.0160768646746873
-0.0146304154768586
-0.0131630022078752
-0.0117578413337469
-0.0104686180129647
-0.0093166530132293
-0.0082903318107128
-0.0073511507362127
-0.0064456178806722
-0.0055162589997053
-0.0045075397938489
-0.0033699832856655
-0.0020687314681708
-0.0005961013957858
0.0010217675007879
0.0027318927459418
0.0044695157557725
0.0061706225387752
0.0077791376970708
0.0092513188719749
0.0105583285912871
0.0116837602108716
0.0126116294413805
0.0133082754909992
0.0137110464274883
0.0137335173785686
0.0132851600646972
0.0122970901429653
0.0107420794665813
0.0086413882672786
0.0060652615502476
0.0031322562135756
1.616310328245163e-06
-0.0031431810930371
-0.0061140055768191
-0.0087358281016349
-0.010862311348319
-0.0123898535966873
-0.0132681801915168
-0.0135043859481811
-0.0131576023995876
-0.0123247914016246
-0.0111219938844442
-0.0096677849069237
-0.0080753220245242
-0.0064498595893383
-0.0048826038837432
-0.0034409817308187
-0.0021622218191623
-0.0010515702888369
-8.337199687957764e-05
0.0007928954437375
0.001641584560275
0.0025305775925517
0.0035232668742537
0.0046685715205967
0.0059907343238592
0.0074840537272393
0.0091141648590564
0.010827038437128
0.0125601598992943
0.0142472507432103
0.01582164876163
0.0172234065830707
0.0184014625847339
0.0193069670349359
0.0198830626904964
0.0200563594698905
0.0197367221117019
0.0188295263797044
0.0172561258077621
0.0149757731705904
0.0120051614940166
0.0084322998300194
0.0044211065396666
0.0002007219009101
-0.0039661810733377
-0.0078272093087434
-0.0111738331615924
-0.0138546302914619
-0.0157770551741123
-0.0169066786766052
-0.0172648504376411
-0.0169229134917259
-0.0159926451742649
-0.0146134886890649
-0.0129375858232378
-0.0111136771738529
-0.009272001683712
-0.0075120693072676
-0.0058919582515954
-0.004421142861247
-0.0030648633837699
-0.0017608813941478
-0.0004398059099912
0.0009578103199601
0.0024705762043595
0.0041128587909042
0.0058766240254044
0.0077336919493973
0.0096357325091958
0.0115168811753392
0.0133059732615947
0.0149428118020296
0.0163844265043735
0.0175990499556064
0.0185585003346204
0.019233901053667
0.0195885077118873
0.0195692367851734
0.0191092416644096
0.018143530935049
0.0166285522282123
0.0145600633695721
0.0119869876652956
0.0090175317600369
0.0058168182149529
0.0025983951054513
-0.0003916141577064
-0.0028997492045164
-0.0046975445002317
-0.0056151594035327
-0.0055664973333477
-0.0045595047995448
-0.0026976182125508
-0.000175992026925
0.0027364934794604
0.0057335034944117
0.0085162790492177
0.0108342990279197
0.0125133879482746
0.0134701086208224
0.0137138981372118
0.013339752331376
0.0125139774754643
0.0114508289843797
0.0103794578462839
0.0095073208212852
0.0089895147830247
0.0089096818119287
0.0092712445184588
0.0099981436505913
0.0109496600925922
0.0119500812143087
0.012822332791984
0.0134106390178203
0.0135866980999708
0.0132485944777727
0.0123223960399627
0.010764442384243
0.0085598528385162
0.0057175066322088
0.0022664330899715
-0.0017377790063619
-0.0061960499733686
-0.010952248238027
-0.0158008504658937
-0.0205175504088401
-0.0248909853398799
-0.0287394355982542
-0.0319191217422485
-0.0343328937888145
-0.0359389930963516
-0.0367549769580364
-0.0368531569838523
-0.0363501906394958
-0.0353942364454269
-0.0341483503580093
-0.0327694602310657
-0.0313875824213027
-0.0300908777862787
-0.0289184283465147
-0.0278636589646339
-0.0268885158002376
-0.02593894302845
-0.0249555148184299
-0.0238810032606124
-0.0226666890084743
-0.0212788209319114
-0.0197024345397949
-0.0179392918944358
-0.0160057321190834
-0.013933265581727
-0.011766992509365
-0.0095648765563964
-0.0074048228561878
-0.0053933449089527
-0.0036652411799877
-0.0023756111040711
-0.0016871268162503
-0.0017463770927861
-0.002648155670613
-0.0044014733284711
-0.0069143092259764
-0.0100026112049818
-0.0134177496656775
-0.0168821066617965
-0.020121457055211
-0.0228885859251022
-0.0249804891645908
-0.0262517109513282
-0.0266214869916439
-0.0260727237910032
-0.0246467851102352
-0.022439707070589
-0.0195989906787872
-0.0163134634494781
-0.0127906817942857
-0.0092269051820039
-0.0057815704494714
-0.0025628190487623
0.0003775246441364
0.0030406452715396
0.0054693706333637
0.0077330917119979
0.009912334382534
0.0120850205421447
0.0143164629116654
0.016653960570693
0.0191259123384952
0.0217380858957767
0.0244644246995449
0.027245245873928
0.0299984514713287
0.032635148614645
0.0350694954395294
0.0372153110802173
0.0389722734689712
0.0402157008647918
0.0408025123178958
0.0405951254069805
0.0394934378564357
0.0374619774520397
0.034547071903944
0.030883852392435
0.0266895331442356
0.0222375635057687
0.0178170204162597
0.0136938970535993
0.0100853107869625
0.0071461349725723
0.004966365173459
0.0035763755440711
0.0029537454247474
0.0030280705541372
0.003685912117362
0.0047790706157684
0.0061390856280922
0.0075990883633494
0.0090173138305544
0.0102942613884806
0.011380142532289
0.0122705632820725
0.012992026284337
0.0135869644582271
0.0141051532700657
0.0145994797348976
0.0151212764903903
0.015712859109044
0.0163997374475002
0.0171856265515089
0.0180530287325382
0.0189710929989814
0.0199042335152626
0.0208147801458835
0.0216620825231075
0.0224001333117485
0.022969925776124
0.0232862960547208
0.0232290811836719
0.0226510781794786
0.0214060470461845
0.0193872693926095
0.016560822725296
0.0129818236455321
0.0087896026670932
0.0041860220953822
-0.0005920571275055
-0.005299384240061
-0.0097059337422251
-0.0136135220527648
-0.0168651584535837
-0.0193488262593746
-0.0209970138967037
-0.0217905957251787
