bvp
-0.0007121376693248
0.0010140910744667
0.0027018068358302
0.0043157106265425
0.0058182720094919
0.0071653574705123
0.0082993041723966
0.0091382581740617
0.0095756510272622
0.0094995377585291
0.0088215181604027
0.0075006121769547
0.0055564977228641
0.0030725374817848
0.000189964659512
-0.0029064491391181
-0.0060101035051047
-0.0089179351925849
-0.0114557622000575
-0.0134973227977752
-0.0149689633399248
-0.0158436093479394
-0.0161366593092679
-0.0159060563892126
-0.0152479354292154
-0.0142844403162598
-0.0131473839282989
-0.0119610652327537
-0.0108269862830638
-0.0098125077784061
-0.00894430372864
-0.0082081342115998
-0.0075568547472357
-0.0069232759997248
-0.0062312362715601
-0.00540571520105
-0.0043821013532578
-0.0031106448732316
-0.0015613369178026
0.0002677616430446
0.0023479689843952
0.0046271048486232
0.0070388820022344
0.0095106502994894
0.0119737293571233
0.0143763720989227
0.0166908353567123
0.0189068540930748
0.0210123844444751
0.0229704417288303
0.0247027594596147
0.0260899476706981
0.0269903782755136
0.0272677168250083
0.0268141869455575
0.025562971830368
0.0234916172921657
0.0206247940659523
0.0170407425612211
0.0128747802227735
0.0083116823807358
0.0035675726830959
-0.0011322642676532
-0.0055747544392943
-0.0095771122723817
-0.0129989944398403
-0.0157444421201944
-0.0177529584616422
-0.0189880467951297
-0.0194322206079959
-0.0190908964723348
-0.0179992616176605
-0.0162223912775516
-0.01385039370507
-0.0109989736229181
-0.0078161554411053
-0.0044873957522213
-0.0012310539605095
0.0017202624585479
0.0041482988744974
0.0058782990090548
0.0068019144237041
0.0068911570124328
0.0062028598040342
0.0048755211755633
0.0031197424978017
0.0011938338866457
-0.0006393087096512
-0.0021560420282185
-0.0032004714012145
-0.0036991874221712
-0.0036649899557232
-0.0031887828372418
-0.0024198750033974
-0.0015375808579847
-0.0007206485606729
-0.0001203319116029
0.0001600154937477
7.662884308956563e-05
-0.000354274030542
-0.0010660693515092
-0.0019556188490241
-0.0029031676240265
-0.0037996734026819
-0.0045674168504774
-0.0051649883389472
-0.0055853710509836
-0.0058526014909148
-0.0060157943516969
-0.0061414879746735
-0.0063035697676241
-0.006570600438863
-0.0069942213594913
-0.0075990688055753
-0.0083742281422019
-0.0092707695439457
-0.0102050583809614
-0.0110649149864912
-0.0117243770509958
-0.0120685538277029
-0.0120149385184049
-0.0115212816745042
-0.0105839790776371
-0.0092333192005753
-0.0075266920030117
-0.0055392486974596
-0.0033550960943102
-0.0010610744357109
0.0012570219114422
0.0035135471262037
0.0056195314973592
0.0074841319583356
0.0090236468240618
0.0101731615141034
0.010894164443016
0.0111773731186985
0.0110468314960598
0.0105688348412513
0.0098600452765822
0.0090866703540086
0.0084513220936059
0.0081657879054546
0.0084139863029122
0.0093200961127877
0.0109309311956167
0.0132090589031577
0.0160353276878595
0.0192237012088298
0.0225467756390571
0.0257654506713151
0.02865482121706
0.031023982912302
0.0327340736985206
0.0337127074599266
0.0339585915207862
0.0335366949439048
0.0325661972165107
0.0312026347965002
0.0296146664768457
0.0279564447700977
0.0263453833758831
0.0248548947274684
0.0235196165740489
0.0223454907536506
0.0213196892291307
0.0204174648970365
0.019600935280323
0.0188098363578319
0.0179575346410274
0.0169400721788406
0.015651237219572
0.0139973275363445
0.0119074843823909
0.0093395728617906
0.0062872804701328
0.0027843136340379
-0.0011015199124813
-0.005278130993247
-0.0096356002613902
-0.0140483295544981
-0.0183720141649246
-0.0224418994039297
-0.0260867178440094
-0.0291604734957218
-0.0315741300582885
-0.0333100333809852
-0.0344152823090553
-0.034976277500391
-0.0350844413042068
-0.0348096452653408
-0.034188512712717
-0.0332257859408855
-0.0319084711372852
-0.0302275959402322
-0.0281950738281011
-0.0258516445755958
-0.0232691094279289
-0.020544784143567
-0.0177915152162313
-0.0151307675987482
-0.0126829538494348
-0.0105520691722631
-0.0088155437260866
-0.0075234910473227
-0.0067008044570684
-0.0063492245972156
-0.0064530242234468
-0.0069889705628156
-0.0079332273453474
-0.0092585515230894
-0.0109248850494623
-0.0128709366545081
-0.0150092495605349
-0.0172249171882867
-0.0193842612206935
-0.021355852484703
-0.0230304114520549
-0.02432681620121
-0.0251872837543487
-0.0255703590810298
-0.0254465136677026
-0.0247983112931251
-0.0236236490309238
-0.0219401288777589
-0.0197900161147117
-0.0172424409538507
-0.0143914259970188
-0.011350660584867
-0.0082410648465156
-0.0051710433326661
-0.0022238194942474
0.0005384269170463
0.0030657355673611
0.0053196605294942
0.0072781243361532
0.0089380787685513
0.0103109944611787
0.0114148575812578
0.012270763516426
0.0129024591296911
0.0133325830101966
0.0135749988257884
0.0136247370392084
0.0134515315294265
0.0130056571215391
0.0122330067679286
0.0110881179571151
0.0095420712605118
0.0075919395312666
0.0052744252607226
0.0026744818314909
-7.909350097179413e-05
-0.0028275977820158
-0.0053992308676242
-0.0076264953240752
-0.0093626510351896
-0.010495314374566
-0.010955823585391
-0.010720619931817
-0.0098027568310499
-0.0082378182560205
-0.0060714706778526
-0.0033567305654287
-0.0001636911183595
0.00340779684484
0.0072245029732584
0.0111276134848594
0.0149474143981933
0.0185209661722183
0.0217096898704767
0.0244125332683324
0.0265731271356344
0.0281813871115446
0.0292678996920585
0.0298922788351774
0.0301311165094375
0.0300699826329946
0.0297980234026908
0.029395829886198
0.0289134662598371
0.0283545702695846
0.0276828408241271
0.0268476940691471
0.025811905041337
0.0245650894939899
0.0231185443699359
0.0214917361736297
0.019705194979906
0.0177813991904258
0.0157440602779388
0.0136157497763633
0.0114189852029085
0.0091776233166456
0.0069191083312034
0.0046792654320597
0.0025044069625437
0.0004525603726506
-0.0014010360464453
-0.0029590523336082
-0.0041069434955716
-0.0047307955101132
-0.0047430749982595
-0.0041071595624089
-0.0028543684165924
-0.0010912982979789
0.0010083911474794
0.003230944275856
0.0053567443974316
0.0071915262378752
0.0085929697379469
0.0094841141253709
0.0098485359922051
0.0097181871533393
0.009162500500679
0.0082769645377993
0.0071684825234115
0.0059381527826189
0.0046661305241286
0.0034057153388857
0.0021873638033866
0.0010231211781501
-9.53134149312973e-05
-0.0012003034353256
-0.0023440131917595
-0.0035803443752229
-0.0049398825503885
-0.0064149252139031
-0.0079639637842774
-0.0095285335555672
-0.011049335822463
-0.0124750593677163
-0.0137651348486542
-0.014889532700181
-0.0158276967704296
-0.0165670551359653
-0.0170998685061931
-0.017417199909687
-0.0175027512013912
-0.0173321384936571
-0.0168771799653768
-0.0161086954176425
-0.0149977291002869
-0.0135238505899906
-0.0116917509585618
-0.0095442049205303
-0.0071629388257861
-0.0046592247672379
-0.0021597724407911
0.0002070488408207
0.0023236740380525
0.0040965666994452
0.0054694702848792
0.0064302133396267
0.0070053106173872
0.0072453618049621
0.0072103831917047
0.006960567086935
0.0065476270392537
0.0059991963207721
0.0053019793704152
0.0043980041518807
0.0031973738223314
0.001601343974471
-0.0004692636430263
-0.0030479999259114
-0.0061061475425958
-0.0095468927174806
-0.0132130039855837
-0.016908211633563
-0.0204235017299652
-0.0235594511032104
-0.0261429697275161
-0.0280381049960851
-0.0291506722569465
-0.0294332634657621
-0.0288927853107452
-0.0275894049555063
-0.0256220698356628
-0.0231118239462375
-0.0201945751905441
-0.0170215666294097
-0.0137545298784971
-0.010547524318099
-0.0075240400619804
-0.0047623268328607
-0.0022929436527192
-0.0001073721796274
0.0018262276425957
0.0035471355076879
0.0050915265455842
0.0064855217933654
0.0077376314438879
0.0088357105851173
0.0097526777535676
0.0104552069678902
0.0109111387282609
0.0110951252281665
0.0109904445707798
0.0105863558128476
0.0098748486489057
0.0088489204645156
0.0075023919343948
0.0058383187279105
0.0038909181021153
0.0017478712834417
-0.0004479752387851
-0.0025249503087252
-0.0043230168521404
-0.005725335329771
-0.0066708782687783
-0.0071544251404702
-0.0072212452068924
-0.006957808509469
-0.0064793899655342
-0.0059164427220821
-0.0054002981632947
-0.0050468416884541
-0.0049372240900993
-0.0050976853817701
-0.0054813893511891
-0.0059568863362073
-0.0063151754438877
-0.0063101891428232
-0.0057271993719041
-0.0044446778483688
-0.0024599833413958
0.0001205974258482
0.0031112607102841
0.0062815966084599
0.0093912463635206
0.0122222928330302
0.0146044930443167
0.0164290461689233
0.0176504328846931
0.0182780176401138
0.0183614678680896
0.0179751142859458
0.0172029379755258
0.0161212682723999
0.0147812031209468
0.0132010113447904
0.0113751040771603
0.0092995148152112
0.0070043476298451
0.0045717386528849
0.0021273565944284
-0.0001825108192861
-0.0022119574714452
-0.0038334359414875
-0.0049553643912076
-0.0055343452841043
-0.0055766976438462
-0.00512620434165
-0.0042424742132425
-0.0029885747935622
-0.0014379082713276
0.0003179577179253
0.0021770428866147
0.0040399474091827
0.0058159120380878
0.0074274502694606
0.008817427791655
0.0099517358466982
0.010816803202033
0.0114176059141755
0.0117754880338907
0.0119229461997747
0.0118979327380657
0.0117411473765969
0.0114945424720644
0.0111938277259469
0.0108540197834372
0.0104591501876711
0.00996476970613
0.0093122804537415
0.0084481472149491
0.007338136434555
0.0059731444343924
0.0043708914890885
0.0025741341523826
0.0006391969509422
-0.0013848915696144
-0.0034712790511548
-0.0056119519285857
-0.007802540436387
-0.0100287785753607
-0.0122635345906019
-0.0144713073968887
-0.0166083872318267
-0.0186184626072645
-0.0204325057566165
-0.021973118185997
-0.0231603253632783
-0.0239196754992008
-0.0241903811693191
-0.0239288117736578
-0.0231077242642641
-0.0217151343822479
-0.0197550673037767
-0.0172502901405096
-0.0142460893839597
-0.0108161568641662
-0.0070722862146794
-0.0031701042316854
0.0007030968554317
0.0043571358546614
0.007627020124346
0.0103887971490621
0.0125646935775876
0.0141227822750806
0.0150717217475175
0.0154495015740394
0.0153106618672609
0.01471908390522
0.0137471742928028
0.012472934089601
0.0109726898372173
0.0093182669952511
0.0075744595378637
0.0057878559455275
0.0039758225902915
0.0021244091913104
0.0001931409933604
-0.0018736710771918
-0.004128579981625
-0.0065975096076726
-0.0092540420591831
-0.0120003344491124
-0.014666436240077
-0.0170324631035327
-0.0188694261014461
-0.0199861694127321
-0.0202642809599638
-0.0196703225374221
-0.0182506833225488
-0.0161199998110532
-0.013443348929286
-0.0104082031175494
-0.0071953637525439
-0.0039607426151633
-0.0008272370323538
0.0021173441782593
0.0048167170025408
0.0072402488440275
0.0093782180920243
0.0112355314195156
0.012821895070374
0.0141416545957326
0.0151879275217652
0.0159443728625774
0.0163899958133697
0.0164997931569814
0.016248820349574
0.0156276430934667
0.014658635482192
0.0134003981947898
0.0119398450478911
0.0103786028921604
0.0088190445676445
0.0073520867154002
0.006047953851521
0.0049485308118164
0.004059812054038
0.0033468147739768
0.0027371107134968
0.0021348870359361
0.0014349026605486
0.0005306736566126
-0.0006743986159563
-0.0022493302822113
-0.0042153424583375
-0.0065281563438475
-0.0090702269226312
-0.0116570126265287
-0.0140576642006635
-0.0160283185541629
-0.0173493605107069
-0.0178557410836219
-0.0174539443105459
-0.0161258243024349
-0.0139223933219909
-0.0109507106244564
-0.007362550124526
-0.0033484511077404
0.0008722394704818
0.0050669298507273
0.0090055307373404
0.012477358803153
0.0153090422973036
0.0173804722726345
0.0186349116265773
0.0190815329551696
0.0187932793051004
0.0178979039192199
0.0165594704449176
0.0149565190076828
0.013264562934637
0.0116454381495714
0.0102384416386485
0.009149620309472
0.0084450654685497
0.0081495735794305
0.0082440553233027
0.0086609553545713
0.0092848297208547
0.0099632237106561
0.0105279292911291
0.0108226453885436
0.0107268635183572
0.0101690925657749
0.0091324355453252
0.0076565113849937
0.0058363419957458
0.0038153789937496
0.001767863635905
-0.0001265637110918
-0.0017055928474292
-0.0028389715589582
-0.0034362059086561
-0.0034510032273828
-0.0028874685522168
-0.0018056257395073
-0.0003198555205017
0.0014087865129113
0.0031833264511078
0.0047870771959424
0.0060088196769356
0.006674884352833
0.00668057333678
0.0060107791796326
0.0047382768243551
0.0029984400607645
0.0009565912187099
-0.0012184577062726
-0.0033737868070602
-0.0053845755755901
-0.0071584274992346
-0.0086328303441405
-0.0097698625177145
-0.0105557832866907
-0.0110061382874846
-0.0111685693264007
-0.0111190108582377
-0.0109541127458214
-0.010780019685626
-0.0106931068003177
-0.0107601694762706
-0.0110108647495508
-0.0114390617236495
-0.012006034143269
-0.012646852992475
-0.0132802734151482
-0.0138210505247116
-0.0141934696584939
-0.0143421422690153
-0.0142374206334352
-0.013875588774681
-0.0132750188931822
-0.0124718192964792
-0.0115186311304569
-0.010484336875379
-0.0094491150230169
-0.0084955645725131
-0.0076993461698293
-0.0071183056570589
-0.006782142445445
-0.0066875205375254
-0.0067982133477926
-0.0070501314476132
-0.0073629165999591
-0.0076534836553037
-0.0078455870971083
-0.0078762928023934
-0.0077026798389852
-0.0073082270100712
-0.0067047663033008
-0.0059268064796924
-0.005020884796977
-0.0040412982925772
-0.0030567126814275
-0.0021531411912292
-0.0014261938631534
-0.000973455607891
-0.0008914915379136
-0.0012708813883364
-0.0021842685528099
-0.0036685089580714
-0.0057043684646487
-0.0081969462335109
-0.010962950065732
-0.0137360719963908
-0.0161977671086788
-0.0180238857865333
-0.0189322642982006
-0.0187287740409374
-0.0173450484871864
-0.0148488776758313
-0.0114237628877162
-0.0073330719023942
-0.0028811376541852
0.0016222894191741
0.0058920653536915
0.009695827960968
0.0128772296011447
0.0153638338670134
0.0171591378748416
0.018327435478568
0.0189765393733978
0.0192412473261356
0.0192703586071729
0.0192101523280143
0.0191794671118259
0.0192509368062019
0.019449645653367
0.019762547686696
0.0201497040688991
0.0205522552132606
0.0208966508507728
0.021101513877511
0.0210904292762279
0.0208034552633762
0.0202019568532705
0.0192727092653512
0.0180365741252899
0.0165568646043539
0.0149400532245635
0.0133245876058936
0.0118585517629981
0.0106754824519157
0.0098779127001762
0.0095274578779935
0.0096389409154653
0.0101828780025243
0.0110958954319357
0.0122895520180463
0.0136514976620674
0.0150438677519559
0.0163076631724834
0.0172760710120201
0.0177946537733078
0.0177456326782703
0.017070684581995
0.0157822128385305
0.0139573821797966
0.0117213781923055
0.0092294113710522
0.0066499561071395
0.0041479961946606
0.0018691467121243
-7.439730688929558e-05
-0.0016156488563865
-0.002738464390859
-0.0034738595131784
-0.0038909527938812
-0.004087365232408
-0.0041770325042307
-0.0042722430080175
-0.0044647073373198
-0.0048165321350097
-0.0053637782111763
-0.0061231274157762
-0.0070959432050585
-0.0082733109593391
-0.0096443146467208
-0.0112033523619174
-0.0129490541294217
-0.0148705802857875
-0.0169284082949161
-0.019043281674385
-0.0210989750921726
-0.0229558497667312
-0.0244724228978157
-0.025532491505146
-0.0260699726641178
-0.0260822158306837
-0.0256283693015575
-0.0248121302574872
-0.0237525291740894
-0.0225555188953876
-0.0212964545935392
-0.0200131814926862
-0.0187078267335891
-0.0173555836081504
-0.0159174054861068
-0.0143537987023592
-0.01263661775738
-0.0107568548992276
-0.0087283588945865
-0.0065871230326592
-0.0043864538893103
-0.0021935466211289
-8.942466229200363e-05
0.0018377642845734
0.0035097270738333
0.0048722699284553
0.0058979433961212
0.0065824361518025
0.0069397189654409
0.0069952616468071
0.0067770155146718
0.0063040871173143
0.0055782874114811
0.0045901155099272
0.0033398065716028
0.001861598342657
0.0002390509471297
-0.0014006805140525
-0.0029147826135158
-0.0041779531165957
-0.0051060151308774
-0.0056671206839382
-0.0058810370974242
-0.0058077787980437
-0.0055297929793596
-0.0051333177834749
-0.0046906755305826
-0.0042455713264644
-0.0038078594952821
-0.0033570816740393
-0.0028479574248194
-0.0022151600569486
-0.0013788565993309
-0.0002569295465946
0.0012130015529692
0.0030502188019454
0.0052183410152792
0.0076283663511276
0.0101534528657794
0.0126475375145673
0.0149633167311549
0.016971331089735
0.0185794048011302
0.0197440534830093
0.0204691477119922
0.0207965224981308
0.0207936875522136
0.0205413494259119
0.0201221127063035
0.0196066331118345
0.0190365836024284
0.018414057791233
0.0177025888115167
0.0168365091085433
0.0157343540340662
0.0143131967633962
0.0125043392181396
0.0102679217234253
0.0076029086485505
0.0045540393330156
0.0012126300716772
-0.0022930596023797
-0.0058112838305532
-0.0091763054952025
-0.0122155919671058
-0.0147644467651844
-0.016692129895091
-0.0179242864251136
-0.0184469372034072
-0.0182949434965848
-0.017532143741846
-0.0162298306822776
-0.0144536606967449
-0.0122646652162075
-0.009729666635394
-0.0069318804889917
-0.0039750337600708
-0.0009786342270672
0.0019327560439705
0.0046434886753559
0.0070627937093377
0.0091335624456405
0.0108270598575472
0.0121337370947003
0.0130610233172774
0.01363524235785
0.0138994688168168
0.0139050120487809
0.0137000167742371
0.013319251127541
0.0127782812342047
0.012069665826857
0.0111572807654738
0.0099741350859403
0.0084304874762892
0.0064337397925555
0.0039167953655123
0.000864177942276
-0.002671321388334
-0.0065605835989117
-0.0106033505871891
-0.0145517876371741
-0.0181455295532941
-0.0211469419300556
-0.0233694650232791
-0.0246960073709487
-0.0250873491168022
-0.0245822239667177
-0.0232908725738525
-0.0213811621069908
-0.0190559513866901
-0.016524439677596
-0.0139739867299795
-0.0115499412640929
-0.0093454746529459
-0.007396672386676
-0.0056812963448464
-0.0041269976645708
-0.0026328093372285
-0.0010978481732308
0.0005536247044801
0.0023562787100672
0.0042994748800992
0.0063355765305459
0.0083929244428873
0.0103860814124345
0.012225585989654
0.0138285988941788
0.0151242017745971
0.0160477329045534
0.0165286380797624
0.0164849925786256
0.0158337317407131
0.0145119624212384
0.0124952718615531
0.0098044145852327
0.006504151970148
0.0027001665439456
-0.0014635338447988
-0.0058074188418686
-0.0101256752386689
-0.0142051735892891
-0.0178473331034183
-0.0208830516785383
-0.0231794212013483
-0.024650402367115
-0.025274746119976
-0.0251028407365083
-0.0242429785430431
-0.0228359792381525
-0.0210258401930332
-0.0189327113330364
-0.0166358314454555
-0.0141649339348077
-0.0114955389872193
-0.0085557652637362
-0.0052523948252201
-0.0015076817944645
0.0027065416797995
0.007344318088144
0.012275805696845
0.017295578494668
0.0221474580466747
0.0265615452080965
0.0302920620888471
0.033142801374197
0.0349793136119842
0.0357335023581981
0.0354015491902828
0.034037247300148
0.0317452549934387
0.0286736898124218
0.0250032693147659
0.0209333710372447
0.0166678354144096
0.0124024590477347
0.0083120549097657
0.0045330813154578
0.0011466911528259
-0.0018245072569698
-0.0044044335372745
-0.006646055728197
-0.0086128516122698
-0.0103612076491117
-0.0119279325008392
-0.0133268414065241
-0.0145539231598377
-0.0155935129150748
-0.0164209716022014
-0.0170022249221801
-0.0172912664711475
-0.0172295458614826
-0.0167492404580116
-0.0157845057547092
-0.0142954997718334
-0.0122940447181463
-0.0098523125052452
-0.007090657018125
-0.0041554989293217
-0.0011994342785328
0.0016328678466379
0.0042136656120419
0.0064352652989327
0.0082089724019169
0.0094626955687999
0.0101390741765499
0.010198256932199
0.0096278209239244
0.0084541477262973
0.0067446045577526
0.0045970464125275
0.0021250275894999
-0.0005545051535591
-0.0033328323625028
-0.0061192056164145
-0.0088433735072612
-0.0114514837041497
-0.0139008956030011
-0.0161570813506841
-0.0181909259408712
-0.0199731215834617
-0.0214675329625606
-0.0226296968758106
-0.0234100632369518
-0.0237571820616722
-0.0236237980425357
-0.0229783952236175
-0.0218136813491582
-0.0201442949473857
-0.01799694634974
-0.0154019091278314
-0.0123929874971508
-0.0090164728462696
-0.005341119132936
-0.0014606546610593
0.0025118719786405
0.0064550135284662
0.0102512426674366
0.0137965697795152
0.0170087032020092
0.0198337882757186
0.0222428981214761
0.0242145583033561
0.0257167145609855
0.0267018042504787
0.0271121654659509
0.02688929438591
0.0259902738034725
0.0244102701544761
0.0221979096531867
0.0194563176482915
0.0163320489227771
0.0129933971911668
0.0096032554283738
0.0062962612137198
0.0031663402915
0.0002651577815413
-0.0023939246311783
-0.0048289271071553
-0.0070742247626185
-0.0091583197936415
-0.0110835041850805
-0.0128153264522552
-0.0142862182110548
-0.0154106309637427
-0.0161033906042575
-0.0162960514426231
-0.0159495435655117
-0.015060638077557
-0.0136618558317422
-0.0118155647069215
-0.0095988009124994
-0.0070786336436867
-0.0042918417602777
-0.0012435223907232
0.0020778905600309
0.0056779347360134
0.0095313098281621
0.0135673619806766
0.0176738947629928
0.0217098835855722
0.0255189910531044
0.028947053477168
0.0318611823022365
0.0341591835021972
0.0357655957341194
0.0366212427616119
0.0366761311888694
0.0358916670083999
0.0342471152544021
0.0317440591752529
0.0284112449735403
0.0243094712495803
0.019532773643732
0.014205097220838
0.0084732640534639
0.0025026542134582
-0.0035186409950256
-0.0093763042241334
-0.0148402955383062
-0.0196892451494932
-0.0237380024045705
-0.0268598701804876
-0.0289987474679946
-0.0301667749881744
-0.0304340999573469
-0.0299203693866729
-0.0287791173905134
-0.0271658319979906
-0.0252014063298702
-0.0229481384158134
-0.0204059202224016
-0.0175287686288356
-0.0142565602436661
-0.0105509273707866
-0.0064226491376757
-0.0019432734698057
0.0027595271822065
0.0075188567861914
0.0121518149971961
0.0164833758026361
0.0203650072216987
0.0236843451857566
0.026367736980319
0.0283806528896093
0.0297282766550779
0.0304507911205291
0.0306061450392007
0.0302442945539951
0.0293875578790903
0.0280255023390054
0.0261196978390216
0.0236142966896295
0.0204566642642021
0.0166296493262052
0.0121859582141041
0.0072699673473834
0.0021120347082614
-0.0030074641108512
-0.0078035471960902
-0.012022279202938
-0.0154671538621187
-0.0180177204310894
-0.0196370221674442
-0.0203675124794244
-0.0203168615698814
-0.0196374058723449
-0.0185038428753614
-0.0170901492238044
-0.0155460936948657
-0.0139778796583414
-0.0124389771372079
-0.0109334494918584
-0.0094320867210626
-0.0078973174095153
-0.0063036028295755
-0.0046447589993476
-0.0029341736808419
-0.0012045819312334
0.0004945015534758
0.0021061142906546
0.0035787327215075
0.0048746634274721
0.0059727355837821
0.0068670511245727
0.0075601767748594
0.0080530028790235
0.0083379074931144
0.0083937402814626
0.0081735514104366
0.0075889937579631
0.0065104309469461
0.0047924146056175
0.0023151561617851
-0.0009739715605974
-0.0050302129238843
-0.009699173271656
-0.0147267058491706
-0.0197902582585811
-0.0245431754738092
-0.0286599025130271
-0.0318739265203475
-0.0340042188763618
-0.034967616200447
-0.0347791165113449
-0.0335462614893913
-0.0314565114676952
-0.0287479571998119
-0.0256663858890533
-0.0224238149821758
-0.0191676095128059
-0.0159673634916543
-0.0128251165151596
-0.0097029497846961
-0.0065557323396205
-0.003358116839081
-0.0001179864630103
0.0031233420595526
0.0062975664623081
0.0093207713216543
0.0121097564697265
0.0145941972732543
0.0167182050645351
0.0184395648539066
0.0197327509522438
0.02059081569314
0.0210249163210392
0.0210633594542741
0.0207474306225776
0.0201224461197853
0.0192252285778522
0.0180693212896585
0.0166331101208925
0.0148596642538905
0.0126719465479254
0.0099988086149096
0.006804677657783
0.0031123673543334
-0.0009893383830785
-0.0053498810157179
-0.0097692236304283
-0.0140207568183541
-0.0178811028599739
-0.0211568810045719
-0.0237025916576385
-0.025429556146264
-0.0263101421296596
-0.0263800173997879
-0.0257331058382987
-0.0245050769299268
-0.0228514336049556
-0.0209253299981355
-0.0188559722155332
-0.0167346037924289
-0.0146134309470653
-0.0125123914331197
-0.0104281939566135
-0.0083428034558892
-0.0062302467413246
-0.0040656281635165
-0.0018370957113802
0.0004467117250896
0.0027567096985876
0.005046984180808
0.0072608208283782
0.0093382131308317
0.0112238824367523
0.0128770153969526
0.0142779732123017
0.0154252536594867
0.0163262318819761
0.0169898681342601
0.0174242127686738
0.0176359545439481
0.0176275875419378
0.0173907037824392
0.0168982651084661
0.0161018259823322
0.0149401230737566
0.013358686119318
0.0113316914066672
0.0088763609528541
0.0060565797612071
0.0029807519167661
-0.0002042654668912
-0.0033304053358733
-0.0062351003289222
-0.0087817944586277
-0.0108671458438038
-0.0124229155480861
-0.0134179573506116
-0.0138580230996012
-0.0137829324230551
-0.0132614588364958
-0.0123819233849644
-0.0112412413582205
-0.0099365189671516
-0.0085570812225341
-0.0071753738448023
-0.0058381059207022
-0.0045602233149111
-0.0033278395421802
-0.0021115187555551
-0.0008811447769403
0.0003841761499643
0.0016904992517083
0.003029326442629
0.0043846182525157
0.0057396702468395
0.0070786988362669
0.0083861770108342
0.0096493382006883
0.0108625590801239
0.0120270177721977
0.013146299868822
0.0142247062176465
0.0152666810899972
0.0162699222564697
0.0172148831188678
0.0180589072406291
0.0187367051839828
0.0191654469817876
0.0192522518336772
0.018903536722064
0.0180393904447555
0.0166131015866994
0.0146274836733937
0.0121403718367218
0.0092609040439128
0.0061397394165396
0.0029528141021728
-0.0001185967121273
-0.0029067832510918
-0.0052766110748052
-0.0071426033973693
-0.008474476635456
-0.0092901866883039
-0.0096445940434932
-0.0096178809180855
-0.0093039404600858
-0.0087993182241916
-0.008193620480597
-0.0075618219561874
-0.0069590406492352
-0.0064176153391599
-0.0059462743811309
-0.0055327382870018
-0.0051477788947522
-0.0047480696812272
-0.0042835995554924
-0.003711819415912
-0.0030076240655034
-0.0021644691005349
-0.0011924128048121
-0.0001135806087404
0.0010461456840857
0.0022652081679552
0.0035294312983751
0.0048284120857715
0.0061493972316384
0.0074729365296661
0.0087701566517353
0.0100029362365603
0.0111292414367198
0.0121099771931767
0.0129074901342391
0.013472787104547
0.0137356240302324
0.0136101637035608
0.0130116641521453
0.01187689229846
0.0101839937269687
0.0079645747318863
0.0053038033656775
0.0023314310237765
-0.0007920176722109
-0.0038927206769585
-0.0068035232834517
-0.0093820262700319
-0.0115225333720445
-0.0131610482931137
-0.0142777524888515
-0.0148992296308279
-0.0150934644043445
-0.0149544458836317
-0.0145843755453825
-0.0140811000019311
-0.0135310012847185
-0.0130034480243921
-0.0125448834151029
-0.0121739925816655
-0.0118811558932065
-0.0116344904527068
-0.011389872059226
-0.0111007243394851
-0.0107239568606019
-0.0102214133366942
-0.0095635345205664
-0.0087380884215235
-0.0077558234333992
-0.0066474881023168
-0.0054567465558648
-0.0042330278083682
-0.0030220285989344
-0.0018560092430561
-0.0007510556606575
0.0002895694342441
0.0012705014087259
0.0021961736492812
0.0030588991940021
0.0038286612834781
0.0044531980529427
0.0048708505928516
0.0050243586301803
0.004867629148066
0.0043747932650148
0.0035540137905627
0.0024549167137593
0.0011660831514745
-0.0001951794838532
-0.0014994705561548
-0.0026225764304399
-0.0034596023615449
-0.0039370292797684
-0.0040212320163846
-0.0037215547636151
-0.0030873529613018
-0.0021955682896077
-0.0011304775252938
3.0726660043001175e-05
0.0012188664404675
0.0023703053593635
0.0034304300788789
0.0043601924553513
0.0051402328535914
0.0057717338204383
0.0062749264761805
0.0066850180737674
0.0070452326908707
0.0073987217620015
0.0077832080423831
0.0082278689369559
0.0087476633489131
0.0093392059206962
0.0099860504269599
0.010665594600141
0.0113486358895897
0.0119994292035698
0.0125815095379948
0.0130622684955596
0.0134132327511906
0.0136092826724052
0.0136257903650403
0.0134323621168732
0.012989280745387
0.0122524872422218
0.0111862998455762
0.0097799226641654
0.0080629587173461
0.0061161224730312
0.0040717381052672
0.0020953388884663
0.0003499882295727
-0.00103808240965
-0.0019966587424278
-0.0025089122354984
-0.0026074731722474
-0.0023649572394788
-0.0018821931444108
-0.0012771831825375
-0.0006741895340383
-0.0001901271753013
7.93561339378357e-05
7.030647248029709e-05
-0.0002451734617352
-0.0008603846654295
-0.0017382190562784
-0.0028212890028953
-0.0040482920594513
-0.0053638448007404
-0.0067166676744818
-0.0080550899729132
-0.0093265380710363
-0.0104800118133425
-0.0114672966301441
-0.0122430892661213
-0.0127676073461771
-0.0130103398114442
-0.0129499081522226
-0.0125679979100823
-0.0118409190326929
-0.0107360575348138
-0.0092208515852689
-0.00728658773005
-0.0049763605929911
-0.0024006958119571
0.0002643200568854
0.0027925223112106
0.0049340990372002
0.0064496807754039
0.0071469969116151
0.0069123632274568
0.0057263579219579
0.0036603976041078
0.0008609257638454
-0.0024711154401302
-0.0061024371534585
-0.0097903674468398
-0.013304328545928
-0.0164482407271862
-0.019084533676505
-0.0211468674242496
-0.0226346533745527
-0.0235999841243028
-0.0241348072886466
-0.0243544280529022
-0.0243750400841236
-0.024292454123497
-0.0241683050990104
-0.0240236856043338
-0.0238403901457786
-0.0235689245164394
-0.0231394600123167
-0.0224723815917968
-0.0214874669909477
-0.020113505423069
-0.0182958915829658
-0.0159968584775924
-0.0131935169920325
-0.009882690384984
-0.006092308089137
-0.0018927548080682
0.0025987857952713
0.0072250845842063
0.0118062011897563
0.0161624141037464
0.0201357211917638
0.023603742942214
0.026481706649065
0.0287142693996429
0.0302634909749031
0.0310950949788093
0.0311675630509853
0.0304360408335924
0.0288726165890693
0.0264890938997268
0.0233495756983757
0.0195703078061342
0.0153103601187467
0.0107550071552395
0.0060946736484766
0.0015093246474862
-0.0028361678123474
-0.0067917760461568
-0.0102248964831233
-0.0130271259695291
-0.0151210697367787
-0.0164669957011938
-0.0170722566545009
-0.0169956702739
-0.0163366105407476
-0.0152121074497699
-0.0137307401746511
-0.0119683034718036
-0.0099510718137025
-0.0076550636440515
-0.005026938393712
-0.0020203385502099
0.0013718325644731
0.0051045138388872
0.0090851159766316
0.0131868384778499
0.0172659587115049
0.0211765151470899
0.0247772615402936
0.027939099818468
0.030559753999114
0.032577596604824
0.0339766666293144
0.0347844436764717
0.0350642576813697
0.0349013283848762
0.0343843847513198
0.0335870124399662
0.0325516760349273
0.0312785319983959
0.0297232009470462
0.0278109945356845
0.0254651829600334
0.0226300656795501
0.0192786902189254
0.015416657552123
0.0110886301845312
0.0063822176307439
0.001427223207429
-0.0036104135215282
-0.0085407216101884
-0.0131665095686912
-0.0173043068498373
-0.0208049081265926
-0.023568132892251
-0.0255522951483726
-0.0267778076231479
-0.0273195784538984
-0.0272855628281831
-0.0267922561615705
-0.0259522926062345
-0.0248698648065328
-0.0236313436180353
-0.0222946219146251
-0.0208855364471673
-0.019400019198656
-0.0178061258047819
-0.0160418543964624
-0.014012411236763
-0.0115980841219425
-0.0086798882111907
-0.0051783351227641
-0.0010895752348005
0.0034998110495507
0.0084241339936852
0.0134620927274227
0.0183588080108165
0.0228454060852527
0.0266586933284997
0.0295605491846799
0.0313577465713024
0.0319219157099723
0.0312041342258453
0.0292392633855342
0.026140009984374
0.0220813769847154
0.0172792356461286
0.0119705442339181
0.0063967499881982
0.0007912083528935
-0.0046256077475845
-0.0096509102731943
-0.0141133796423673
-0.017888793721795
-0.0209085065871477
-0.0231596194207668
-0.0246771369129419
-0.0255306363105773
-0.0258112736046314
-0.0256206430494785
-0.0250584315508604
-0.0242112893611192
-0.0231468845158815
-0.0219090729951858
-0.0205089356750249
-0.018913323059678
-0.0170403197407722
-0.0147748859599232
-0.0120055750012397
-0.0086639765650033
-0.0047502424567937
-0.0003415399696677
0.0044152745977044
0.0093233417719602
0.0141617655754089
0.0187126584351062
0.0227841325104236
0.0262256916612386
0.0289347544312477
0.0308523681014776
0.0319503657519817
0.0322170704603195
0.0316459126770496
0.0302281863987445
0.0279529225081205
0.0248169358819723
0.0208397712558507
0.0160748306661844
0.0106152407824993
0.0045952424407005
-0.0018128617666661
-0.0084035405889153
-0.0149446669965982
-0.0211892053484916
-0.026892390102148
-0.031833067536354
-0.035835862159729
-0.0387869179248809
-0.0406408421695232
-0.0414251573383808
-0.0412394776940345
-0.0402347296476364
-0.0385715551674366
-0.0363764129579067
-0.0337148122489452
-0.030589822679758
-0.0269617866724729
-0.0227816421538591
-0.0180298760533332
-0.0127474479377269
-0.0070466515608131
-0.0011015878990292
0.0048736105673015
0.0106523437425494
0.0160266403108835
0.0208322592079639
0.0249565243721008
0.0283357370644807
0.03095293790102
0.0328336395323276
0.0340356715023517
0.0346333794295787
0.034695953130722
0.0342638231813907
0.0333345457911491
0.0318653993308544
0.0297889988869428
0.0270366407930851
0.0235646851360797
0.0193779412657022
0.0145471692085266
0.009216527454555
0.0035940431989729
-0.0020724670030176
-0.0075232377275824
-0.0125109339132905
-0.0168213136494159
-0.0202912129461765
-0.0228208564221858
-0.024379089474678
-0.0250040125101804
-0.024797199293971
-0.0239081867039203
-0.0225127022713422
-0.0207893047481775
-0.0188939105719327
-0.0169345252215862
-0.0149587094783782
-0.0129613131284713
-0.0109024988487362
-0.0087265549227595
-0.0063819829374551
-0.0038405794184654
-0.0011095507070422
0.0017669906374067
0.0047164293937385
0.0076508438214659
0.0104794297367334
0.0131166381761431
0.0154869593679904
0.0175305530428886
0.0192107856273651
0.0205193199217319
0.021469984203577
0.0220797322690486
0.0223502852022647
0.0222605653107166
0.0217661783099174
0.0208034869283437
0.0192998331040143
0.0171884391456842
0.014428730122745
0.0110324257984757
0.0070846402086317
0.0027458891272544
-0.0017650933004915
-0.0061965519562363
-0.0102892322465777
-0.013800922781229
-0.0165306963026523
-0.0183385051786899
-0.0191532839089632
-0.0189721584320068
-0.0178589466959238
-0.0159429144114255
-0.0134114976972341
-0.0104932822287082
-0.0074334577657282
-0.0044655241072177
-0.0017838303465396
0.0004769517108798
0.0022509431000798
0.0035387969110161
0.0043985093943774
0.0049329721368849
0.0052707842551171
0.0055383816361427
0.0058350712060928
0.0062229195609688
0.0067281266674399
0.0073454291559755
0.0080436617136001
0.0087732747197151
0.0094743892550468
0.0100826025009155
0.0105329193174839
0.0107635995373129
0.0107169169932603
0.010334706865251
0.0095535488799214
0.0083042941987514
0.0065159890800714
0.0041250139474868
0.0010919086635112
-0.0025756759569048
-0.0068029295653104
-0.0114408284425735
-0.0162706095725297
-0.0210147053003311
-0.0253580249845981
-0.028980303555727
-0.0315901674330234
-0.0329539999365806
-0.0329200699925422
-0.0314376950263977
-0.028568023815751
-0.0244850143790245
-0.0194659829139709
-0.0138687342405319
-0.0080934390425682
-0.0025333270896226
0.0024757958017289
0.0066938558593392
0.0099938381463289
0.0123601015657186
0.0138734467327594
0.0146865537390112
0.0149937747046351
0.0149990459904074
0.0148862963542342
0.0147979687899351
0.0148241743445396
0.0150003880262374
0.0153089594095945
0.015681529417634
0.0160039439797401
0.0161274373531341
0.0158893652260303
0.0151417013257741
0.013779180124402
0.0117584355175495
0.0091039342805743
0.0059020780026912
0.0022889962419867
-0.0015624379739165
-0.0054547884501516
-0.0091775143519043
-0.0125165311619639
-0.0152637436985969
-0.0172337125986814
-0.01829026453197
-0.0183744765818119
-0.0175203122198581
-0.0158475842326879
-0.0135357053950428
-0.0107938144356012
-0.0078362077474594
-0.0048629119992256
-0.0020452681928873
0.0004838928580284
0.0026359008625149
0.0043670968152582
0.0056761903688311
0.0066002933308482
0.0072087529115378
0.0075905742123723
0.0078359739854931
0.008021954447031
0.0082069803029298
0.0084296399727463
0.008707595989108
0.0090361712500453
0.0093874922022223
0.0097121261060237
0.0099411522969603
0.0099884988740086
0.00975988432765
0.0091701447963714
0.0081606591120362
0.0067124683409929
0.0048603927716612
0.0027033723890781
0.0003939494490623
-0.001894325017929
-0.0040029631927609
-0.005812578368932
-0.0072502475231885
-0.0082826493307948
-0.0089039094746112
-0.0091297291219234
-0.0089996829628944
-0.0085780126973986
-0.0079470379278063
-0.0071952906437218
-0.0064045488834381
-0.0056394175626337
-0.004940444137901
-0.0043238480575382
-0.0037902942858636
-0.0033341571688652
-0.0029457984492182
-0.0026114815846085
-0.0023152325302362
-0.0020413575693964
-0.0017769997939467
-0.001514901407063
-0.0012545967474579
-0.0010012434795498
-0.000764419324696
-0.0005574943497776
-0.0003950791433453
-0.0002875039353966
-0.0002367785200476
-0.0002416586503386
-0.0003098975867033
-0.0004646591842174
-0.0007383832708001
-0.0011592349037528
-0.0017374111339449
-0.0024547409266233
-0.0032594995573163
-0.0040711937472224
-0.0047965282574296
-0.0053481780923902
-0.0056573241017758
-0.005678316578269
-0.005390535108745
-0.0048014167696237
-0.0039478233084082
-0.002896087244153
-0.0017415797337889
-0.0005998034030199
0.0004131784662604
0.0012014890089631
0.0017029549926519
0.0018933154642581
0.0017825812101364
0.0014074640348553
0.0008258009329438
0.0001117223873734
-0.0006552869454026
-0.0014035245403647
-0.0020750472322106
-0.0026237573474645
-0.0030113034881651
-0.0032089687883853
-0.0032087382860481
-0.0030342456884682
-0.002740410156548
-0.0024009430781006
-0.0020926715806126
-0.0018866234458982
-0.0018453490920364
-0.0020187678746879
-0.0024388302117586
