bvp
0.0079811550676822
0.007314246147871
0.0063123246654868
0.0050123711116611
0.0034838279243558
0.0018198631005361
0.0001297418493777
-0.0014704524073749
-0.0028712109196931
-0.0039832722395658
-0.0047465153038501
-0.0051323100924491
-0.0051444466225802
-0.0048212786205112
-0.0042320247739553
-0.0034656403586268
-0.0026193314697593
-0.0017885465640574
-0.0010550064034759
-0.0004735165275633
-6.295554339885712e-05
0.0001940468791872
0.0003421362489461
0.0004396580625325
0.0005465666763484
0.0007167735602706
0.000995417125523
0.0014173466479405
0.0020003288518637
0.0027355845086276
0.0035871330182999
0.0045020300894975
0.0054240692406892
0.0063055693171918
0.0071132043376564
0.0078266691416502
0.0084321042522788
0.0089118713513016
0.0092357629910111
0.0093598635867238
0.0092325210571289
0.0088037578389048
0.0080367550253868
0.0069197034463286
0.0054721301421523
0.0037417588755488
0.001796640921384
-0.0002828042488545
-0.0024119713343679
-0.0045090895146131
-0.0064983037300407
-0.0083091426640748
-0.0098770372569561
-0.0111474022269248
-0.0120811015367507
-0.0126609457656741
-0.0128989536315202
-0.0128400838002562
-0.0125562772154808
-0.012131230905652
-0.0116485012695193
-0.01118999812752
-0.0108349788933992
-0.0106514627113938
-0.0106847574934363
-0.0109513942152261
-0.0114402743056416
-0.0121211279183626
-0.0129641955718398
-0.0139596816152334
-0.0151072638109326
-0.0163647308945655
-0.0175876356661319
-0.018508281558752
-0.0187690239399671
-0.0179922450333833
-0.0158771835267543
-0.0123103652149438
-0.0074476669542491
-0.0017270217649638
0.0042026443406939
0.0096167968586087
0.0138572473078966
0.0164321828633546
0.0170786418020725
0.0158006213605403
0.0128674041479825
0.0087537532672286
0.0040193870663642
-0.0008372906595468
-0.0054715313017368
-0.0096866404637694
-0.0133803011849522
-0.0165045503526926
-0.0190384425222873
-0.020959323272109
-0.0222272612154483
-0.0227944813668727
-0.0226293765008449
-0.0217351913452148
-0.0201478078961372
-0.0179117582738399
-0.0150501951575279
-0.0115435253828763
-0.0073197782039642
-0.0022553950548171
0.0038242302834987
0.0111468201503157
0.019964026287198
0.0304723065346479
0.0427229925990104
0.0565681159496307
0.0716593489050865
0.0874891579151153
0.1034447103738784
0.1188559979200363
0.1330401003360748
0.1453468799591064
0.155206099152565
0.1621729284524917
0.1659674793481826
0.1665018945932388
0.1638882905244827
0.1584190726280212
0.1505128145217895
0.1406417787075042
0.1292725950479507
0.1168320402503013
0.1036890000104904
0.0901455506682396
0.0764341801404953
0.0627195015549659
0.0491049364209175
0.0356436818838119
0.0223492830991745
0.0092062130570411
-0.0038133636116981
-0.0167233273386955
-0.0294940546154975
-0.0420334488153457
-0.054190669208765
-0.0657801479101181
-0.0766106098890304
-0.0865108221769332
-0.0953523516654968
-0.1030645817518234
-0.1096381619572639
-0.1151200905442237
-0.1196009293198585
-0.1231953352689743
-0.1260249018669128
-0.1282077431678772
-0.1298497021198272
-0.1310345530509948
-0.1318138539791107
-0.1322009116411209
-0.132179394364357
-0.1317238509654998
-0.1308145523071289
-0.1294412612915039
-0.1276011019945144
-0.1252914071083068
-0.1225011646747589
-0.1192107647657394
-0.1154044866561889
-0.1110914573073387
-0.1063282787799835
-0.1012345254421234
-0.0959923267364502
-0.090828813612461
-0.0859835296869278
-0.0816643461585044
-0.0780087709426879
-0.0750671252608299
-0.072803258895874
-0.0711029917001724
-0.0697892010211944
-0.0686432793736457
-0.0674305260181427
-0.0659276694059372
-0.0639489814639091
-0.0613669715821743
-0.0581248700618743
-0.0542381666600704
-0.0497842580080032
-0.0448830872774124
-0.0396728366613388
-0.0342875830829143
-0.0288463532924652
-0.0234518852084875
-0.0181879252195358
-0.0131121389567852
-0.0082504488527774
-0.0035982728004455
0.0008719749748706
0.0052027404308319
0.0094449780881404
0.0136525407433509
0.0178756117820739
0.0221523717045784
0.026502676308155
0.0309270471334457
0.0354102402925491
0.0399284027516841
0.0444536432623863
0.048948623239994
0.0533553138375282
0.0575860738754272
0.0615216419100761
0.0650200173258781
0.0679338946938514
0.0701297000050544
0.0715072453022003
0.0720192864537239
0.0716849863529205
0.0705928206443786
0.0688918307423591
0.0667737498879432
0.0644523277878761
0.0621434152126312
0.0600422173738479
0.0582999363541603
0.057011641561985
0.056217972189188
0.0559104122221469
0.0560342632234096
0.0564945079386234
0.0571697652339935
0.057932436466217
0.0586688555777072
0.0592928156256675
0.0597508139908313
0.0600219294428825
0.0601149313151836
0.0600651130080223
0.059929646551609
0.0597757026553154
0.0596624128520488
0.0596272349357605
0.0596812330186367
0.0598092414438724
0.059974081814289
0.0601251348853111
0.0602084882557392
0.0601761490106582
0.0599914416670799
0.0596273802220821
0.0590591132640838
0.0582538060843944
0.0571615509688854
0.0557145327329635
0.0538373477756977
0.0514581874012947
0.0485154502093791
0.04496930539608
0.0408197715878486
0.036121878772974
0.0309918727725744
0.0255997311323881
0.020147455856204
0.0148424748331308
0.0098766656592488
0.005413319915533
0.0015768762677907
-0.0015575289726257
-0.003969844430685
-0.0056915339082479
-0.0067954063415527
-0.0073861256241798
-0.0075947269797325
-0.0075704245828092
-0.0074631795287132
-0.0074030789546668
-0.007486623711884
-0.0077692451886832
-0.0082604698836803
-0.0089272828772664
-0.009707348421216
-0.0105240177363157
-0.0112991798669099
-0.0119650587439537
-0.0124726593494415
-0.0127944936975836
-0.0129249421879649
-0.0128834983333945
-0.0127186737954616
-0.012503819540143
-0.0123239308595657
-0.0122612221166491
-0.0123854596167802
-0.0127510000020265
-0.0133999986574053
-0.0143699878826737
-0.0157008208334445
-0.0174346789717674
-0.0196072421967983
-0.0222312621772289
-0.0252787861973047
-0.0286702662706375
-0.0322733037173748
-0.0359136387705802
-0.039397444576025
-0.0425351597368717
-0.0451604500412941
-0.0471434891223907
-0.048398770391941
-0.0488902181386947
-0.0486333668231964
-0.0476910024881362
-0.0461641028523445
-0.0441812127828598
-0.0418852679431438
-0.039418525993824
-0.0369091182947158
-0.0344604365527629
-0.0321436040103435
-0.0299972854554653
-0.0280350036919116
-0.0262508392333984
-0.024619111791253
-0.0230938997119665
-0.0216124951839447
-0.0201031826436519
-0.0184969492256641
-0.0167397707700729
-0.0148022510111331
-0.0126840332522988
-0.0104103861376643
-0.0080232741311192
-0.0055718063376843
-0.0031042816117405
-0.0006644371896982
0.0017039710655808
0.0039456146769225
0.0059864004142582
0.0077393483370542
0.0091159753501415
0.0100363632664084
0.010444888845086
0.010329645127058
0.0097318310290575
0.0087432581931352
0.0074969087727367
0.0061500472947955
0.0048610912635922
0.003766497131437
0.0029666698537766
0.0025242250412702
0.0024646008387207
0.0027716709300875
0.0033863708376884
0.0042149503715336
0.0051438552327454
0.0060581038706004
0.00685899797827
0.0074761882424354
0.0078749600797891
0.0080593079328536
0.008067263290286
0.0079599525779485
0.0078088962472975
0.007683590054512
0.0076444642618298
0.0077434708364307
0.0080214170739054
0.0084968106821179
0.0091594848781824
0.0099759437143802
0.0108987111598253
0.0118750305846333
0.0128534752875566
0.013784984126687
0.014618900604546
0.0152986636385321
0.0157600082457065
0.0159332863986492
0.0157499946653842
0.0151518611237406
0.0141043774783611
0.012612696737051
0.0107268607243895
0.0085315676406025
0.0061311861500144
0.0036381408572196
0.0011661276221275
-0.0011752340942621
-0.0032896026968955
-0.0051024807617068
-0.006563663482666
-0.0076480042189359
-0.0083575742319226
-0.0087217846885323
-0.0087918583303689
-0.0086317416280508
-0.0083085596561431
-0.0078821154311299
-0.0073968623764812
-0.0068820542655885
-0.0063583338633179
-0.0058432761579751
-0.0053524952381849
-0.0048981495201587
-0.0044849915429949
-0.0041059711948037
-0.0037426436319947
-0.0033706119284033
-0.0029647452756762
-0.0025004735216498
-0.0019561434164643
-0.0013218559324741
-0.0006075715646147
0.0001569995656609
0.0009251702576875
0.0016319956630468
0.0021935952827334
0.0025148848071694
0.0025044046342372
0.0020892396569252
0.0012252107262611
-9.691528975963593e-05
-0.0018451651558279
-0.0039417427033185
-0.0062672533094882
-0.008676191791892
-0.0110166184604167
-0.0131454337388277
-0.0149388425052165
-0.0163005907088518
-0.0171699337661266
-0.0175294466316699
-0.0174066051840782
-0.0168669670820236
-0.0160025283694267
-0.0149156861007213
-0.0137035828083753
-0.0124502051621675
-0.0112231653183698
-0.0100705372169613
-0.0090203797444701
-0.0080838100984692
-0.0072577381506562
-0.0065250694751739
-0.0058545558713376
-0.0052045574411749
-0.0045341104269027
-0.0038168008904904
-0.0030463438015431
-0.0022326572798192
-0.0013966406695544
-0.0005658976733684
0.0002313456498086
0.0009732013568282
0.0016471135895699
0.0022477880120277
0.0027729121502488
0.0032175683882087
0.0035698320716619
0.0038107971195131
0.0039197066798806
0.0038826251402497
0.0036967881023883
0.0033674139995127
0.0029065245762467
0.002336555160582
0.0016920459456741
0.0010187008883804
0.0003705658309627
-0.0001963730901479
-0.000632221228443
-0.0009004779858514
-0.0009824966546148
-0.0008765634265728
-0.0005950118647888
-0.0001642955467104
0.0003764005377888
0.0009836355457082
0.0016154418699443
0.0022254399955272
0.0027586026117205
0.003160921158269
0.0033950004726648
0.0034500351175665
0.0033431067131459
0.0031128013506531
0.0028084677178412
0.0024811059702187
0.0021788673475384
0.0019452285487204
0.0018174315337091
0.0018235608004033
0.0019805603660643
0.002297701081261
0.0027787764556705
0.0034142683725804
0.0041735563427209
0.00500895595178
0.00586624071002
0.0066918637603521
0.0074336063116788
0.008039073087275
0.0084578115493059
0.0086466073989868
0.0085755195468664
0.0082322731614112
0.0076242005452513
0.0067807086743414
0.0057561406865715
0.0046273120678961
0.0034809657372534
0.0023959504906088
0.0014317848253995
0.0006276690401136
6.113667041063309e-06
-0.0004246663302183
-0.0006691273301839
-0.0007421486079692
-0.000669403001666
-0.0004882174544036
-0.0002419021911919
2.914061769843101e-05
0.0002913875505328
0.0005189874209463
0.0006990237161517
0.0008404594846069
0.0009738751687109
0.0011374622117727
0.0013626131694763
0.0016679957043379
0.0020591313950717
0.0025308879557996
0.0030712075531482
0.0036636581644415
0.0042892731726169
0.0049281003884971
0.0055588735267519
0.0061593228019773
0.0067093856632709
0.0071932431310415
0.0075990422628819
0.0079179722815752
0.0081379329785704
0.0082322172820568
0.0081559903919696
0.007856654934585
0.0072913691401481
0.0064413528889417
0.0053172642365098
0.0039592143148183
0.0024347030557692
0.0008322506910189
-0.0007498712511733
-0.0022156732156872
-0.0034812376834452
-0.004483513534069
-0.0051863752305507
-0.0055800802074372
-0.0056779542937874
-0.0055151935666799
-0.0051457001827657
-0.0046342392452061
-0.0040478999726474
-0.0034481098409742
-0.0028827143833041
-0.0023797689937055
-0.00194481422659
-0.0015643960796296
-0.0012160073965787
-0.0008784350357018
-0.0005360950017347
-0.0001780665625119
0.0002035137003986
0.0006161006167531
0.00106738996692
0.0015574345597997
0.0020707170478999
0.0025789593346416
0.0030508134514093
0.0034609960857778
0.0037929760292172
0.0040339478291571
0.0041687563061714
0.0041763023473322
0.0040278504602611
0.0036896679084748
0.0031300755217671
0.0023273811675608
0.0012782593257725
6.125308573246002e-06
-0.001438712934032
-0.0029923690017312
-0.0045917360112071
-0.0061756363138556
-0.0076785823330283
-0.0090299807488918
-0.0101604349911212
-0.0110124098137021
-0.0115513652563095
-0.0117716239765286
-0.0116958860307931
-0.0113697377964854
-0.0108531387522816
-0.0102117992937564
-0.0095071867108345
-0.0087854266166687
-0.008073803037405
-0.0073873656801879
-0.006734927650541
-0.0061186398379504
-0.0055326297879219
-0.0049645113758742
-0.0043978476896882
-0.0038142688572406
-0.0031958627514541
-0.0025285144802182
-0.0018066714983433
-0.0010378726292401
-0.0002422693651169
0.000554077560082
0.0013270385097712
0.0020588818006217
0.0027360515668988
0.0033392256591469
0.0038325213827192
0.0041611781343817
0.004260023124516
0.0040691271424293
0.0035511732567101
0.0027034105733036
0.0015610402915626
0.0001944936811923
-0.0012986985966563
-0.0028078076429665
-0.0042254701256752
-0.0054602264426648
-0.006439059972763
-0.0071047004312276
-0.0074210534803569
-0.0073869652114808
-0.0070415288209915
-0.0064537762664258
-0.005707228090614
-0.0048871273174881
-0.0040690228343009
-0.0033093262463808
-0.0026425505056977
-0.002084300853312
-0.0016334084793925
-0.0012721512466669
-0.0009697033092379
-0.0006891237571835
-0.0003921212628483
-4.059821367263794e-05
0.0003986759111285
0.0009450642392039
0.0015983246266841
0.0023406594991683
0.0031436635181307
0.0039753969758749
0.0048053273931145
0.0056079882197082
0.0063657606951892
0.0070699015632271
0.0077192699536681
0.0083149718120694
0.0088501190766692
0.0092994887381792
0.0096173845231533
0.0097463317215442
0.0096285864710807
0.0092141591012477
0.0084698274731636
0.0073913065716624
0.0060124117881059
0.0044060247018933
0.002675736322999
0.0009409449994564
-0.0006791874766349
-0.0020799161866307
-0.0031819120049476
-0.0039378423243761
-0.0043347757309675
-0.0043922765180468
-0.004155627451837
-0.0036859549582004
-0.003052650950849
-0.0023306217044591
-0.001595745794475
-0.0009137522429227
-0.0003291480243206
0.0001391265541315
0.0004970477893948
0.0007724575698375
0.0010084528475999
0.0012529427185654
0.0015491861850023
0.0019314913079142
0.0024240752682089
0.0030411714687943
0.0037878910079598
0.0046592568978667
0.0056359358131885
0.0066810292191803
0.0077452207915484
0.0087783904746174
0.009739096276462
0.0105973202735185
0.0113289477303624
0.0119060771539807
0.0122904945164918
0.0124315191060304
0.012269034050405
0.0117443799972534
0.0108157331123948
0.0094737913459539
0.0077541242353618
0.0057397773489356
0.0035516512580215
0.0013293828815221
-0.0007897531613707
-0.002684605307877
-0.0042564091272652
-0.0054340003989636
-0.0061794323846697
-0.0064912936650216
-0.0064033614471554
-0.005977664142847
-0.0052939634770154
-0.0044390219263732
-0.0034974492155015
-0.0025442019104957
-0.0016377721913158
-0.0008143940940499
-8.767005056142807e-05
0.00054561952129
0.0011006309650838
0.0016016690060496
0.0020774276927113
0.0025555544998496
0.0030592067632824
0.0036069587804377
0.004214412998408
0.0048932717181742
0.0056480229832232
0.0064734797924757
0.0073555479757487
0.0082736928015947
0.0092002190649509
0.0100972149521112
0.0109125673770904
0.0115719474852085
0.0119746094569563
0.0120061766356229
0.0115642864257097
0.0105818444862961
0.0090418262407183
0.0069860434159636
0.0045168432407081
0.0017880904488265
-0.0010139076039195
-0.0036961953155696
-0.0060857869684696
-0.0080485269427299
-0.0094949193298816
-0.0103759495541453
-0.0106822829693555
-0.0104532781988382
-0.0097812283784151
-0.0087997782975435
-0.0076623149216175
-0.0065175415948033
-0.0054884036071598
-0.0046591279096901
-0.0040697553195059
-0.0037176688201725
-0.0035657561384141
-0.003553869202733
-0.0036106738261878
-0.0036643575876951
-0.0036494561936706
-0.003509615547955
-0.0032043843530118
-0.0027211867272853
-0.0020785280503332
-0.0013169520534574
-0.000489248894155
0.0003469809889793
0.0011377623304724
0.0018389378674328
0.0024160137400031
0.0028393869288265
0.0030787293799221
0.0030982508324086
0.0028523746877908
0.0022848923690617
0.0013405578210949
-1.2284144759178162e-05
-0.0017662248574197
-0.0038748257793486
-0.0062560369260609
-0.0087929097935557
-0.0113398730754852
-0.0137377893552184
-0.0158323403447866
-0.0174911823123693
-0.0186169166117906
-0.0191554669290781
-0.0191014464944601
-0.0184969417750835
-0.0174205396324396
-0.0159732922911643
-0.0142673905938863
-0.0124158132821321
-0.0105253905057907
-0.0086948331445455
-0.0070081008598208
-0.0055218385532498
-0.0042583555914461
-0.0032068453729152
-0.0023285951465368
-0.001566651277244
-0.00085853820201
-0.0001457460457459
0.0006215205066837
0.0014801799552515
0.0024482780136168
0.0035200656857341
0.0046692248433828
0.0058616553433239
0.0070661678910255
0.0082530379295349
0.0093877622857689
0.0104310307651758
0.0113426074385643
0.012080892920494
0.0125976055860519
0.0128343543037772
0.0127253578975796
0.0122068002820014
0.0112329674884676
0.0097941579297184
0.0079277921468019
0.0057194139808416
0.0032968129962682
0.0008196646813303
-0.0015401626005768
-0.0036266308743506
-0.0053221797570586
-0.0065574878826737
-0.0073105017654597
-0.0075987530872225
-0.0074711698107421
-0.0070014400407671
-0.0062802964821457
-0.0054065794683992
-0.0044777798466384
-0.0035805904772132
-0.0027836647350341
-0.0021320956293493
-0.0016390705714002
-0.0012777191586792
-0.0009863015729933
-0.0006887452909722
-0.0003163871588185
0.0001786828506737
0.0008196203853003
0.0016079249326139
0.0025278294924646
0.0035502784885466
0.0046384828165173
0.0057524777948856
0.0068512721918523
0.0078952638432383
0.0088499598205089
0.00969042442739
0.0104048056527972
0.0109928986057639
0.0114554353058338
0.0117780929431319
0.0119228856638073
0.0118322670459747
0.01144156511873
0.0106959845870733
0.0095681361854076
0.008071188814938
0.0062639433890581
0.0042458297684788
0.0021435287781059
9.462470188736916e-05
-0.0017667973879724
-0.0033223605714738
-0.0044791596010327
-0.0051763118244707
-0.0053941286168992
-0.0051658190786838
-0.00457827700302
-0.0037570395506918
-0.0028434935957193
-0.0019688818138092
-0.0012301162350922
-0.0006767660379409
-0.0003112582489848
-9.849388152360916e-05
1.94646418094635e-05
0.0001097209751605
0.0002391301095485
0.0004679262638092
0.0008452231995761
0.0014060395769774
0.0021649473346769
0.0031050569377839
0.0041737942956388
0.0052933190017938
0.0063797500915825
0.007360519375652
0.0081828124821186
0.0088122747838497
0.0092254402115941
0.0094012729823589
0.0093161845579743
0.0089439339935779
0.0082609355449676
0.0072551015764474
0.0059332596138119
0.0043251980096101
0.0024837600067257
0.0004796730354428
-0.0016046361997723
-0.0036781067028641
-0.0056436797603964
-0.007404054980725
-0.0088715814054012
-0.0099811498075723
-0.0107015930116176
-0.0110391797497868
-0.0110320784151554
-0.0107422824949026
-0.0102488230913877
-0.0096390061080455
-0.0089954175055027
-0.0083824880421161
-0.0078412629663944
-0.0073947170749306
-0.0070535810664296
-0.0068156719207763
-0.0066628027707338
-0.0065623288974165
-0.0064741703681647
-0.0063563818112015
-0.0061681452207267
-0.0058758547529578
-0.0054601500742137
-0.0049189389683306
-0.0042678066529333
-0.0035373629070818
-0.0027642166242003
-0.0019805720075964
-0.0012138485908508
-0.0004984075203537
0.0001127226278185
0.0005478048697113
0.0007278593257069
0.0005838014185428
7.434654980897903e-05
-0.0008009327575564
-0.0019992301240563
-0.0034431684762239
-0.0050334869883954
-0.0066622383892536
-0.008226660080254
-0.0096376230940222
-0.010820715688169
-0.0117160771042108
-0.0122819319367408
-0.0125039918348193
-0.0124024888500571
-0.012026316486299
-0.0114403311163187
-0.0107152881100773
-0.0099196005612611
-0.0091121224686503
-0.0083373244851827
-0.0076219895854592
-0.0069737727753818
-0.0063831685110926
-0.0058277593925595
-0.0052775954827666
-0.004701258148998
-0.0040689934976398
-0.003355102147907
-0.0025468622334301
-0.0016532412264496
-0.0007008517277427
0.0002792567538563
0.001261276891455
0.0022262120619416
0.003160448744893
0.0040565328672528
0.0049138353206217
0.0057347007095813
0.0065175164490938
0.0072497995570302
0.0079030711203813
0.0084338886663317
0.0087931519374251
0.00893628410995
0.0088268648833036
0.0084380684420466
0.0077593885362148
0.0068067563697695
0.0056280801072716
0.0042998008430004
0.002916362369433
0.0015779620734974
0.0003814154770225
-0.0005863131955265
-0.0012562607880681
-0.0015887471381574
-0.0015822136774659
-0.0012714662589132
-0.00071582198143
1.1974945664405824e-05
0.0008286908268928
0.0016415263526141
0.0023574773222208
0.0029001561924815
0.0032233819365501
0.0033161831088364
0.0032014928292483
0.0029316875152289
0.0025817879941314
0.0022384526673704
0.0019847734365612
0.0018857414834201
0.0019800020381808
0.0022801624145358
0.0027794085908681
0.0034561203792691
0.004270588979125
0.0051620593294501
0.0060564526356756
0.0068819080479443
0.0075833876617252
0.008130514062941
0.0085157696157693
0.0087445937097072
0.0088226050138473
0.0087455632165074
0.0084974523633718
0.0080575896427035
0.0074105528183281
0.0065552415326237
0.0055124526843428
0.0043248222209513
0.0030479410197585
0.0017414063913747
0.0004638596437871
-0.0007295662071555
-0.0017876792699098
-0.0026646191254258
-0.003325970377773
-0.0037564567755907
-0.0039643021300435
-0.0039794687181711
-0.0038446183316409
-0.0036035873927176
-0.0032938902731984
-0.0029426445253193
-0.0025636202190071
-0.0021606252994388
-0.0017380479257553
-0.001306916354224
-0.0008810616564005
-0.0004701372236013
-7.540429942309856e-05
0.000310669420287
0.0007025715894997
0.0011177898850291
0.0015698454808443
0.0020627761259675
0.0025924942456185
0.0031520463526248
0.003733665915206
0.0043282988481223
0.0049280454404652
0.0055262623354792
0.0061065601184964
0.006630246527493
0.0070385979488492
0.0072676548734307
0.0072628525085747
0.0069885347038507
0.0064337099902331
0.0056153554469347
0.0045780078507959
0.0033879308030009
0.0021229793783277
0.0008628327050246
-0.0003163400979246
-0.001343859359622
-0.0021564131602644
-0.0027047800831496
-0.002967125037685
-0.002958461176604
-0.0027259408961981
-0.0023350261617451
-0.0018573843408375
-0.0013624795246869
-0.0009099086164496
-0.0005422692047432
-0.0002805739641189
-0.0001243036240339
-5.4375152103602886e-05
-3.6924611777067184e-05
-3.0365888960659504e-05
6.2575563788414e-06
0.0001091710291802
0.0003062669420614
0.0006095627322793
0.0010101860389113
0.0014816797338426
0.0019876612350344
0.0024883383885025
0.0029463835526257
0.0033336873166263
0.0036352907773107
0.003846344538033
0.0039626499637961
0.0039702015928924
0.003841817844659
0.0035423641093075
0.0030383164994418
0.0023090867325663
0.001352465711534
0.0001795766875147
-0.0011885990388691
-0.0027153955306857
-0.0043433876708149
-0.0059975287877023
-0.0075921318493783
-0.0090389978140592
-0.0102589707821607
-0.011193823069334
-0.0118126440793275
-0.0121126603335142
-0.0121169537305831
-0.0118695329874753
-0.0114267878234386
-0.0108463466167449
-0.0101806353777647
-0.0094790458679199
-0.0087893540039658
-0.0081522557884454
-0.0075949472375214
-0.0071279341354966
-0.006744765676558
-0.0064253453165292
-0.006141185760498
-0.0058593433350324
-0.005545740481466
-0.0051696486771106
-0.0047085946425795
-0.0041529000736773
-0.0035075396299362
-0.002787351841107
-0.0020105354487895
-0.0011995878303423
-0.0003856359398923
0.0003928562509827
0.0010954674798995
0.0016831756802275
0.0021189253311604
0.0023673584219068
0.0023954641073942
0.0021785197313874
0.0017100905533879
0.0010070309508591
0.0001081186346709
-0.0009293251205235
-0.0020342492498457
-0.0031268182210624
-0.0041247005574405
-0.0049543445929884
-0.0055620139464735
-0.0059184106066823
-0.0060191135853528
-0.0058816215023398
-0.0055389329791069
-0.0050332262180745
-0.0044106603600084
-0.0037171551957726
-0.0029954365454614
-0.0022816783748567
-0.00160120613873
-0.0009656487964093
-0.0003720112144947
0.0001977826468646
0.0007717264816164
0.0013741035945713
0.0020152321085333
0.0026927129365503
0.0033967336639761
0.0041131982579827
0.0048259105533361
0.0055189034901559
0.0061775189824402
0.0067871054634451
0.0073335831984877
0.0078092548064887
0.0082180444151163
0.0085754860192537
0.0089057870209217
0.0092352647334337
0.0095776170492172
0.0099149933084845
0.0101904794573783
0.0103214289993047
0.0102242212742567
0.0098368013277649
0.0091324802488088
0.00812294986099
0.0068548740819096
0.0054046642035245
0.0038688424974679
0.0023497832007706
0.0009434600360691
-0.0002675359137356
-0.0012194290757179
-0.0018738922663033
-0.0022251741029322
-0.0023051886819303
-0.0021811313927173
-0.0019424650818109
-0.0016811741515994
-0.0014741900376975
-0.0013744328171014
-0.0014078919775784
-0.0015720482915639
-0.0018358696252107
-0.0021434859372675
-0.0024230531416833
-0.0026000016368925
-0.0026108007878065
-0.0024126358330249
-0.001985671930015
-0.0013317414559423
-0.0004765065386891
0.0005301078781485
0.0016233883798122
0.0027371887117624
0.0038124248385429
0.0048019848763942
0.0056756758131086
0.0064221881330013
0.0070446198806166
0.0075516109354794
0.0079452404752373
0.0082090124487876
0.0083054015412926
0.008184746839106
0.007798608392477
0.0071127745322883
0.0061161816120147
0.0048253312706947
0.0032869735732674
0.0015771784819662
-0.0002059913240373
-0.0019528896082192
-0.0035523071419447
-0.0049026394262909
-0.0059240227565169
-0.0065669687464833
-0.0068168025463819
-0.0066959620453417
-0.0062600127421319
-0.0055847615003585
-0.004751946311444
-0.003841167781502
-0.0029268260113894
-0.0020735361613333
-0.001328719779849
-0.0007168767042458
-0.0002377266064286
0.0001316275447607
0.0004295038525015
0.0006995724979788
0.0009833346121013
0.0013155215419828
0.0017193420790135
0.0022036479786038
0.0027642813511192
0.0033878015819936
0.0040564322844147
0.0047499644570052
0.0054405694827437
0.0060864593833684
0.0066322460770606
0.0070160804316401
0.0071778991259634
0.0070658102631568
0.006642744410783
0.0058939564041793
0.0048341159708797
0.003511005314067
0.0020014883484691
0.0004023013461846
-0.0011778648477047
-0.0026257343124598
-0.0038348729722201
-0.0047206953167915
-0.0052332878112792
-0.0053640287369489
-0.0051458179950714
-0.0046463157050311
-0.0039550508372485
-0.0031691577751189
-0.0023811080027371
-0.0016680117696523
-0.0010833968408405
-0.0006546020740643
-0.0003860606229864
-0.0002633855328895
-0.0002544604358263
-0.000310760049615
-0.0003721514949575
-0.0003777744132094
-0.0002838670043274
-7.794855628162622e-05
0.0002211999380961
0.0005752329016104
0.0009412632789462
0.0012829934712499
0.0015761440154165
0.0018105821218341
0.0019902472849935
0.0021298481151461
0.0022462913766503
0.0023461482487618
0.0024147583171725
0.0024124749470502
0.0022802599705755
0.0019497137982398
0.0013532692100852
0.0004374054260551
-0.0008220460731536
-0.0024082900490611
-0.0042601097375154
-0.0062780799344182
-0.0083375237882137
-0.0103047117590904
-0.012053444981575
-0.0134790772572159
-0.0145086785778403
-0.0151058239862322
-0.0152706410735845
-0.0150371491909027
-0.0144663834944367
-0.0136385280638933
-0.0126483999192714
-0.0115979788824915
-0.0105815278366208
-0.0096697695553302
-0.0089014032855629
-0.0082836458459496
-0.0077966516837477
-0.0073996521532535
-0.0070402887649834
-0.0066621657460927
-0.006206770427525
-0.0056174900382757
-0.0048499489203095
-0.0038794321008026
-0.0027013155631721
-0.0013321070000529
0.0001880037598311
0.0017985994927585
0.0034288757015019
0.005007728934288
0.0064709824509918
0.0077637871727347
0.0088359406217932
0.0096339769661426
0.0100988009944558
0.0101723130792379
0.009808724746108
0.0089858463034033
0.0077147334814071
0.006048577837646
0.0040881801396608
0.0019732285290956
-0.0001428127288818
-0.002118682488799
-0.0038393530994653
-0.0052198613993823
-0.0062066805548965
-0.0067786141298711
-0.006943373940885
-0.0067324927076697
-0.0061997873708605
-0.0054187159985303
-0.0044745216146111
-0.003456556238234
-0.0024522030726075
-0.0015346081927418
-0.0007403632625937
-4.930887371301651e-05
0.000613841228187
0.0013554897159337
0.0022852197289466
0.0034939651377499
0.0050367079675197
0.0069215535186231
0.0091087045148015
0.0115176793187856
0.0140379648655653
0.0165404863655567
0.0188904143869876
0.0209607370197772
0.0226460956037044
0.0238762274384498
0.0246244519948959
0.0249040909111499
0.024750780314207
0.0242008101195096
0.0232775136828422
0.021987771615386
0.020325519144535
0.0182794891297817
0.015843603760004
0.0130294254049658
0.0098780700936913
0.0064664930105209
0.0029044584371149
-0.0006755344802513
-0.0041290498338639
-0.0073092598468065
-0.0100775780156254
-0.0123186651617288
-0.0139595698565244
-0.0149831697344779
-0.0154270566999912
-0.0153717407956719
-0.0149259911850094
-0.0142116034403443
-0.0133483307436108
-0.0124426670372486
-0.0115815363824367
-0.0108268959447741
-0.0102101946249604
-0.0097306538373231
-0.009359149262309
-0.0090432288125157
-0.0087118158116936
-0.0082878274843096
-0.0077086049132049
-0.0069392970763146
-0.0059736929833889
-0.0048304023221135
-0.0035489900037646
-0.0021840021945536
-0.0007956356275826
0.0005589150823652
0.0018298183567821
0.002975448500365
0.0039603030309081
0.0047498270869255
0.0053067840635776
0.0055951145477592
0.0055875708349049
0.0052681751549243
0.0046298378147184
0.0036767616402357
0.0024351188912987
0.0009629293344914
-0.0006484761834144
-0.0022803749889135
-0.0037992889992892
-0.0050758221186697
-0.0060026398859918
-0.0065059717744588
-0.0065527828410267
-0.0061544892378151
-0.0053651551716029
-0.0042723035439848
-0.0029788685496896
-0.001585827441886
-0.0001881679199868
0.0011234084377065
0.0022683411370962
0.0031886962242424
0.0038621632847934
0.0043079233728349
0.0045804199762642
0.0047560525126755
0.0049165696837008
0.005129771772772
0.0054358942434191
0.0058462000451982
0.0063491472974419
0.0069189122878015
0.0075241392478346
0.0081329019740223
0.0087122227996587
0.0092259226366877
0.0096353981643915
0.0099043911322951
0.010003563016653
0.0099101550877094
0.0096037797629833
0.0090625137090682
0.0082620270550251
0.0071808416396379
0.0058130249381065
0.0041809868998825
0.0023397165350615
0.000373356975615
-0.0016114418394863
-0.0034963400103151
-0.0051681930199265
-0.0065361042506992
-0.0075401277281343
-0.0081522390246391
-0.0083760861307382
-0.0082469470798969
-0.0078280549496412
-0.0072020087391138
-0.0064606205560266
-0.0056956736370921
-0.004990798421204
-0.0044128354638814
-0.0040014833211898
-0.0037618824280798
-0.0036648213863372
-0.0036554057151079
-0.0036702258512377
-0.003655444830656
-0.0035736905410885
-0.0033994852565228
-0.0031135352328419
-0.002701926510781
-0.0021578189916908
-0.0014825705438852
-0.0006871214136481
0.00020616594702
0.0011638849973678
0.0021450975909829
0.0031054224818944
0.0040010344237089
0.004791953600943
0.0054376618936657
0.005883633159101
0.0060534477233886
0.0058594429865479
0.0052263475954532
0.0041134506464004
0.0025261575356125
0.000516265630722
-0.0018231235444545
-0.0043651442974805
-0.0069616381078958
-0.0094581767916679
-0.0117075536400079
-0.013583899475634
-0.014997161924839
-0.0159003846347332
-0.0162902139127254
-0.0162077900022268
-0.0157357025891542
-0.0149845890700817
-0.0140742007642984
-0.0131160439923405
-0.0121990125626325
-0.0113781001418828
-0.0106689129024744
-0.0100502371788024
-0.0094739980995655
-0.0088792433962225
-0.0082054892554879
-0.0074025583453476
-0.0064356680959463
-0.0052858665585517
-0.0039511695504188
-0.0024524996988475
-0.0008364395471289
0.0008332941215485
0.002488852944225
0.0040656691417098
0.0055063609033823
0.0067667076364159
0.0078220851719379
0.0086708683520555
0.0093304459005594
0.0098236426711082
0.0101644108071923
0.0103514790534973
0.0103676225990057
0.0101810060441493
0.0097467750310897
0.0090099405497312
0.0079166060313582
0.006433717906475
0.0045672664418816
0.002372152172029
-4.722899757325649e-05
-0.0025462280027568
-0.0049575460143387
-0.00711165741086
-0.0088572669774293
-0.0100821582600474
-0.0107288500294089
-0.0107977446168661
-0.0103384293615818
-0.0094352103769779
-0.0081955399364233
-0.0067438306286931
-0.0052120964974164
-0.0037251086905598
-0.0023856637999415
-0.0012624168302863
-0.0003834331873804
0.0002630623057484
0.000722903991118
0.0010649387259036
0.0013662631390616
0.0016982612432911
0.002115165349096
0.0026473333127796
0.0033022547140717
0.004070705268532
0.0049304571002721
0.0058450936339795
0.0067654158920049
0.0076385904103517
0.0084205633029341
0.0090845357626676
0.0096222227439284
0.0100407088175416
0.0103572756052017
0.0105905290693044
0.0107508171349763
0.0108360238373279
0.0108312033116817
0.0107087437063455
0.0104326978325843
0.009968752041459
0.0092923231422901
0.008391317911446
0.0072694877162575
0.0059517412446439
0.004486883059144
0.0029459940269589
0.0014161962317302
-9.220118954544889e-06
-0.0012419135309755
-0.0022098866757005
-0.0028682926204055
-0.0032064279075711
-0.0032472657039761
-0.0030391574837267
-0.0026438287459313
-0.0021258778870105
-0.0015470205107703
-0.0009647457627579
-0.0004302276938688
1.7455779016017914e-05
0.0003569883992895
0.0005868252483196
0.0007238475955091
0.000799189787358
0.0008519670809619
0.0009227599948644
0.0010477526811882
0.001255456241779
0.0015672636218369
0.0019974461756646
0.0025515761226415
0.0032276036217808
0.0040150759741663
0.0048886449076235
0.0058053648099303
0.0067114336416125
0.0075508165173232
0.0082663269713521
0.0087944818660616
0.0090657519176602
0.0090143773704767
0.0085909739136695
0.007774488069117
0.0065812212415039
0.0050661070272326
0.0033196914009749
0.0014659417793154
-0.0003467369824647
-0.0019686166197061
-0.0032777735032141
-0.0042012082412838
-0.0047215018421411
-0.0048707448877394
-0.0047181942500174
-0.004355460871011
-0.0038789077661931
-0.0033732131123542
-0.0028978581540286
-0.0024701887741684
-0.0020451950840651
-0.0015028454363346
-0.0006530694663524
0.0007365774363279
0.0028925035148859
0.0059758927673101
0.0100254463031888
0.0149153629317879
0.0203418135643005
0.0258490853011608
0.0308984257280826
0.0349631905555725
0.0376201868057251
0.0386147946119308
0.0378913693130016
0.0355831272900104
0.0319568999111652
0.0273250080645084
0.0219568647444248
0.0160288009792566
0.0096280016005039
0.0027911681681871
-0.004446106031537
-0.012002782896161
-0.0197238400578498
-0.0273803230375051
-0.0346952900290489
-0.0413833186030387
-0.0471908375620842
-0.0519305765628814
-0.0555052384734153
-0.057920292019844
-0.0592919401824474
-0.0598487257957458
-0.0599151737987995
-0.059871632605791
-0.0601018220186233
-0.0609491243958473
-0.0626845508813858
-0.0654685124754905
-0.0692986845970153
-0.0739581435918808
-0.0789953768253326
-0.083769604563713
-0.0875619128346443
-0.0897142440080642
-0.0897506177425384
-0.0874474793672561
-0.0828415676951408
-0.0761893689632415
-0.0679019168019294
-0.0584700778126716
-0.0483930818736553
-0.0381269194185733
-0.0280579663813114
-0.0184893906116485
-0.0096299462020397
-0.0015889927744865
0.0056157633662223
0.0120401419699192
0.017790500074625
0.0229971334338188
0.0277873985469341
0.0322658196091651
0.0365042015910148
0.0405399650335311
0.0443786084651947
0.0479979068040847
0.0513556860387325
0.0543961897492408
0.0570487827062606
0.0592289082705974
0.0608528293669223
0.0618606805801391
0.0622358545660972
0.062012992799282
0.061272993683815
0.0601309388875961
0.0587229132652282
0.0571899749338626
0.055659357458353
0.0542314276099205
0.0529758520424366
0.051932007074356
0.0511092692613601
0.05048368871212
0.0499937571585178
0.0495477952063083
0.0490463897585868
0.0484060384333133
0.0475720092654228
0.0465211570262908
0.0452608205378055
0.0438265316188335
0.0422762185335159
0.0406793877482414
0.0391036570072174
0.0376022160053253
0.0362068526446819
0.0349300689995288
0.0337735973298549
0.032732930034399
0.0317930877208709
0.0309259966015815
0.030096985399723
0.0292728096246719
0.028424184769392
0.0275262184441089
0.0265586301684379
0.0255019590258598
0.0243303943425416
0.0230065099895
0.0214820429682731
0.0197049714624881
0.0176292397081851
0.0152271576225757
0.0125038288533687
0.0095024090260267
0.0062942970544099
0.0029667145572602
-0.0003822315484285
-0.0036485879682004
-0.0067328559234738
-0.0095477355644106
-0.0120220445096492
-0.0141060082241892
-0.0157761983573436
-0.0170390419661998
-0.0179333388805389
-0.0185269080102443
-0.0189053546637296
-0.0191570557653903
-0.0193594172596931
-0.0195714067667722
-0.0198330357670784
-0.020166527479887
-0.0205762833356857
-0.0210493598133325
-0.0215575397014617
-0.0220614969730377
-0.0225164983421564
-0.0228778664022684
-0.0231078527867794
-0.0231829043477773
-0.0230953451246023
-0.0228508077561855
-0.0224659107625484
-0.0219634920358657
-0.0213665571063756
-0.0207035802304744
-0.0200262796133756
-0.0194187499582767
-0.0189875848591327
-0.0188429206609725
-0.0190764293074607
-0.0197405256330966
-0.0208368822932243
-0.022316126152873
-0.024085059762001
-0.0260181743651628
-0.0279718711972236
-0.0297997426241636
-0.0313660800457
-0.0325551740825176
-0.0332769863307476
-0.0334756001830101
-0.0331407710909843
-0.0323111489415168
-0.0310655627399683
-0.0295096617192029
-0.0277621448040008
-0.0259413588792085
-0.0241520665585994
-0.0224729031324386
-0.0209475271403789
-0.0195831134915351
-0.0183562356978654
-0.0172214210033416
-0.0161199700087308
-0.014988662675023
-0.0137668466195464
-0.0124054690822958
-0.0108797764405608
-0.0091968877241015
-0.0073927585035562
-0.0055222557857632
-0.0036459064576774
-0.0018182606436312
-8.378829807043076e-05
0.0015201377682387
0.0029562418349087
0.004179997369647
0.0051374891772866
0.0057696998119354
0.0060210456140339
0.0058538801968097
0.0052672033198177
0.0043057389557361
0.0030503589659929
0.001602002303116
7.414990977849811e-05
-0.0014101437991485
-0.0027271290309727
-0.0037660170346498
-0.0044413628056645
-0.0047023268416523
-0.0045385966077446
-0.0039807730354368
-0.0030936934053897
-0.0019641569815576
-0.0006849472410976
0.0006611673161387
0.0020114574581384
0.0033224746584892
0.0045612812973558
0.0057012261822819
0.006727541796863
