bvp
-0.0327237620949745
-0.0319958515465259
-0.0312842950224876
-0.0305979698896408
-0.0299384035170078
-0.0293022394180297
-0.0286747924983501
-0.0280157793313264
-0.0272484235465526
-0.0262626186013221
-0.0249308682978153
-0.0231305658817291
-0.0207683965563774
-0.0178027004003524
-0.0142571087926626
-0.0102224200963974
-0.005854433402419
-0.0013723336160182
0.002949645742774
0.0068013854324817
0.0098680853843688
0.0118772704154253
0.0126508474349975
0.0121365673840045
0.0104041546583175
0.0076142102479934
0.003979530185461
-0.0002658739686012
-0.0048882570117712
-0.0096726696938276
-0.0144362337887287
-0.0190266408026218
-0.0233121197670698
-0.0271809939295053
-0.0305548384785652
-0.0334029346704483
-0.0357437580823898
-0.0376285947859287
-0.0391174592077732
-0.0402643419802188
-0.0411160923540592
-0.0417127646505832
-0.0420816391706466
-0.0422317385673522
-0.0421568863093853
-0.0418451502919197
-0.0412796512246131
-0.0404138267040252
-0.0391275212168693
-0.0371997542679309
-0.0343485251069068
-0.0303774625062942
-0.0253761112689971
-0.0198100004345178
-0.0144036831334233
-0.0098987305536866
-0.0068306564353406
-0.005409634206444
-0.005518798250705
-0.0067968624643981
-0.0087579013779759
-0.0109160728752613
-0.0128904227167367
-0.0144610526040196
-0.0155662214383482
-0.0162601359188556
-0.01665660738945
-0.0168739035725593
-0.0169908627867698
-0.0170189924538135
-0.0168943684548139
-0.0164945069700479
-0.0156756155192852
-0.0143138691782951
-0.0123359691351652
-0.0097349844872951
-0.0065738931298255
-0.0029804483056068
0.0008626021444797
0.0047323293983936
0.0083903335034847
0.011616189032793
0.0142396818846464
0.0161592792719602
0.0173433367162942
0.0178243648260831
0.0176935233175754
0.0170924793928861
0.0162022784352302
0.0152296014130115
0.0143867880105972
0.0138664692640304
0.0138181410729885
0.0143337994813919
0.0154436193406581
0.0171183384954929
0.0192777961492538
0.0218078792095184
0.0245826877653598
0.0274797957390546
0.0303828697651624
0.0331825166940689
0.035782016813755
0.0381008312106132
0.0400722250342369
0.0416404940187931
0.0427636615931987
0.0434196516871452
0.0436091534793376
0.043355755507946
0.0427082553505897
0.0417447201907634
0.0405737645924091
0.0393294878304004
0.0381584763526916
0.0371966063976287
0.0365395471453666
0.0362222269177436
0.0362168811261653
0.0364446528255939
0.0367934443056583
0.0371377170085907
0.0373564213514328
0.0373471155762672
0.0370371900498867
0.0363931097090244
0.0354253649711608
0.0341855064034462
0.0327532403171062
0.0312179867178201
0.0296663362532854
0.0281763765960931
0.0268112793564796
0.0256152153015136
0.0246153883635997
0.0238240137696266
0.0232362933456897
0.0228273924440145
0.0225516706705093
0.0223423708230257
0.0221087783575058
0.0217353701591491
0.0210901536047458
0.0200399458408355
0.0184643063694238
0.0162695385515689
0.013407259248197
0.009886004962027
0.0057670837268233
0.0011579886777326
-0.0037887212820351
-0.0088812289759516
-0.0139030423015356
-0.0186327509582042
-0.0228690411895513
-0.026456406340003
-0.0293020904064178
-0.0313801206648349
-0.0327240191400051
-0.0334106273949146
-0.0335377566516399
-0.0332023501396179
-0.0324865914881229
-0.0314562208950519
-0.0301683563739061
-0.0286775380373001
-0.0270338244736194
-0.0252796672284603
-0.023450955748558
-0.021577576175332
-0.0196831561625003
-0.0177898202091455
-0.0159237086772918
-0.014113949611783
-0.012388608418405
-0.0107747483998537
-0.0093036806210875
-0.008016113191843
-0.0069620083086192
-0.006198245100677
-0.0057889162562787
-0.005801850464195
-0.0062922821380198
-0.0072793713770806
-0.0087305754423141
-0.0105610853061079
-0.0126456022262573
-0.0148357097059488
-0.0169767513871192
-0.0189227350056171
-0.0205501727759838
-0.0217693205922842
-0.0225299261510372
-0.0228193197399377
-0.0226551368832588
-0.0220814775675535
-0.0211719814687967
-0.0200294349342584
-0.0187713466584682
-0.0175080839544534
-0.0163283962756395
-0.0152933802455663
-0.0144327571615576
-0.0137436091899871
-0.0131915668025612
-0.0127156935632228
-0.0122399991378188
-0.0116870906203985
-0.0109886536374688
-0.0100920191034674
-0.008962407708168
-0.0075862188823521
-0.0059799463488161
-0.0041979574598371
-0.0023339455947279
-0.0005168165080249
0.0011006731074303
0.0023613302037119
0.0031283935531973
0.0033113402314484
0.0028853502590209
0.0018975688144564
0.0004590293392539
-0.0012735752388834
-0.0031206714920699
-0.0049004047177731
-0.0064435955137014
-0.0076084956526756
-0.0082974731922149
-0.0084658078849315
-0.0081167239695787
-0.0072907647117972
-0.0060584861785173
-0.0045141447335481
-0.0027645817026495
-0.0009148018434643
0.0009444914758205
0.0027442146092653
0.0044397753663361
0.0060118054971098
0.0074648885056376
0.0088261645287275
0.0101435957476496
0.0114746270701289
0.0128643251955509
0.0143292164430022
0.0158562306314706
0.0174092501401901
0.0189336910843849
0.0203581601381301
0.0215989723801612
0.0225682854652404
0.0231809504330158
0.0233620442450046
0.0230593606829643
0.0222569033503532
0.020983375608921
0.0193155817687511
0.0173770133405923
0.0153248002752661
0.0133238434791564
0.0115235261619091
0.0100467046722769
0.0089847240597009
0.0083938753232359
0.008291863836348
0.0086525231599807
0.0094033433124423
0.0104306731373071
0.0115924468263983
0.0127379465848207
0.0137298526242375
0.0144606987014412
0.0148634435608983
0.0149194318801164
0.0146577721461653
0.0141412718221545
0.0134490886703133
0.012664396315813
0.0118653066456317
0.0111182872205972
0.0104743279516696
0.0099677294492721
0.009616351686418
0.0094200717285275
0.009357183240354
0.0093808621168136
0.0094182910397648
0.0093776630237698
0.0091650728136301
0.0087031088769435
0.0079383924603462
0.0068363668397068
0.0053767599165439
0.0035610031336545
0.0014261547476053
-0.0009512621909379
-0.003467964939773
-0.0060101924464106
-0.0084637384861707
-0.0107233421877026
-0.0127038210630416
-0.0143481828272342
-0.0156325548887252
-0.0165686998516321
-0.0171999353915452
-0.0175888296216726
-0.0178044307976961
-0.0179152898490428
-0.017984677106142
-0.018064048141241
-0.0181860420852899
-0.018361747264862
-0.0185842737555503
-0.0188343245536088
-0.0190841853618621
-0.0193005986511707
-0.0194481331855058
-0.019494030624628
-0.0194121822714805
-0.0191824957728385
-0.0187851712107658
-0.0181950293481349
-0.0173854585736989
-0.0163437686860561
-0.0150859747081995
-0.0136594027280807
-0.0121341915801167
-0.0105950972065329
-0.0091399513185024
-0.0078759836032986
-0.0069052372127771
-0.006307085044682
-0.0061302157118916
-0.0063924556598067
-0.0070810797624289
-0.0081534329801797
-0.0095391497015953
-0.0111437477171421
-0.012861231341958
-0.0145989656448364
-0.0162974875420331
-0.0179310142993927
-0.0194943007081747
-0.0209845378994941
-0.022382827475667
-0.0236411020159721
-0.0246803387999534
-0.0254032127559185
-0.0257168877869844
-0.0255511347204446
-0.0248608477413654
-0.0236173700541257
-0.0217975918203592
-0.0193787887692451
-0.0163491256535053
-0.0127307521179318
-0.0085929967463016
-0.0040456382557749
0.0007738689891994
0.0057107843458652
0.0106032444164156
0.0152913909405469
0.0196240898221731
0.0234658382833004
0.0267079584300518
0.0292822271585464
0.0311676412820816
0.0323862209916114
0.0329958461225032
0.0330866649746894
0.0327748693525791
0.0321896150708198
0.0314611941576004
0.0307146254926919
0.0300637241452932
0.029602725058794
0.0293961074203252
0.0294702313840389
0.0298101864755153
0.0303622782230377
0.031044166535139
0.0317630693316459
0.0324354022741317
0.0330024510622024
0.0334450416266918
0.0337970070540905
0.0341447107493877
0.0346037074923515
0.035282913595438
0.0362512469291687
0.0375134237110614
0.0390001125633716
0.04057527333498
0.0420563146471977
0.043242834508419
0.0439492240548133
0.0440318025648593
0.0434030592441558
0.0420314110815525
0.0399300307035446
0.0371433906257152
0.0337370708584785
0.0297841019928455
0.0253445841372013
0.0204558670520782
0.0151453949511051
0.0094531737267971
0.0034479312598705
-0.0027646347880363
-0.0090392529964447
-0.0151978880167007
-0.0210490971803665
-0.0264141093939542
-0.0311483368277549
-0.0351539626717567
-0.0383868291974067
-0.0408585108816623
-0.0426351316273212
-0.0438395738601684
-0.0446546003222465
-0.0453111231327056
-0.046053759753704
-0.0470956079661846
-0.0485817492008209
-0.0505710765719413
-0.0530334413051605
-0.0558574348688125
-0.0588677898049354
-0.0618514567613601
-0.0645875036716461
-0.0668737441301345
-0.0685467422008514
-0.0694936290383338
-0.0696565508842468
-0.0690397024154663
-0.0677206069231033
-0.065848596394062
-0.0636209994554519
-0.0612459555268287
-0.0589067600667476
-0.0567404478788375
-0.0548317953944206
-0.0532136410474777
-0.0518695563077926
-0.0507397651672363
-0.0497295297682285
-0.0487204492092132
-0.0475847013294696
-0.0461967438459396
-0.044439859688282
-0.0422150753438472
-0.0394560769200325
-0.0361420698463916
-0.0323004275560379
-0.02799853682518
-0.0233332253992557
-0.0184214413166046
-0.0133847296237945
-0.0083300583064556
-0.0033401418477296
0.0015253573656082
0.0062262043356895
0.0107392258942127
0.015055464580655
0.0191756803542375
0.0231048539280891
0.0268448218703269
0.0303870998322963
0.0337131805717945
0.036802127957344
0.0396366342902183
0.0422048680484294
0.044500783085823
0.0465216375887393
0.048263419419527
0.0497203357517719
0.0508880913257598
0.0517666265368461
0.0523635372519493
0.0526987202465534
0.052805908024311
0.0527268722653389
0.0524977594614028
0.0521339476108551
0.0516229830682277
0.0509292632341384
0.0500068478286266
0.0488147512078285
0.0473319739103317
0.0455695800483226
0.0435730516910553
0.0414136759936809
0.0391775518655777
0.0369571149349212
0.0348414070904254
0.03290356695652
0.0311913173645734
0.0297253262251615
0.0285004060715436
0.0274840425699949
0.026620477437973
0.0258460119366645
0.0251047648489475
0.0243542529642581
0.0235625933855772
0.0227053947746753
0.0217660330235958
0.020736988633871
0.0196214187890291
0.0184349250048398
0.0172052793204784
0.0159705001860857
0.0147772962227463
0.0136768110096454
0.0127130290493369
0.0119070895016193
0.0112448846921324
0.0106726242229342
0.0101039912551641
0.0094385594129562
0.0085864067077636
0.0074920076876878
0.006149360910058
0.00460437964648
0.0029463749378919
0.0012917504645884
-0.0002369992434978
-0.0015320397214964
-0.0025134533643722
-0.003134380094707
-0.0033876043744385
-0.0033147057984024
-0.0030046962201595
-0.0025758296251296
-0.0021493812091648
-0.001826255582273
-0.0016704984009265
-0.0017014872282743
-0.0018955143168568
-0.0021944176405668
-0.0025186575949192
-0.002781506627798
-0.0029031513258814
-0.0028258273378014
-0.0025249682366847
-0.0020112805068492
-0.001329431310296
-0.0005581602454185
0.0001954138278961
0.0008143242448568
0.0011954810470342
0.0012644287198781
0.0009793024510145
0.0003307089209556
-0.0006601810455322
-0.0019445214420557
-0.0034504514187574
-0.0050920713692903
-0.0067807398736476
-0.0084351971745491
-0.009989658370614
-0.0113983880728483
-0.0126385074108839
-0.0137136988341808
-0.0146520845592021
-0.0154952444136142
-0.0162888038903474
-0.0170804671943187
-0.0179207883775234
-0.0188645552843809
-0.019971340894699
-0.0213020797818899
-0.0229148641228675
-0.0248619318008422
-0.0271835923194885
-0.0298979487270116
-0.0329903662204742
-0.0364112854003906
-0.0400915741920471
-0.0439675711095333
-0.0479910224676132
-0.052111804485321
-0.0562478005886077
-0.0602645277976989
-0.0639772117137909
-0.0671729892492294
-0.0696434155106544
-0.0712190046906471
-0.0717963948845863
-0.0713485479354858
-0.0699192062020301
-0.0676106289029121
-0.0645668655633926
-0.0609506517648696
-0.0569237954914569
-0.0526401996612548
-0.0482443273067474
-0.0438640750944614
-0.0395997427403926
-0.035519141703844
-0.0316611863672733
-0.0280405953526496
-0.0246514342725276
-0.021474028006196
-0.0184833519160747
-0.0156532153487205
-0.0129547864198684
-0.0103515200316905
-0.0077950730919837
-0.0052258372306823
-0.0025813989341259
0.0001855082809925
0.0030878894031047
0.0060942433774471
0.009128388017416
0.0120773091912269
0.0148085579276084
0.017196200788021
0.0191470608115196
0.0206191726028919
0.0216293446719646
0.0222506448626518
0.0226010382175445
0.0228251293301582
0.0230749100446701
0.0234965309500694
0.0242236964404582
0.0253709629178047
0.0270201787352561
0.0292001515626907
0.0318720936775207
0.0349366813898086
0.0382631421089172
0.0417247489094734
0.0452217683196067
0.0486832931637764
0.0520561225712299
0.0552924871444702
0.0583402216434478
0.0611366629600524
0.0636082664132118
0.0656763687729835
0.0672656968235969
0.068311795592308
0.0687699690461158
0.0686283707618713
0.0679189562797546
0.0667181462049484
0.065134659409523
0.0632896348834037
0.0612988956272602
0.0592604205012321
0.057245634496212
0.0552967935800552
0.0534299723803997
0.0516364648938179
0.0498792752623558
0.0480918884277343
0.0461827479302883
0.0440422855317592
0.0415555573999881
0.0386221557855606
0.0351777859032154
0.0312123429030179
0.0267787687480449
0.0219877604395151
0.0169923696666955
0.0119703449308872
0.0071065737865865
0.0025758743286132
-0.0014724787324666
-0.0049275774508714
-0.0077247377485036
-0.0098489671945571
-0.0113387741148471
-0.0122858099639415
-0.0128208436071872
-0.0130900777876377
-0.0132334940135478
-0.0133696524426341
-0.0135859139263629
-0.0139330886304378
-0.014424530789256
-0.0150404190644621
-0.0157358292490243
-0.016449624672532
-0.0171141363680362
-0.0176651626825332
-0.0180475823581218
-0.0182158928364515
-0.0181388761848211
-0.017813192680478
-0.0172719694674015
-0.0165754314512014
-0.0157922636717557
-0.0149861611425876
-0.0142103899270296
-0.0135064153000712
-0.0129030244424939
-0.0124160200357437
-0.012053620070219
-0.0118299229070544
-0.0117802955210208
-0.0119683258235454
-0.0124757979065179
-0.0133785586804151
-0.0147245805710554
-0.0165235996246337
-0.0187418330460786
-0.021298449486494
-0.024067785590887
-0.02688829600811
-0.0295775942504405
-0.031952366232872
-0.0338483676314353
-0.0351366102695465
-0.0357360690832138
-0.0356242284178733
-0.034841701388359
-0.0334837473928928
-0.0316817238926887
-0.0295843183994293
-0.0273430272936821
-0.0251015219837427
-0.0229845810681581
-0.021083939820528
-0.0194455832242965
-0.0180655624717474
-0.0168978385627269
-0.0158697869628667
-0.0148960947990417
-0.0138886924833059
-0.0127685647457838
-0.0114785693585872
-0.0099896546453237
-0.0082999654114246
-0.0064295423217117
-0.0044116266071796
-0.0022871601395308
-0.0001071328297257
0.0020644222386181
0.0041519957594573
0.0060687726363539
0.0077134710736572
0.0089722499251365
0.0097301648929715
0.009887802414596
0.0093799494206905
0.0081950984895229
0.0063893175683915
0.0040862169116735
0.0014622192829847
-0.001273714704439
-0.0038986783474683
-0.006198582239449
-0.0079959016293287
-0.0091677932068705
-0.0096503347158432
-0.009438557550311
-0.0085856756195425
-0.0071983700618147
-0.0054250909015536
-0.0034370180219411
-0.0014066461008042
0.0005108735058456
0.0021931594237685
0.003562793135643
0.0045944522134959
0.0053156050853431
0.0057991482317447
0.0061448533087968
0.0064539089798927
0.0068099210038781
0.0072732693515717
0.0078831361606717
0.0086588384583592
0.0095991045236587
0.0106825521215796
0.0118717476725578
0.0131209371611475
0.0143825020641088
0.0156069323420524
0.0167370978742837
0.0176995247602462
0.0183977410197258
0.0187146198004484
0.0185217075049877
0.0176920965313911
0.0161228366196155
0.013765076175332
0.0106470007449388
0.0068805832415819
0.0026537489611655
-0.0017896257340908
-0.0061790999025106
-0.0102479923516511
-0.013757643289864
-0.016517287120223
-0.0184015315026044
-0.0193605981767177
-0.0194179415702819
-0.0186588373035192
-0.0172203760594129
-0.0152844386175274
-0.0130630163475871
-0.0107721230015158
-0.0086026731878519
-0.0066962959244847
-0.0051306709647178
-0.0039172549732029
-0.0030102198943495
-0.0023224265314638
-0.0017448277212679
-0.0011652177199721
-0.0004826500080525
0.0003828261978924
0.0014852848835289
0.0028520734049379
0.0044820606708526
0.0063417763449251
0.0083651104941964
0.0104612847790122
0.0125299654901027
0.0144763831049203
0.0162206646054983
0.0176988616585731
0.0188519954681396
0.0196084044873714
0.0198740661144256
0.0195385366678237
0.0184954106807708
0.0166716538369655
0.0140567952767014
0.010721867904067
0.0068183061666786
0.0025574080646038
-0.0018162665655836
-0.006048166193068
-0.0098931789398193
-0.0131329447031021
-0.015593072399497
-0.0171592757105827
-0.0177884455770254
-0.0175123568624258
-0.016433909535408
-0.0147154135629534
-0.0125585431233048
-0.0101786367595195
-0.0077776652760803
-0.0055195726454257
-0.0035151340998709
-0.001821213401854
-0.0004477188922464
0.0006360206753015
0.001495243050158
0.0022199212107807
0.0029094112105667
0.0036558036226779
0.0045324047096073
0.0055881380103528
0.0068443152122199
0.0082929600030183
0.0098986830562353
0.0116053540259599
0.0133473966270685
0.0150624923408031
0.016697434708476
0.01820177026093
0.0195147059857845
0.0205537155270576
0.0212096441537141
0.0213515385985374
0.0208426937460899
0.0195652395486831
0.0174468364566564
0.0144835067912936
0.0107529396191239
0.006414009258151
0.001694347243756
-0.0031320741400122
-0.0077754333615303
-0.0119596552103757
-0.0154468500986695
-0.0180609971284866
-0.0197082869708538
-0.0203854087740182
-0.0201718807220459
-0.0192102473229169
-0.0176837053149938
-0.0157962348312139
-0.0137525461614131
-0.0117373522371053
-0.0098975654691457
-0.0083304326981306
-0.007078512571752
-0.0061306455172598
-0.0054280729964375
-0.0048755020834505
-0.0043580532073974
-0.0037624975666403
-0.0029957899823784
-0.0019965409301221
-0.0007403205381706
0.0007612069603055
0.002465967554599
0.0043094968423247
0.006215670146048
0.0081081949174404
0.0099189151078462
0.0115910591557621
0.013075603172183
0.0143204061314463
0.015257797203958
0.0158004611730575
0.0158465672284364
0.0152890542522072
0.0140340402722358
0.0120312273502349
0.0093041267246007
0.0059641827829182
0.0022031092084944
-0.0017289542593061
-0.0055515803396701
-0.00898661557585
-0.0117897605523467
-0.0137743633240461
-0.0148279573768377
-0.0149228386580944
-0.0141163356602191
-0.0125395487993955
-0.0103811509907245
-0.0078692827373743
-0.0052472981624305
-0.0027441219426691
-0.0005461359396576
0.0012242095544934
0.0025192783214151
0.0033636251464486
0.0038389624096453
0.0040618744678795
0.0041618188843131
0.0042653391137719
0.004484936594963
0.0049083605408668
0.0055913245305418
0.0065575148910284
0.007799251936376
0.0092734806239604
0.0109014185145497
0.0125787081196904
0.0141891445964574
0.0156104238703846
0.0167110618203878
0.0173494331538677
0.0173826441168785
0.0166858062148094
0.0151783656328916
0.0128498934209346
0.0097764106467366
0.0061198249459266
0.0021112989634275
-0.0019732005894184
-0.0058442782610654
-0.009236560203135
-0.0119394250214099
-0.0138135915622115
-0.014797581359744
-0.0149071495980024
-0.0142285637557506
-0.0129056051373481
-0.0111212562769651
-0.0090768355876207
-0.0069700414314866
-0.0049740392714738
-0.0032204110175371
-0.0017880480736494
-0.0007000267505645
7.26412981748581e-05
0.0006000250577926
0.0009730905294418
0.0012829639017581
0.0016093887388706
0.0020152535289525
0.0025421157479286
0.0032080188393592
0.0040088891983032
0.0049219895154237
0.0059109758585691
0.0069329608231782
0.0079430527985095
0.0088898595422506
0.0097042862325906
0.0102914441376924
0.0105319488793611
0.0102902837097644
0.0094278417527675
0.0078258141875267
0.005416976287961
0.002211794257164
-0.0016918089240789
-0.0061136577278375
-0.0108079202473163
-0.0154893239960074
-0.0198654681444168
-0.0236703846603631
-0.0266941450536251
-0.0288024228066205
-0.0299428105354309
-0.0301397331058979
-0.0294824820011854
-0.0281123891472816
-0.0262114033102989
-0.0239862315356731
-0.021643916144967
-0.0193645767867565
-0.0172806996852159
-0.0154674323275685
-0.0139425238594412
-0.0126739181578159
-0.0115936957299709
-0.0106161125004291
-0.0096550192683935
-0.0086345802992582
-0.0074929408729076
-0.0061841364949941
-0.004680628888309
-0.0029784003272652
-0.0011045020073652
0.0008828500285744
0.0029068868607282
0.0048871170729398
0.0067457007244229
0.0084058353677392
0.0097868582233786
0.0107980370521545
0.0113361785188317
0.011296016164124
0.0105914995074272
0.0091764703392982
0.007060089148581
0.004318761639297
0.001100743189454
-0.0023866640403866
-0.0059071481227874
-0.0092271883040666
-0.0121386060491204
-0.014473688788712
-0.016116727143526
-0.0170112941414117
-0.0171602740883827
-0.0166194140911102
-0.0154885575175285
-0.0138997044414281
-0.0120000708848238
-0.0099348165094852
-0.0078334920108318
-0.0057991342619061
-0.0038996217772364
-0.0021661198697984
-0.0005997495027258
0.0008200574666261
0.0021275780163705
0.0033624228090047
0.0045628775842487
0.0057617756538093
0.0069845458492636
0.0082486327737569
0.0095636108890175
0.0109305530786514
0.0123391281813383
0.0137663139030337
0.0151807386428117
0.0165493078529834
0.0178397204726934
0.0190141331404447
0.0200164839625358
0.0207647457718849
0.0211562309414148
0.0210834518074989
0.020453292876482
0.0192054025828838
0.0173287168145179
0.014872670173645
0.0119479764252901
0.0087143443524837
0.0053599094972014
0.0020814544986933
-0.0009311591275036
-0.0035070518497377
-0.0055051958188414
-0.006828679703176
-0.0074409814551472
-0.0073752384632825
-0.006730256602168
-0.005653022788465
-0.0043122852221131
-0.0028720719274133
-0.0014723951462656
-0.0002186582423746
0.0008223147597163
0.0016227192245423
0.0021916306577622
0.0025685881264507
0.0028130114078521
0.0029935110360383
0.003180555999279
0.0034377849660813
0.0038085123524069
0.0043065850622951
0.0049181124195456
0.0056100273504853
0.0063403258100152
0.0070660039782524
0.0077475681900978
0.0083528319373726
0.0088604697957634
0.0092581436038017
0.0095316534861922
0.0096514578908681
0.0095661524683237
0.009207597002387
0.0085057551041245
0.0074039413593709
0.0058688074350357
0.0038981665857136
0.0015285657718777
-0.0011592186056077
-0.0040414007380604
-0.0069633931852877
-0.0097586456686258
-0.0122666042298078
-0.0143490582704544
-0.0159048959612846
-0.0168778523802757
-0.017256673425436
-0.0170750766992568
-0.0164101496338844
-0.0153703484684228
-0.0140772070735692
-0.0126519845798611
-0.0112078431993722
-0.0098409950733184
-0.0086192060261964
-0.0075751962140202
-0.0067095486447215
-0.0059957010671496
-0.005383332259953
-0.0048060058616101
-0.0041937995702028
-0.0034856186248362
-0.0026376496534794
-0.0016268658218905
-0.000450126157375
0.0008790054125711
0.0023318980820477
0.0038645043969154
0.0054204780608415
0.0069388756528496
0.0083599779754877
0.0096257403492927
0.0106777632609009
0.011457328684628
0.0119103929027915
0.0119964005425572
0.0116973249241709
0.011024048551917
0.0100184120237827
0.0087510626763105
0.0073171439580619
0.0058301929384469
0.004410577006638
0.0031683258712291
0.002188058104366
0.0015220763161778
0.001190596143715
0.0011852850439026
0.0014738487079739
0.0020052965264767
0.0027159119490534
0.0035349898971617
0.0043896771967411
0.0052114292047917
0.0059447735548019
0.0065545719116926
0.0070299310609698
0.0073828734457492
0.0076389648020267
0.0078257285058498
0.0079680085182189
0.0080884769558906
0.0082062380388379
0.0083342343568801
0.0084791444242
0.0086419861763715
0.0088176149874925
0.0089959176257252
0.0091648232191801
0.0093109859153628
0.0094185024499893
0.0094676651060581
0.0094318883493542
0.0092753013595938
0.0089527852833271
0.0084105534479022
0.0075931539759039
0.006459672935307
0.0049999393522739
0.0032422179356217
0.0012506544589996
-0.0008828174322843
-0.0030474690720438
-0.0051253074780106
-0.0070054112002253
-0.0085974428802728
-0.0098412865772843
-0.0107102375477552
-0.0112079661339521
-0.0113628264516592
-0.0112237315624952
-0.0108588431030511
-0.0103524271398782
-0.0097955456003546
-0.0092721134424209
-0.0088446177542209
-0.0085446313023567
-0.0083736423403024
-0.0083123631775379
-0.0083279591053724
-0.008376439101994
-0.0084074959158897
-0.0083736013621091
-0.0082395318895578
-0.0079871611669659
-0.007611921057105
-0.0071198511868715
-0.0065327566117048
-0.0058897072449326
-0.0052368994802236
-0.0046160006895661
-0.0040602684020996
-0.0035953978076577
-0.0032407958060503
-0.0030140979215502
-0.0029371846467256
-0.003035900183022
-0.0033347029238939
-0.0038522845134139
-0.0045960592105984
-0.0055526839569211
-0.0066808648407459
-0.0079159084707498
-0.0091848522424697
-0.0104199890047311
-0.0115635320544242
-0.0125666288658976
-0.0133878458291292
-0.0139937978237867
-0.0143616991117596
-0.0144808907061815
-0.0143533069640398
-0.0139948381111025
-0.0134354652836918
-0.0127167291939258
-0.011887963861227
-0.0109995221719145
-0.0100926309823989
-0.0091943256556987
-0.0083215544000267
-0.0074853403493762
-0.0066896528005599
-0.0059301992878317
-0.0051955883391201
-0.0044684787280857
-0.0037283720448613
-0.0029571205377578
-0.0021439816337078
-0.0012892778031527
-0.0004038074985146
0.0004969900473952
0.00139692844823
0.0022809654474258
0.0031408320646733
0.003976768348366
0.0047875316813588
0.0055590532720088
0.0062619629316031
0.0068545807152986
0.0072873486205935
0.0075106751173734
0.007486336864531
0.0071968790143728
0.0066495877690613
0.0058770617470145
0.0049353102222085
0.0038969633169472
0.0028403631877154
0.0018415777012705
0.0009716427884995
0.0002909433096647
-0.0001623979769647
-0.0003798454999923
-0.0003781323321163
-0.0001891637220978
0.0001470460556447
0.0005846517160534
0.0010740025900304
0.0015667066909372
0.0020222044549882
0.0024131564423441
0.0027286005206406
0.002974250819534
0.0031692781485617
0.0033413739874958
0.0035225693136453
0.0037429463118314
0.0040206490084528
0.0043562636710703
0.004736331757158
0.0051406985148787
0.0055493242107331
0.0059465542435646
0.0063212937675416
0.0066652912646532
0.0069722430780529
0.0072370958514511
0.0074552386067807
0.0076231453567743
0.0077399024739861
0.0078073111362755
0.0078288912773132
0.0078059388324618
0.0077279200777411
0.0075654694810509
0.0072745834477245
0.0068082842044532
0.0061305086128413
0.0052289962768554
0.0041221380233764
0.0028582741506397
0.0015098825097084
0.0001632720232009
-0.0010954104363918
-0.0021926937624812
-0.0030741831287741
-0.0037047285586595
-0.0040665697306394
-0.0041617462411522
-0.0040174387395381
-0.0036858404055237
-0.0032360348850488
-0.002741951495409
-0.0022706119343638
-0.0018734764307737
-0.0015820693224668
-0.0014062039554119
-0.0013332124799489
-0.0013306001201272
-0.0013518836349248
-0.0013424502685666
-0.0012464234605431
-0.001013315282762
-0.0006009377539157
1.8268823623657227e-05
0.0008430480957031
0.0018362971022725
0.0029349932447075
0.0040674870833754
0.0051685404032468
0.0061899409629404
0.007105590775609
0.0079094562679529
0.0086076594889163
0.0092094661667943
0.0097205499187111
0.0101386336609721
0.0104519482702016
0.0106437467038631
0.0107019264250993
0.0106235919520258
0.0104103367775678
0.0100635644048452
0.0095870895311236
0.0089945830404758
0.0083145266398787
0.0075887930579483
0.006868545897305
0.0062090745195746
0.0056613646447658
0.005264014005661
0.005038782954216
0.0049869827926158
0.0050884969532489
0.0053081768564879
0.0056063160300254
0.0059441528283059
0.006280998699367
0.0065715610980987
0.0067723365500569
0.0068536633625626
0.0068079633638262
0.0066495686769485
0.0064085419289767
0.0061228894628584
0.0058305733837187
0.0055625126697123
0.0053391959518194
0.0051700812764465
0.0050539523363113
0.0049817971885204
0.0049418839626014
0.0049211108125746
0.004900150001049
0.0048493067733943
0.0047304071485996
0.0045018862001597
0.0041232579387724
0.0035585961304605
0.0027800546959042
0.0017722407355904
0.000536847859621
-0.0009054271504282
-0.0025166668929159
-0.0042445682920515
-0.0060251960530877
-0.0077855261042714
-0.0094457361847162
-0.0109279230237007
-0.0121737709268927
-0.0131562538444995
-0.0138759007677435
-0.0143503248691558
-0.014606038108468
-0.0146755184978246
-0.0145982429385185
-0.0144196525216102
-0.0141855431720614
-0.0139374937862157
-0.0137112820520997
-0.01353304926306
-0.0134128015488386
-0.013339027762413
-0.0132779814302921
-0.0131838964298367
-0.0130180586129426
-0.0127605916932225
-0.0124077573418617
-0.0119652142748236
-0.0114441756159067
-0.0108583513647317
-0.0102210687473416
-0.0095434570685029
-0.0088336076587438
-0.0080979838967323
-0.0073441211134195
-0.0065816724672913
-0.0058243470266461
-0.0050928192213177
-0.0044140149839222
-0.0038215671665966
-0.0033616037108004
-0.0030940496362745
-0.0030815496575087
-0.0033725253306329
-0.0039882445707917
-0.0049155941233038
-0.0061049591749906
-0.0074750869534909
-0.008923596702516
-0.0103397695347666
-0.0116173448041081
-0.0126650389283895
-0.013413006439805
-0.0138138141483068
-0.0138405300676822
-0.0134905539453029
-0.0127950049936771
-0.0118195675313472
-0.0106511591002345
-0.0093812365084886
-0.0080945380032062
-0.0068597141653299
-0.0057196822017431
-0.0046890703961253
-0.0037599438801407
-0.0029084375128149
-0.0021006865426898
-0.0012996923178434
-0.0004718750715255
0.0004093330353498
0.0013644602149724
0.0024081300944089
0.0035431291908025
0.004755325615406
0.0060171354562044
0.0072955386713147
0.0085568074136972
0.0097679533064365
0.0108993435278534
0.0119268549606204
0.0128297908231616
0.013586726039648
0.014171733520925
0.0145507818087935
0.0146814221516251
0.0145191717892885
0.0140285156667232
0.013192193582654
0.0120144933462142
0.0105214063078165
0.0087621342390775
0.0068095857277512
0.0047562727704644
0.002708769403398
0.0007815770804882
-0.0009138192981481
-0.0022825207561254
-0.0032573193311691
-0.0038061793893575
-0.0039354469627141
-0.0036888662725687
-0.0031409487128257
-0.0023820120841264
-0.0015031080693006
-0.0005906373262405
0.0002760868519544
0.0010326616466045
0.0016383323818445
0.0020796582102775
0.0023687109351158
0.002537552267313
0.0026307217776775
0.002698179334402
0.0027909055352211
0.0029579456895589
0.0032409522682428
0.0036664102226495
0.0042432062327861
0.0049691256135702
0.0058357259258627
0.0068238703534007
0.0078997779637575
0.009018781594932
0.0101296016946434
0.0111732799559831
0.0120802465826272
0.0127710998058319
0.0131620857864618
0.0131749957799911
0.0127502158284187
0.0118598248809576
0.0105190146714448
0.0087917344644665
0.0067875022068619
0.004652539268136
0.0025542583316564
0.000656590797007
-0.0009033642709255
-0.0020269323140382
-0.0026573343202471
-0.0027813920751214
-0.0024295719340443
-0.0016709445044398
-0.0006020031869411
0.0006680088117718
0.0020308904349803
0.0033886600285768
0.0046596601605415
0.0057846186682581
0.006731616333127
0.0074983756057918
0.0081090237945318
0.0086037646979093
0.009027250111103
0.0094214519485831
0.0098228473216295
0.0102614657953381
0.0107601853087544
0.0113332979381084
0.0119833638891577
0.0126983309164643
0.0134538020938634
0.0142195541411638
0.0149621441960334
0.0156402997672557
0.0161995254456996
0.0165712721645832
0.0166737809777259
0.0164154842495918
0.0157084465026855
0.0144896572455763
0.0127407349646091
0.0104999421164393
0.007863350212574
0.0049751158803701
0.0020099482499063
-0.0008475403301417
-0.0034228824079036
-0.0055694845505058
-0.007183039560914
-0.0082115037366747
-0.0086568016558885
-0.0085680680349469
-0.0080349612981081
-0.0071825510822236
-0.0061587099917232
-0.0051127499900758
-0.0041731167584657
-0.0034309811890125
-0.0029340484179556
-0.00268838647753
-0.0026625581085681
-0.002795479260385
-0.0030093058012425
-0.0032217600382864
-0.0033563398756086
-0.0033532488159835
-0.0031777555122971
-0.0028201695531606
-0.0022915713489055
-0.0016227858141064
-0.0008625108748674
-6.963033229112625e-05
0.0006957165896892
0.0013771932572126
0.0019204672425985
0.0022658184170722
0.0023431545123457
0.0020752418786287
0.0013864915817975
0.000213960185647
-0.0014774166047573
-0.0036786803975701
-0.0063279056921601
-0.009310464374721
-0.012470836751163
-0.0156347900629043
-0.0186308529227972
-0.0213045235723257
-0.02352792955935
-0.0252074692398309
-0.0262892507016658
-0.0267630480229854
-0.0266631692647933
-0.0260611809790134
-0.0250526573508977
-0.0237457454204559
-0.0222523547708988
-0.020679023116827
-0.0191170610487461
-0.0176321137696504
-0.0162586085498332
-0.0150047186762094
-0.0138604771345853
-0.012800988741219
-0.0117879705503582
-0.0107753230258822
-0.0097183566540479
-0.0085812965407967
-0.0073412950150668
-0.0059908293187618
-0.0045375078916549
-0.0030011276248842
-0.0014104261063039
0.000200601760298
0.0017986674793064
0.0033567808568477
0.0048503591679036
0.0062410277314484
0.0074621085077524
0.0084193544462323
0.0090047726407647
0.0091147311031818
0.0086670331656932
0.0076169203966856
0.0059712887741625
0.0037961029447615
0.0012135854922235
-0.0016095703467726
-0.0044796746224164
-0.0071960166096687
-0.0095697622746229
-0.0114396270364522
-0.012687194161117
-0.0132524706423282
-0.0131421126425266
-0.0124242259189486
-0.0112126087769865
-0.0096472296863794
-0.0078744394704699
-0.0060302293859422
-0.0042302487418055
-0.0025635021738708
-0.0010862252674996
0.0001820074394345
0.0012575848959386
0.0021855926606804
0.0030284784734249
0.0038560691755264
0.0047347708605229
0.0057146060280501
0.006820582319051
0.0080511011183261
0.0093809645622968
0.010767612606287
0.0121598578989505
0.0135069172829389
0.014764554798603
0.0158980619162321
0.0168840009719133
0.0177102666348218
0.0183722786605358
0.0188652873039245
0.0191759802401065
0.0192761942744255
0.0191183760762214
0.0186348333954811
0.017747750505805
0.0163895040750503
0.0145229389891028
0.0121553558856248
0.0093464041128754
0.0062074186280369
0.0028903831262141
-0.0004286002367734
-0.0035668755881488
-0.0063530313782393
-0.0086451666429638
-0.0103465486317873
-0.0114110941067337
-0.0118402661755681
-0.0116819944232702
-0.0110306348651647
-0.0100181400775909
-0.0087964246049523
-0.0075168740004301
-0.0063090142793953
-0.0052634882740676
-0.0044260406866669
-0.0037994515150785
-0.0033484287559986
-0.0030091614462435
-0.0027036098763346
-0.0023543229326605
-0.0018963203765451
-0.0012824544683098
-0.0004815701395273
0.0005216728895902
0.001718821702525
0.0030708406120538
0.0045135184191167
0.005973438732326
0.0073851775377988
0.0087009221315383
0.0098894787952303
0.0109290387481451
0.0117992646992206
0.0124732302501797
0.0129116084426641
0.0130645520985126
0.0128807295113801
0.012321351096034
0.0113768121227622
0.0100757963955402
0.0084809670224785
0.0066803009249269
0.0047821989282965
0.0029098943341523
0.0011889389716088
-0.0002684721839614
-0.0013740595895797
-0.0020684674382209
-0.0023257883731275
-0.0021566110663115
-0.0016060224734246
-0.0007496499456465
0.000312932417728
0.0014745824737474
0.0026401183567941
0.0037337788380682
0.0046977209858596
0.0054944553412497
0.006111788097769
0.0065624085254967
0.0068776011466979
0.0070989280939102
0.0072717759758234
0.0074409623630344
0.0076454249210655
0.0079120397567749
0.0082523506134748
0.0086631095036864
0.0091282734647393
0.0096239708364009
0.0101265832781791
0.0106137990951538
0.0110534001141786
0.0113921854645013
0.0115566439926624
0.0114633422344923
0.0110330274328589
0.0102033941075205
0.0089378412812948
0.0072333645075559
0.0051285363733768
0.0027048271149396
7.854588329792023e-05
-0.0026121018454432
-0.0052218623459339
-0.007611708715558
-0.0096572283655405
-0.0112585350871086
-0.0123563222587108
-0.012942774221301
-0.0130586251616477
-0.0127832628786563
-0.0122239645570516
-0.0115021169185638
-0.0107358684763312
-0.0100240251049399
-0.0094366334378719
-0.009012272581458
-0.0087590776383876
-0.0086590973660349
-0.0086740832775831
-0.008748953230679
-0.0088163763284683
-0.0088095497339963
-0.0086790397763252
-0.0084016630426049
-0.0079795625060796
-0.0074358331039547
-0.006807742640376
-0.0061379903927445
-0.0054685641080141
-0.0048367045819759
-0.0042714299634099
-0.0037928940728306
-0.0034137684851884
-0.0031430814415216
-0.0029940363019704
-0.0029903389513492
-0.0031653232872486
-0.0035565197467803
-0.0042010368779301
-0.0051298756152391
-0.0063569415360689
-0.0078663015738129
-0.0096053835004568
-0.0114883230999112
-0.013407751917839
-0.015248785726726
-0.0169008132070302
-0.018267948180437
-0.0192781724035739
-0.0198881402611732
-0.0200827494263649
-0.0198715031147003
-0.0192851182073354
-0.0183759853243827
-0.0172197688370943
-0.0159091912209987
-0.0145386885851621
-0.0131897227838635
-0.0119234323501586
-0.010776825249195
-0.009758953936398
-0.008851864375174
-0.0080179786309599
-0.0072083268314599
-0.006371553055942
-0.0054658986628055
-0.0044683562591671
-0.0033745046239346
-0.0021908052731305
-0.000929060159251
0.0003903096076101
0.0017344781663268
0.003064070129767
0.0043427515774965
0.0055402810685336
0.0066307545639574
0.0075921374373137
0.0084057711064815
0.0090527571737766
0.009509821422398
0.0097481338307261
0.009736344218254
0.0094484444707632
0.0088748028501868
0.0080313757061958
0.0069598462432622
0.0057182433083653
0.0043727797456085
0.002995177404955
0.0016588544240221
0.0004342296160757
-0.0006132833659648
-0.0014265491627156
-0.0019631311297416
-0.0022016349248588
-0.0021450263448059
-0.0018197763711214
-0.0012731146998703
-0.0005682352930307
0.0002267803065478
0.0010528159327805
0.001864246558398
0.0026226821355521
0.0032939398661255
0.0038550877943634
0.0043022567406296
0.0046497979201376
0.004923284985125
0.0051532858051359
0.0053703966550529
0.005601255223155
0.0058669503778219
0.0061812615022063
0.0065474482253193
