bvp
-0.0044617052190005
-0.0039051128551363
-0.0033097749110311
-0.0026227510534226
-0.0018062104936689
-0.0008452958427369
0.0002463739365339
0.0014249626547098
0.0026240325532853
0.0037698592059314
0.0047985655255615
0.0056722904555499
0.0063889170996844
0.0069770091213285
0.0074770334176719
0.0079226400703191
0.0083340909332036
0.0087247714400291
0.0091118961572647
0.0095185860991477
0.0099633494392037
0.0104463836178183
0.0109426164999604
0.0114015163853764
0.0117508815601468
0.0119041269645094
0.0117703238502144
0.0112713482230901
0.0103666968643665
0.0090687088668346
0.0074363658204674
0.0055607743561267
0.0035583181306719
0.0015708468854427
-0.0002387342974543
-0.0016943765804171
-0.0025909710675477
-0.0026362100616097
-0.0013788091018795
0.0018015429377555
0.0075574945658445
0.0162954851984977
0.0278923604637384
0.0415488481521606
0.0558131374418735
0.0687621012330055
0.0783429443836212
0.0828037783503532
0.0810525491833686
0.0728321447968483
0.0587065927684307
0.0399187915027141
0.0181895196437835
-0.0045350492000579
-0.0264035258442163
-0.0459349900484085
-0.0621517747640609
-0.0746383368968963
-0.08351431787014
-0.0892487838864326
-0.0923867970705032
-0.0933263748884201
-0.0922674164175987
-0.0893249958753585
-0.0846670791506767
-0.078582651913166
-0.0714794695377349
-0.0638528615236282
-0.0562475025653839
-0.0491922162473201
-0.0431157499551773
-0.0382981821894645
-0.0348736271262168
-0.0328456051647663
-0.0320947468280792
-0.0323914214968681
-0.03342130407691
-0.0348182022571563
-0.0361942872405052
-0.0371614396572113
-0.0373493582010269
-0.0364342853426933
-0.0341853983700275
-0.0305282641202211
-0.0256367046386003
-0.0200222972780466
-0.0144880972802639
-0.0098960045725107
-0.006913152989
-0.0058740777894854
-0.0067356899380683
-0.0090929558500647
-0.0122534614056348
-0.0153596196323633
-0.0175450574606657
-0.0180945564061403
-0.0165618974715471
-0.0128225926309823
-0.0070745348930358
0.0001913979649543
0.0082559268921613
0.0162902995944023
0.023512864485383
0.0293292980641126
0.0334085188806057
0.0356812439858913
0.0362887904047966
0.0355282686650753
0.0338116511702537
0.0316164828836917
0.0294146724045276
0.0276020914316177
0.0264544785022735
0.0261155311018228
0.0266118869185447
0.0278803333640098
0.0297916624695062
0.0321677438914775
0.0347960293292999
0.0374470762908458
0.0398982241749763
0.0419578850269317
0.0434834361076355
0.0443923994898796
0.0446672141551971
0.0443470440804958
0.0435012988746166
0.0421964302659034
0.040475632995367
0.038359697908163
0.0358652994036674
0.0330321043729782
0.0299482271075248
0.0267600733786821
0.0236567072570323
0.0208350382745265
0.0184628348797559
0.0166532974690198
0.0154559295624494
0.0148610239848494
0.0148112876340746
0.0152128441259264
0.015945266932249
0.0168781392276287
0.017891302704811
0.0188866704702377
0.0197881162166595
0.0205361414700746
0.0210858657956123
0.0214092079550027
0.0214912686496973
0.0213159956037998
0.020853079855442
0.0200601145625114
0.0189026724547147
0.01738110370934
0.0155429486185312
0.0134715167805552
0.011264999397099
0.0090253110975027
0.006858286447823
0.0048733474686741
0.0031764796003699
0.0018588099628686
0.0009830156341195
0.0005713999271392
0.0006028553470969
0.0010206904262304
0.0017430838197469
0.0026700515300035
0.0036923177540302
0.0047058518975973
0.0056237038224935
0.0063751619309186
0.0068956296890974
0.0071206726133823
0.006990697234869
0.0064616370946168
0.005513334646821
0.0041496008634567
0.0023908056318759
0.0002666562795639
-0.002184372395277
-0.0049111973494291
-0.007847711443901
-0.0109140519052743
-0.0140212196856737
-0.0170764811336994
-0.0199885033071041
-0.022677319124341
-0.0250883661210536
-0.0271988008171319
-0.0290120337158441
-0.0305484496057033
-0.0318372771143913
-0.0329039916396141
-0.0337470024824142
-0.0343169830739498
-0.0345228016376495
-0.0342664159834384
-0.0334869474172592
-0.0321910940110683
-0.0304576400667428
-0.0284212511032819
-0.0262480489909648
-0.0241126678884029
-0.022181574255228
-0.0205991212278604
-0.0194729249924421
-0.0188636798411607
-0.0187829714268445
-0.0191958490759134
-0.020025335252285
-0.0211592391133308
-0.022461898624897
-0.023792028427124
-0.0250193271785974
-0.0260344576090574
-0.0267592780292034
-0.0271590892225503
-0.0272472444921731
-0.0270810928195714
-0.0267552956938743
-0.0263904631137847
-0.026113323867321
-0.0260307677090168
-0.0262050852179527
-0.0266394987702369
-0.027278609573841
-0.0280216485261917
-0.028742928057909
-0.0293131656944751
-0.0296173281967639
-0.0295687597244977
-0.0291183814406394
-0.0282546877861022
-0.0269958078861236
-0.0253826193511486
-0.0234773941338062
-0.0213616136461496
-0.0191282220184803
-0.0168709717690944
-0.0146723259240388
-0.0125921135768294
-0.0106631927192211
-0.0088940691202878
-0.0072718663141131
-0.0057652220129966
-0.0043308129534125
-0.0029225060716271
-0.0014990493655204
-2.5957822799682617e-05
0.0015271846204996
0.0031851064413785
0.0049592824652791
0.0068432418629527
0.0088141243904829
0.010838040150702
0.0128785828128457
0.014905210584402
0.0168950725346803
0.0188279375433921
0.020680671557784
0.0224249958992004
0.024026270955801
0.025442037731409
0.026625407859683
0.0275366641581058
0.0281564947217702
0.0284914541989564
0.0285683330148458
0.0284244176000356
0.0281040389090776
0.0276600196957588
0.0271508023142814
0.0266330707818269
0.0261557176709175
0.0257559549063444
0.0254555866122245
0.0252583362162113
0.0251517873257398
0.0251130815595388
0.0251126680523157
0.0251165181398391
0.0250907056033611
0.0250043924897909
0.0248270686715841
0.024526322260499
0.0240721683949232
0.0234450418502092
0.0226426199078559
0.0216819737106561
0.0205963235348463
0.0194300040602684
0.0182335823774337
0.0170588325709104
0.0159537978470325
0.0149574754759669
0.014095265418291
0.0133782960474491
0.0128068905323743
0.0123727805912494
0.0120564382523298
0.0118244998157024
0.0116325495764613
0.011432634666562
0.0111822951585054
0.0108503270894289
0.0104165952652692
0.0098681608214974
0.0091946478933095
0.0083847837522625
0.007427173666656
0.0063162497244775
0.0050588250160217
0.0036793742328882
0.0022254441864788
0.0007653986103832
-0.0006269034929573
-0.0018873335793614
-0.0029659951105713
-0.0038266656920313
-0.0044450918212533
-0.0048042428679764
-0.004888642579317
-0.0046817790716886
-0.0041667721234261
-0.0033298975322395
-0.0021699955686926
-0.0007110181031748
0.0009943037293851
0.0028752842918038
0.0048559694550931
0.0068537481129169
0.008772793225944
0.0105093559250235
0.0119605669751763
0.0130260344594717
0.0136089250445365
0.0136202741414308
0.0129853235557675
0.0116555914282798
0.0096251051872968
0.0069410493597388
0.0037040188908576
5.839299410581589e-05
-0.003826277796179
-0.0077756103128194
-0.011622967198491
-0.0152172232046723
-0.0184337832033634
-0.0211865529417991
-0.023434080183506
-0.0251775495707988
-0.0264521315693855
-0.0273148044943809
-0.0278325676918029
-0.0280744843184947
-0.0281063057482242
-0.0279835816472768
-0.0277444273233413
-0.0274067111313343
-0.0269691012799739
-0.0264135990291833
-0.0257098115980625
-0.0248226784169673
-0.0237256940454244
-0.0224133376032114
-0.0209032781422138
-0.0192302465438842
-0.0174386426806449
-0.0155772129073739
-0.0136945955455303
-0.0118338316679
-0.0100272139534354
-0.008293455466628
-0.0066386745311319
-0.0050603221170604
-0.0035507031716406
-0.0020989100448787
-0.0006905521731823
0.0006905000773258
0.0020526677835732
0.0033878101967275
0.0046735052019357
0.0058820927515625
0.0069866199046373
0.0079628992825746
0.0087936706840991
0.0094744451344013
0.0100146289914846
0.010431838221848
0.010743704624474
0.0109621351584792
0.0110892560333013
0.0111152026802301
0.011022163555026
0.0107896067202091
0.0103951152414083
0.0098181888461112
0.0090483650565147
0.0080893477424979
0.0069584650918841
0.0056876530870795
0.0043266387656331
0.0029409776907414
0.0016028662212193
0.0003819498233497
-0.0006605990929529
-0.0014774198643863
-0.002040522173047
-0.0023427745327353
-0.0023914396297186
-0.0022016945295035
-0.0017985199810937
-0.0012187531683593
-0.0005036816000938
0.0003162784269079
0.001241834135726
0.0023274070117622
0.0036919801495969
0.0055010938085615
0.0079376474022865
0.0112033952027559
0.0155428620055317
0.0212270282208919
0.0284696426242589
0.0373194925487041
0.0475791171193122
0.0587646476924419
0.0701173394918441
0.0806864276528358
0.0894725918769836
0.0955839902162551
0.098365381360054
0.0974844321608543
0.0929585024714469
0.0851171687245369
0.0745227485895156
0.0618695691227912
0.0478737838566303
0.033178512006998
0.0183024145662784
0.0036383420228958
-0.0105161517858505
-0.0239240154623985
-0.0363870300352573
-0.0477351061999797
-0.0578193329274654
-0.0665118098258972
-0.0737142115831375
-0.079368345439434
-0.0834656506776809
-0.0860555917024612
-0.0872509703040123
-0.0872267633676529
-0.0862072482705116
-0.0844410732388496
-0.0821718052029609
-0.079610638320446
-0.0769149214029312
-0.0741799250245094
-0.0714465901255607
-0.0687167197465896
-0.0659669488668441
-0.0631599947810173
-0.0602546446025371
-0.0572148859500885
-0.0540178939700126
-0.0506601631641387
-0.0471595302224159
-0.0435541048645973
-0.0399013943970203
-0.0362752974033355
-0.0327587090432643
-0.0294334292411804
-0.0263690762221813
-0.0236168820410966
-0.0212127361446619
-0.0191795211285352
-0.0175167024135589
-0.0161821655929088
-0.0150836035609245
-0.0140908807516098
-0.0130640994757413
-0.0118816113099455
-0.0104579832404851
-0.0087527260184288
-0.0067728757858276
-0.0045692659914493
-0.0022254940122365
0.0001585204154253
0.0024841763079166
0.0046687349677085
0.0066550131887197
0.0084177497774362
0.0099653974175453
0.0113358721137046
0.012590903788805
0.0138113610446453
0.0150887630879879
0.0165110863745212
0.0181480199098587
0.0200396366417408
0.0221859421581029
0.024534773081541
0.0269766021519899
0.0293588154017925
0.0315164923667907
0.0332992821931839
0.0345828458666801
0.0352766141295433
0.0353378057479858
0.0347830653190612
0.033687237650156
0.0321712829172611
0.030386596918106
0.0284969136118888
0.0266567878425121
0.0249908100813627
0.0235811881721019
0.0224664155393838
0.0216490048915147
0.0211113952100276
0.0208321884274482
0.0207895413041114
0.0209542512893676
0.0212862230837345
0.0217390619218349
0.0222684033215045
0.0228385441005229
0.0234259292483329
0.0240186154842376
0.0246083512902259
0.025176653638482
0.0256842821836471
0.0260743033140897
0.0262884311378002
0.0262845642864704
0.0260471329092979
0.0255907177925109
0.0249553527683019
0.0241923574358224
0.0233490746468305
0.022461062297225
0.0215492919087409
0.0206169486045837
0.0196474883705377
0.0186090283095836
0.0174641013145446
0.0161805264651775
0.0147434175014495
0.0131677677854895
0.0115038529038429
0.0098298424854874
0.0082383761182427
0.0068243080750107
0.005671052262187
0.0048359958454966
0.0043428409844636
0.0041833827272057
0.0043238056823611
0.004711439833045
0.0052813496440649
0.0059631066396832
0.0066876807250082
0.0073935696855187
0.0080305384472012
0.0085594709962606
0.0089487191289663
0.0091713909059762
0.0092092705890536
0.0090621951967477
0.0087521392852067
0.0083163203671574
0.0077990172430872
0.0072513306513428
0.0067335460335016
0.0063098613172769
0.0060350382700562
0.0059409141540527
0.0060282358899712
0.0062639694660902
0.0065817618742585
0.0068843397311866
0.0070516923442482
0.0069570848718285
0.0064869094640016
0.0055602481588721
0.0041398759931325
0.0022285571321845
-0.0001387372612953
-0.0028937086462974
-0.0059283738955855
-0.0090957405045628
-0.0122225768864154
-0.0151292122900486
-0.01764945872128
-0.0196481458842754
-0.0210351683199405
-0.0217739827930927
-0.0218832809478044
-0.0214317496865987
-0.0205264613032341
-0.019296271726489
-0.0178767088800668
-0.0164022054523229
-0.0150016024708747
-0.0137923983857035
-0.0128739615902304
-0.0123208025470376
-0.0121769625693559
-0.012451846152544
-0.0131212677806615
-0.0141364959999918
-0.015433419495821
-0.0169349610805511
-0.0185526721179485
-0.0201942026615142
-0.0217732694000005
-0.0232161283493042
-0.0244679879397153
-0.025502186268568
-0.0263227373361587
-0.0269552916288375
-0.0274349171668291
-0.0277986414730548
-0.028081189841032
-0.028309267014265
-0.0284954383969306
-0.02863410115242
-0.0286995656788349
-0.0286479108035564
-0.028423236683011
-0.0279652532190084
-0.0272173192352056
-0.0261356085538864
-0.0246977619826793
-0.0229101125150918
-0.0208113379776477
-0.0184669531881809
-0.015954989939928
-0.0133517999202013
-0.0107241971418261
-0.008125253021717
-0.0055899322032928
-0.0031334748491644
-0.0007557130884379
0.001552345464006
0.0038036340847611
0.0060100238770246
0.0081742610782384
0.010281529277563
0.0122930500656366
0.0141386371105909
0.0157093554735183
0.0168569590896368
0.0174085889011621
0.0172049887478351
0.0161528754979372
0.0142643777653574
0.0116644315421581
0.0085650030523538
0.0052209929563105
0.0018898451235145
-0.0011933767236769
-0.0038283807225525
-0.005857687909156
-0.0071740048006176
-0.0077270520851016
-0.0075288610532879
-0.006651559844613
-0.0052140755578875
-0.0033619441092014
-0.0012453095987439
0.001000084914267
0.0032653734087944
0.0054731406271457
0.007572955917567
0.0095309112221002
0.0113210380077362
0.0129244225099682
0.0143340406939387
0.015558848157525
0.0166230183094739
0.0175592005252838
0.0184014737606048
0.0191850233823061
0.0199473910033702
0.0207226015627384
0.0215287543833255
0.0223554801195859
0.0231577940285205
0.0238585211336612
0.0243563987314701
0.0245382636785507
0.0242950655519962
0.0235372800379991
0.0222068950533866
0.0202913600951433
0.0178394243121147
0.0149631462991237
0.0118182906880974
0.0085782352834939
0.0054156179539859
0.0024898292031139
-6.482144817709923e-05
-0.0021469893399626
-0.0036901410203427
-0.004663554020226
-0.0050749904476106
-0.0049738381057977
-0.004451367072761
-0.0036346323322504
-0.0026745260693132
-0.0017266109352931
-0.0009245674591511
-0.0003594430163502
-7.68046302255243e-05
-8.342709043063223e-05
-0.0003517792501952
-0.0008228734368458
-0.0014111520722508
-0.0020149950869381
-0.0025351380463689
-0.0028960336931049
-0.0030607325024902
-0.0030310368165373
-0.0028313915245234
-0.0024866084568202
-0.0020075915381312
-0.0013887345558032
-0.0006112221162766
0.0003485674969851
0.0015044547617435
0.0028469255194067
0.004336301703006
0.0059004784561693
0.007436606567353
0.0088187493383884
0.0099100284278392
0.0105779021978378
0.0107143763452768
0.0102561134845018
0.0091938376426696
0.0075677242130041
0.0054530352354049
0.0029446920379996
0.0001499196514487
-0.0028128293342888
-0.0058174943551421
-0.008737170137465
-0.0114497896283864
-0.0138426823541522
-0.0158188380300998
-0.0173066928982734
-0.0182711146771907
-0.0187194198369979
-0.0187007635831832
-0.0183045230805873
-0.0176556296646595
-0.0168962031602859
-0.0161560848355293
-0.0155263748019933
-0.0150433965027332
-0.0146886017173528
-0.0144073348492383
-0.0141322612762451
-0.0137958824634552
-0.0133338626474142
-0.0126856798306107
-0.0117961559444665
-0.0106216929852962
-0.0091392192989587
-0.0073511246591806
-0.0052850190550088
-0.0029915259219706
-0.0005425839917734
0.0019699693657457
0.0044388361275196
0.0067501114681363
0.0087924217805266
0.0104639353230595
0.011681905016303
0.0123956073075532
0.012596002779901
0.0123186912387609
0.0116408932954072
0.0106718149036169
0.0095373783260583
0.0083640683442354
0.0072638252750039
0.0063184555619955
0.0055676996707916
0.0050079328939318
0.004602797795087
0.0043005067855119
0.0040452913381159
0.0037780525162816
0.0034385803155601
0.0029744217172265
0.0023479079827666
0.0015379171818494
0.0005384478718042
-0.0006429203785955
-0.0019835650455206
-0.0034407214261591
-0.004945773165673
-0.0064043486490845
-0.0077055091969668
-0.0087366625666618
-0.009398465976119
-0.009616358205676
-0.0093509061262011
-0.0086065484210848
-0.0074307303875684
-0.0059026977978646
-0.0041210977360606
-0.0021947603672742
-0.0002355992328375
0.0016489881090819
0.0033666293602436
0.004848388954997
0.0060493457131087
0.0069448151625692
0.0075269108638167
0.0078008323907852
0.0077818790450692
0.0074956314638257
0.0069759702309966
0.0062568662688136
0.0053663197904825
0.0043276268988847
0.0031602983362972
0.0018766708672046
0.0004812884144484
-0.0010241286363452
-0.0026348927058279
-0.0043355519883334
-0.0060881227254867
-0.0078247608616948
-0.0094527471810579
-0.0108688902109861
-0.0119744967669248
-0.012687130831182
-0.012954369187355
-0.012769210152328
-0.0121762650087475
-0.0112633714452385
-0.0101433172821998
-0.0089324004948139
-0.0077304923906922
-0.0066060777753591
-0.0055892500095069
-0.0046735582873225
-0.0038245464675128
-0.0029910313896834
-0.0021172347478568
-0.0011553172953426
-7.390649989247322e-05
0.0011408305726945
0.0024839018005877
0.0039238845929503
0.0053998883813619
0.0068344380706548
0.0081564700230956
0.0093177706003189
0.0102905100211501
0.0110498946160078
0.0115591287612915
0.0117685655131936
0.0116264121606946
0.0110917575657367
0.0101442420855164
0.0087898876518011
0.0070646326057612
0.0050354287959635
0.0027951397933065
0.000450532650575
-0.0018906801706179
-0.0041284542530775
-0.0061744251288473
-0.0079534295946359
-0.0094045167788863
-0.0104821464046835
-0.0111563522368669
-0.0114114992320537
-0.0112446136772632
-0.0106633435934782
-0.0096842460334301
-0.0083321500569581
-0.0066403755918145
-0.0046538552269339
-0.0024386611767113
-9.22144390642643e-05
0.0022609170991927
0.0044899466447532
0.0064801652915775
0.00814716424793
0.00944628380239
0.0103783253580331
0.010988219641149
0.0113569106906652
0.0115876588970422
0.0117853805422782
0.0120319444686174
0.0123671479523181
0.0127824861556291
0.0132260732352733
0.0136116705834865
0.013829905539751
0.0137671306729316
0.0133311636745929
0.0124743934720754
0.0112057654187083
0.009588343091309
0.0077242394909262
0.0057326890528202
0.0037288863677531
0.0018079159781336
3.573100548237562e-05
-0.0015498546417802
-0.0029309736564755
-0.0041002193465828
-0.0050504691898822
-0.0057692076079547
-0.0062445495277643
-0.0064748227596282
-0.0064707878045737
-0.006253391969949
-0.0058513940311968
-0.005298770032823
-0.0046346727758646
-0.0039056865498423
-0.0031642848625779
-0.0024623372592031
-0.001844918821007
-0.0013470493722707
-0.0009897429263219
-0.0007733175880275
-0.0006754987407475
-0.0006633159937337
-0.0007117132190614
-0.0008116858080029
-0.0009654564782977
-0.0011783872032538
-0.0014527158346027
-0.001783799030818
-0.0021585677750408
-0.0025565144605934
-0.0029537831433117
-0.0033291862346231
-0.0036704889498651
-0.0039770198054611
-0.0042547988705337
-0.0045068813487887
-0.0047247069887816
-0.0048867813311517
-0.004967582412064
-0.004948915913701
-0.0048258388414978
-0.0046085054054856
-0.0043214154429733
-0.003997647203505
-0.0036701126955449
-0.0033665078226476
-0.0031083186622709
-0.002909425413236
-0.0027746495325118
-0.0027003488503396
-0.0026753535494208
-0.0026792287826538
-0.0026788630057126
-0.0026317401789128
-0.0024994267150759
-0.0022602556273341
-0.0019103091908618
-0.0014538328396156
-0.0008942293934524
-0.0002362916711717
0.0005022647092118
0.0012815382797271
0.0020402600057423
0.002704523736611
0.0031999368220567
0.0034676068462431
0.0034819913562387
0.0032621468417346
0.0028693554922938
0.0023900298401713
0.0019119308562949
0.0015077500138431
0.0012332604965195
0.0011357548646628
0.0012577814050018
0.0016237661475315
0.0022202942054718
0.0029905452392995
0.0038443321827799
0.0046698125079274
0.0053394911810755
0.0057154176756739
0.0056628733873367
0.0050758365541696
0.0039027966558933
0.0021568133961409
-9.160739136859776e-05
-0.0027268400881439
-0.0055957143194973
-0.0085118059068918
-0.0112666552886366
-0.0136575819924473
-0.0155296325683593
-0.0168102532625198
-0.0175177920609712
-0.0177489574998617
-0.017652915790677
-0.0173917077481746
-0.0170984286814928
-0.0168467368930578
-0.0166324004530906
-0.0163714047521352
-0.015921127051115
-0.0151126869022846
-0.0137774664908647
-0.0117671266198158
-0.0089735770598053
-0.0053460914641618
-0.0008991621434688
0.0042864242568612
0.0100654391571879
0.0162349082529544
0.0225452408194541
0.0287148673087358
0.034453384578228
0.0394950024783611
0.043629840016365
0.0467165410518646
0.0486785434186458
0.0494985692203044
0.0492129623889923
0.0479015856981277
0.0456778705120086
0.0426813252270221
0.0390700101852417
0.0350141711533069
0.0306904539465904
0.0262743756175041
0.0219317320734262
0.0178051609545946
0.013992816209793
0.0105283800512552
0.007376056164503
0.0044426759704947
0.0016002235934138
-0.0012841988354921
-0.0043175518512725
-0.0075608375482261
-0.0110221020877361
-0.0146586131304502
-0.0183873288333416
-0.0221023969352245
-0.0256949961185455
-0.0290684439241886
-0.0321445390582084
-0.0348625667393207
-0.0371743738651275
-0.0390404351055622
-0.0404305644333362
-0.0413313694298267
-0.0417579188942909
-0.0417567268013954
-0.0413922704756259
-0.0407276824116706
-0.0398121438920497
-0.0386757738888263
-0.0373296700417995
-0.0357714742422103
-0.0339946150779724
-0.031997337937355
-0.0297884829342365
-0.0273886397480964
-0.0248297788202762
-0.0221551284193992
-0.0194161422550678
-0.0166698396205902
-0.0139819849282503
-0.0114283896982669
-0.0090857567265629
-0.0070160534232854
-0.0052534565329551
-0.0037993909791111
-0.0026251804083585
-0.0016793571412563
-0.0008982354775071
-0.0002168519422411
0.0004243599250912
0.0010764077305793
0.0017767203971743
0.0025421036407351
0.0033622169867157
0.0041947206482291
0.0049694422632455
0.0056067025288939
0.0060407519340515
0.0062375161796808
0.0062031969428062
0.0059837233275175
0.0056582577526569
0.0053289830684661
0.0051052458584308
0.0050865244120359
0.0053523033857345
0.0059568956494331
0.006924508139491
0.0082442052662372
0.0098678469657897
0.0117142843082547
0.0136763099581003
0.0156289674341678
0.0174430832266807
0.019002765417099
0.0202221237123012
0.0210556630045175
0.0215005911886692
0.0215966403484344
0.0214224942028522
0.0210782960057258
0.0206568166613578
0.0202202275395393
0.0197839438915252
0.0192989259958267
0.0186449792236089
0.017657171934843
0.016186049208045
0.0141653371974825
0.0116494754329323
0.0087994821369647
0.0058274492621421
0.0029349066317081
0.0002797059714794
-0.0020235069096088
-0.0038895346224308
-0.0052540097385644
-0.0060727167874574
-0.006323492154479
-0.0060091391205787
-0.0051597170531749
-0.0038287229835987
-0.0020853504538536
-1.0788440704345705e-05
0.0023024380207061
0.0047488752752542
0.007199440151453
0.0094856601208448
0.0113963773474097
0.0126983784139156
0.0131795667111873
0.0127018801867961
0.0112401666119694
0.0088892206549644
0.0058462945744395
0.0023904461413621
-0.0011332109570503
-0.0043374244123697
-0.006840031594038
-0.0083278343081474
-0.0086107421666383
-0.0076455064117908
-0.0055253636091947
-0.0024406965821981
0.0013749618083238
0.0056910952553153
0.0103058042004704
0.0150532815605402
0.0197981838136911
0.024423349648714
0.0288211405277252
0.0328930765390396
0.0365562960505485
0.039756279438734
0.0424789413809776
0.0447497814893722
0.0466204546391963
0.048152457922697
0.049399446696043
0.0503855571150779
0.0510875396430492
0.0514313206076622
0.0513041988015174
0.0505779236555099
0.0491372123360633
0.0469095967710018
0.0438895262777805
0.0401452742516994
0.0358060672879219
0.0310386028140783
0.0260216910392045
0.0209252499043941
0.0158962961286306
0.0110465437173843
0.0064398273825645
0.0020880009979009
-0.0020394902676343
-0.0059965010732412
-0.0098392833024263
-0.0136091858148574
-0.0173189882189035
-0.0209425948560237
-0.0244117695838212
-0.0276240743696689
-0.0304606817662715
-0.0328088104724884
-0.0345901623368263
-0.0357925593852996
-0.0364819094538688
-0.0367780774831771
-0.036811675876379
-0.0366927199065685
-0.0365007743239402
-0.0362862274050712
-0.0360749661922454
-0.03587307035923
-0.0356686301529407
-0.0354325920343399
-0.0351218208670616
-0.034685306251049
-0.0340736433863639
-0.0332508981227874
-0.0322094596922397
-0.0309846624732017
-0.0296606719493865
-0.0283657312393188
-0.0272597260773181
-0.0265142880380153
-0.0262901913374662
-0.0267173983156681
-0.0278759896755218
-0.0297796074301004
-0.0323685146868228
-0.0355153642594814
-0.0390412546694278
-0.0427363514900207
-0.0463805049657821
-0.0497616231441497
-0.0526906065642833
-0.055014219135046
-0.0566245913505554
-0.0574617013335228
-0.057511992752552
-0.0568078607320785
-0.0554278492927551
-0.0534952953457832
-0.0511709004640579
-0.0486362800002098
-0.0460720732808113
-0.0436347760260105
-0.0414353236556053
-0.0395221896469593
-0.0378712825477123
-0.036388099193573
-0.0349276177585125
-0.0333259031176567
-0.031426828354597
-0.029096569865942
-0.0262330435216426
-0.0227761380374431
-0.0187176894396543
-0.0141059048473835
-0.0090407989919185
-0.0036667063832283
0.0018322896212339
0.007239731028676
0.012325307354331
0.0168776959180831
0.0207483284175395
0.0238847397267818
0.0263241045176982
0.0281520653516054
0.0294653791934251
0.0303570330142974
0.0309125520288944
0.031207013875246
0.0313015170395374
0.0312435925006866
0.0310765281319618
0.0308516807854175
0.0306316670030355
0.0304832570254802
0.0304692983627319
0.0306443367153406
0.0310514960438013
0.0317194834351539
0.0326588749885559
0.0338566936552524
0.0352724194526672
0.0368363447487354
0.038450002670288
0.0399933978915214
0.0413411855697631
0.0423822440207004
0.0430363938212394
0.0432654581964015
0.0430762618780136
0.0425147451460361
0.0416554436087608
0.0405911691486835
0.0394254103302955
0.0382680743932724
0.0372287258505821
0.0364024154841899
0.035854272544384
0.0356122739613056
0.0356689430773258
0.0359855033457279
0.0364941246807575
0.0370988063514232
0.0376772284507751
0.038085252046585
0.0381644107401371
0.0377536639571189
0.0367079228162765
0.0349180847406387
0.0323202349245548
0.028893906623125
0.0246606897562742
0.0196869280189275
0.014089286327362
0.0080423559993505
0.001780854538083
-0.0044127339497208
-0.0102344034239649
-0.0153880696743726
-0.0196108780801296
-0.0226975064724683
-0.0245243199169635
-0.0250660311430692
-0.0243987441062927
-0.0226886738091707
-0.0201668627560138
-0.0170927383005619
-0.013717021793127
-0.010253170505166
-0.0068588210269808
-0.0036299750208854
-0.0006109401583671
0.0021872869692742
0.0047724302858114
0.0071653039194643
0.0093990955501794
0.0115131074562668
0.013537798076868
0.0154826529324054
0.0173347182571887
0.0190632436424493
0.0206252168864011
0.02196741476655
0.0230235513299703
0.0237182863056659
0.0239919535815715
0.023837611079216
0.0233226343989372
0.0225742310285568
0.021730737760663
0.0208808407187461
0.020024137571454
0.0190766435116529
0.0179112609475851
0.0163988824933767
0.0144324526190757
0.0119418986141681
0.0089063066989183
0.0053598508238792
0.0013870541006326
-0.0028909146785736
-0.0073303785175085
-0.0117719676345586
-0.0160408318042755
-0.0199473686516284
-0.0232963860034942
-0.0259099472314119
-0.0276608578860759
-0.0285048577934503
-0.028496641665697
-0.0277798697352409
-0.0265564396977424
-0.0250519067049026
-0.0234866961836814
-0.0220531970262527
-0.0209017600864171
-0.0201381668448448
-0.0198241621255874
-0.019972950220108
-0.0205444972962141
-0.0214497558772563
-0.022566445171833
-0.0237605534493923
-0.0249051302671432
-0.0258921384811401
-0.0266388822346925
-0.0270932968705892
-0.027238480746746
-0.0270920302718877
-0.0266976933926343
-0.0261139646172523
-0.0254096016287803
-0.024668414145708
-0.0239927507936954
-0.0234966687858104
-0.0232903584837913
-0.0234612859785556
-0.0240563079714775
-0.0250694006681442
-0.0264386385679245
-0.0280525051057338
-0.0297635868191719
-0.0314089693129062
-0.0328360386192798
-0.0339237004518508
-0.0345891714096069
-0.0347865559160709
-0.0345075577497482
-0.0337812192738056
-0.0326647646725177
-0.0312286615371704
-0.0295441523194313
-0.0276750139892101
-0.0256724674254655
-0.02357436157763
-0.021409111097455
-0.0192005634307861
-0.0169682446867227
-0.0147229321300983
-0.0124620161950588
-0.0101672066375613
-0.0078052403405308
-0.0053303367458283
-0.0026891597080975
0.000168296508491
0.0032740635797381
0.0066285515204072
0.0101909190416336
0.0138780009001493
0.0175739601254463
0.0211470816284418
0.0244683530181646
0.0274273715913295
0.0299435630440711
0.0319728069007396
0.0335080809891223
0.0345716029405593
0.0352010577917099
0.0354370884597301
0.0353133641183376
0.0348482802510261
0.034048106521368
0.0329297073185443
0.0315475538372993
0.0299979709088802
0.0283978208899498
0.0268581695854663
0.0254641715437173
0.0242634061723947
0.0232653319835662
0.0224474240094423
0.0217641629278659
0.0211615990847349
0.020596208050847
0.0200495589524507
0.0195288117974996
0.0190505944192409
0.0186184626072645
0.0182051435112953
0.0177409537136554
0.0171105489134788
0.0161677598953247
0.0147712649777531
0.0128280026838183
0.010326562449336
0.0073519949801266
0.0040827458724379
0.0007729427888989
-0.0022758892737329
-0.0047502443194389
-0.0063775200396776
-0.00701061822474
-0.0067150644026696
-0.005807917099446
-0.0048452853225171
-0.004562200512737
-0.005732714664191
-0.0089679369702935
-0.014541707932949
-0.0223095193505287
-0.0317307151854038
-0.04197234287858
-0.0520550906658172
-0.0610044971108436
-0.0679847449064254
-0.0723983794450759
-0.0739369764924049
-0.0725848376750946
-0.0685881972312927
-0.0623923689126968
-0.0545550137758255
-0.045659814029932
-0.0362494997680187
-0.0267833806574344
-0.0176168903708457
-0.0089960694313049
-0.0010622758418321
0.0061335358768701
0.0126080457121133
0.018418438732624
0.0236388351768255
0.0283476822078228
0.0326274260878562
0.0365671552717685
0.0402597561478614
0.0438000187277793
0.0472780987620353
0.0507509857416152
0.0542079880833625
0.0575597025454044
0.0606534704566001
0.0633043274283409
0.0653307661414146
0.066586896777153
0.0669885352253913
0.0665297210216522
0.0652807056903839
0.0633658394217491
0.0609349198639392
0.058138757944107
0.0551103539764881
0.0519565232098102
0.0487604886293411
0.0455863550305366
0.0424792468547821
0.039461150765419
0.036526009440422
0.0336409136652946
0.030756352469325
0.0278195273131132
0.0247823409736156
0.0216017290949821
0.0182411130517721
0.0146833192557096
0.010948147624731
0.0070955082774162
0.0032078810036182
-0.0006359070539474
-0.0043827444314956
-0.0080168396234512
-0.0115562845021486
-0.0150349456816911
-0.01848079636693
-0.0219016522169113
-0.0252751410007476
-0.028536545112729
-0.0315727815032005
-0.0342352278530597
-0.0363668985664844
-0.0378281027078628
-0.0385181978344917
-0.0384041145443916
-0.037550464272499
-0.0361275300383567
-0.0343854092061519
-0.0326058790087699
-0.0310528930276632
-0.0299352463334798
-0.0293825734406709
-0.0294341128319501
-0.0300422310829162
-0.0310911517590284
-0.0324256680905818
-0.0338792875409126
-0.0352957285940647
-0.0365431010723114
-0.0375218763947486
-0.0381716936826705
-0.0384782291948795
-0.038473080843687
-0.0382242947816848
-0.0378227531909942
-0.0373678505420684
-0.0369539223611354
-0.0366600528359413
-0.0365434773266315
-0.0366346314549446
-0.0369334332644939
-0.0374085567891597
-0.0380011424422264
-0.0386320948600769
-0.039209708571434
-0.0396353565156459
-0.039813295006752
-0.0396676249802112
-0.0391550995409488
-0.038266971707344
-0.037023551762104
-0.0354650281369686
-0.0336425453424453
-0.031610582023859
-0.0294197406619787
-0.0271132569760084
-0.0247285030782222
-0.0222987160086631
-0.0198519378900527
-0.0174092054367065
-0.0149827692657709
-0.0125738959759473
-0.0101750055328011
-0.0077781993895769
-0.0053823115304112
-0.0029924744740128
-0.0006155185401439
0.0017427960410714
0.0040769251063466
0.0063793407753109
0.0086393393576145
0.0108430106192827
0.0129738850519061
0.0150144891813397
0.0169485118240118
0.0187619309872388
0.0204436965286731
0.0219875387847423
0.0233890824019908
0.0246366988867521
0.0257066115736961
0.0265668705105781
0.0271866843104362
0.0275480728596448
0.0276545900851488
0.0275336764752864
0.0272338576614856
0.0268185846507549
0.0263587739318609
0.0259248651564121
0.0255783125758171
0.0253648106008768
0.0253124870359897
0.0254344679415226
0.0257289465516805
0.0261726416647434
0.0267164912074804
0.0272933691740036
0.027833005413413
0.0282737202942371
0.0285703185945749
0.028701364994049
0.0286733303219079
0.0285166557878255
0.028274206444621
0.0279883276671171
0.0276928693056106
0.027413036674261
0.0271697100251913
0.0269812569022178
0.0268587935715913
0.0267979726195335
0.0267758164554834
0.0267565008252859
0.0267010405659675
0.0265743285417556
0.0263482853770256
0.0260028038173913
0.0255255959928035
0.024911493062973
0.0241610445082187
0.023278173059225
0.0222675651311874
0.0211344175040721
0.0198871791362762
0.0185397583991289
0.0171100199222564
0.015614878386259
0.0140660936012864
0.0124714039266109
0.0108410473912954
0.0091939577832818
0.007557968609035
0.0059651127085089
0.0044471393339335
0.0030335097108036
0.0017506217118352
0.0006198737537488
-0.0003468529321253
-0.0011523884022608
-0.001814801711589
-0.0023607539478689
-0.0028185276314616
-0.0032178969122469
-0.0035913083702325
-0.0039687808603048
-0.0043702386319637
-0.0048027941957116
-0.0052645793184638
-0.0057488288730382
-0.006243759766221
-0.0067325485870242
-0.0071958526968955
-0.0076148579828441
-0.0079749710857868
-0.008269352838397
-0.0084989443421363
-0.0086687542498111
-0.0087858149781823
-0.0088621024042367
-0.0089161191135644
-0.008968187496066
-0.009035563096404
-0.0091323545202612
-0.0092714894562959
-0.0094676166772842
-0.0097407717257738
-0.0101158190518617
-0.0106155425310134
-0.0112523036077618
-0.0120230540633201
-0.0129084065556526
-0.0138733172789216
-0.0148673243820667
-0.0158285424113273
-0.0166967418044805
-0.0174280721694231
-0.0180005021393299
-0.0184124410152435
-0.0186788346618413
-0.0188226699829101
-0.0188652873039245
-0.0188223347067832
-0.0187041014432907
-0.0185158420354127
-0.0182597711682319
-0.0179390124976634
-0.017558628693223
-0.0171228442341089
-0.0166320241987705
-0.0160825364291667
-0.0154707739129662
-0.0147989671677351
-0.0140784587711095
-0.0133280614390969
-0.0125685483217239
-0.011816257610917
-0.0110795274376869
-0.0103602446615695
-0.0096567580476403
-0.0089639537036418
-0.0082727437838912
-0.0075714224949479
-0.0068490421399474
-0.0060991565696895
-0.005319642368704
-0.0045108431950211
-0.003678542561829
-0.0028388041537255
-0.0020188591443002
-0.0012549753300845
-0.0005888184532523
-6.116938311606646e-05
0.0002959225093945
0.0004650065675377
0.0004460349446162
0.0002561011933721
-7.464674126822501e-05
-0.0005077646928839
-0.0009979144670069
-0.0014932139310985
-0.0019394721603021
-0.0022888381499797
-0.0025089690461754
-0.0025885547511279
-0.0025360826402902
-0.0023712846450507
-0.0021152556873857
-0.0017859200015664
-0.0013975552283227
-0.0009612790308892
-0.0004876470193266
9.467359632253649e-06
0.0005120318382978
0.0010016574524343
0.0014640884473919
0.0018918998539447
0.0022875987924635
0.0026627155020833
0.003029006998986
0.0033919932320713
0.0037526963278651
0.0041102399118244
0.0044615161605179
0.0048007117584347
0.0051202778704464
0.005412699189037
0.0056735179387032
0.0059049827978014
0.0061160088516771
0.0063173933885991
0.0065176314674317
0.0067251310683786
0.0069532394409179
0.0072156637907028
0.0075127631425857
0.0078233713284134
0.0081067588180303
0.0083093428984284
0.0083744786679744
0.0082547944039106
0.0079226214438676
0.0073745436966419
0.0066317692399024
0.0057392534799873
0.0047611957415938
0.0037712780758738
0.002841455861926
0.0020340979099273
0.0013986127451062
0.0009668748825788
0.0007449742406606
0.0007100719958543
0.0008173948153853
0.0010123616084456
0.0012422474101185
0.0014631934463977
0.0016421014443039
0.0017575118690729
0.0018013389781117
0.0017791679129004
0.0017070416361093
0.0016070920974016
0.0015059644356369
0.0014358749613165
0.0014329608529806
0.001527490094304
0.00173104647547
0.0020337076857686
0.0024138027802109
0.0028509013354778
0.0033333618193864
0.0038563469424843
0.0044133397750556
0.0049900258891284
0.0055659404024481
0.0061206347309052
0.0066367108374834
0.0070969867520034
0.0074802264571189
0.0077602565288543
0.0079097915440797
0.0079055521637201
0.0077298558317124
0.0073708272539079
0.00682601518929
0.0061071375384926
0.005241991020739
0.0042734537273645
0.0032560531981289
0.0022520362399518
0.0013274340890347
0.0005440837703645
-5.115196108818054e-05
-0.000433069653809
-0.000598878134042
-0.0005647037178277
-0.0003594802692532
-2.201925963163376e-05
0.0003970977850258
0.0008380017243325
0.0012419349513947
0.001562912017107
0.0017766910605132
0.0018841801211237
0.0019062482751905
0.0018746037967503
0.0018255696631968
0.0017967296298593
0.0018228918779641
0.0019306880421936
0.002134540816769
0.0024366257712244
0.0028316143434494
0.0033106741029769
0.0038573313504457
0.0044404035434126
0.0050146598368883
0.0055293068289756
0.0059378487057983
0.0062050754204392
0.0063073141500353
0.0062247905880212
0.0059348149225115
0.0054146284237504
0.0046495646238327
0.0036370554007589
0.0023862263187766
0.0009202693472616
-0.0007166817085817
-0.0024576163850724
-0.0042223744094371
-0.0059312884695827
-0.0075149382464587
-0.0089205335825681
-0.0101139824837446
-0.0110765900462865
-0.0118006970733404
-0.0122879147529602
-0.0125479083508253
-0.0125966602936387
-0.0124574415385723
-0.0121627692133188
-0.0117520540952682
-0.0112643213942646
-0.0107293464243412
-0.0101652890443801
-0.0095850359648466
-0.0090006673708558
