bvp
-0.0220169909298419
-0.0272257998585701
-0.030716523528099
-0.0321530252695083
-0.0312844216823577
-0.0280233100056648
-0.0225164480507373
-0.0151550434529781
-0.0065083391964435
0.0027861185371875
0.0121293552219867
0.0210401248186826
0.029200417920947
0.0364692099392414
0.0428689122200012
0.0485500805079937
0.0537413731217384
0.058692879974842
0.0636238306760788
0.0686844587326049
0.0739349722862243
0.0793396830558776
0.0847712680697441
0.0900204926729202
0.0948100909590721
0.0988099575042724
0.1016532480716705
0.1029634475708007
0.102400317788124
0.0997175276279449
0.0948156639933586
0.0877735018730163
0.0788461193442344
0.0684343352913856
0.057040486484766
0.0452217459678649
0.0335431694984436
0.0225286241620779
0.012617046944797
0.004137328825891
-0.0027018757537007
-0.0078268069773912
-0.0113186547532677
-0.0134103102609515
-0.0144379269331693
-0.0147621296346187
-0.0146964006125926
-0.0144707253202795
-0.0142316995188593
-0.0140595724806189
-0.0139824068173766
-0.0139819104224443
-0.0139983408153057
-0.013944262638688
-0.0137214120477437
-0.0132231637835502
-0.0123255904763937
-0.0108872018754482
-0.0087637212127447
-0.0058362521231174
-0.0020592361688613
0.0024767220020294
0.0074979066848754
0.0125483162701129
0.0170435793697834
0.0203552097082138
0.0219010710716247
0.021233357489109
0.0181146152317523
0.0125641971826553
0.0048640891909599
-0.0044753775000572
-0.0147830620408058
-0.0253214798867702
-0.0353950932621955
-0.0444423928856849
-0.0520850531756877
-0.0581325590610504
-0.0625600293278694
-0.0654779970645904
-0.0670992657542228
-0.0677008628845214
-0.0675827488303184
-0.0670256987214088
-0.0662525817751884
-0.0654039084911346
-0.0645341724157333
-0.0636186599731445
-0.0625606477260589
-0.0612089522182941
-0.0593943893909454
-0.0569686964154243
-0.0538291409611702
-0.0499336868524551
-0.0453128479421138
-0.0400740206241607
-0.034396719187498
-0.0285235531628131
-0.0227527655661106
-0.0174304638057947
-0.012931752949953
-0.0096275955438613
-0.0078463330864906
-0.0078335367143154
-0.0097080431878566
-0.013424003496766
-0.018757177516818
-0.0253205951303243
-0.0326000191271305
-0.0400030128657817
-0.0469226501882076
-0.0528086423873901
-0.0572278574109077
-0.059901624917984
-0.0607203878462314
-0.0597414225339889
-0.0571720376610755
-0.0533357933163642
-0.0486223027110099
-0.0434315614402294
-0.0381275005638599
-0.0330121703445911
-0.0283184759318828
-0.0242051295936107
-0.0207487512379884
-0.0179430618882179
-0.0157098099589347
-0.0139174107462167
-0.0124016739428043
-0.0109861632809042
-0.0095015857368707
-0.0078012123703956
-0.0057686567306518
-0.0033188126981258
-0.0003972854465246
0.0030178930610418
0.006909180432558
0.0112015791237354
0.0157421641051769
0.0203014612197875
0.0246053896844387
0.028382683172822
0.0314119048416614
0.0335579738020896
0.034791387617588
0.0351896323263645
0.0349233597517013
0.0342278331518173
0.0333640649914741
0.0325811654329299
0.0320872515439987
0.0320315882563591
0.0324983485043048
0.033504132181406
0.0349963717162609
0.0368628241121768
0.0389553532004356
0.0411172173917293
0.043204341083765
0.0450997836887836
0.0467240288853645
0.0480407550930976
0.0490554459393024
0.049808032810688
0.0503620281815528
0.0507904589176178
0.0511626452207565
0.0515361167490482
0.0519505068659782
0.0524194464087486
0.0529233217239379
0.0534112229943275
0.0538158975541591
0.0540717095136642
0.0541217178106308
0.0539127886295318
0.0533875748515129
0.0524790920317173
0.0511105619370937
0.0492040738463401
0.0466977469623088
0.0435634925961494
0.0398196168243885
0.0355400368571281
0.0308576840907335
0.0259525030851364
0.0210243538022041
0.0162644237279891
0.0118347825482487
0.0078577920794487
0.0044143698178231
0.0015462203882634
-0.0007428545504808
-0.0024860994890332
-0.0037503903731703
-0.0046288571320474
-0.0052296966314315
-0.0056629851460456
-0.006027091294527
-0.0063942018896341
-0.0067999707534909
-0.0072478326037526
-0.0077265864238142
-0.0082244090735912
-0.0087303519248962
-0.0092314444482326
-0.0097127351909875
-0.0101586543023586
-0.0105538209900259
-0.0108846668154001
-0.01114231813699
-0.0113256890326738
-0.0114430282264947
-0.0115122944116592
-0.0115652605891227
-0.0116546228528022
-0.0118553079664707
-0.0122587233781814
-0.0129633136093616
-0.0140564199537038
-0.0155897196382284
-0.0175616480410099
-0.0199109856039285
-0.0225203223526477
-0.0252306312322616
-0.0278633907437324
-0.0302447937428951
-0.0322280116379261
-0.0337084159255027
-0.0346299335360527
-0.0349850431084632
-0.0348089337348938
-0.0341688282787799
-0.0331553965806961
-0.0318777710199356
-0.0304544251412153
-0.028997940942645
-0.0275993850082159
-0.0263174269348382
-0.0251748263835906
-0.0241613090038299
-0.0232417061924934
-0.0223687589168548
-0.0214954651892185
-0.0205818712711334
-0.0195982195436954
-0.0185277126729488
-0.0173654239624738
-0.016112171113491
-0.0147735923528671
-0.0133688747882843
-0.0119396476075053
-0.0105534186586737
-0.0093025714159011
-0.0082954997196793
-0.0076385317370295
-0.0074157621711492
-0.0076712444424629
-0.0083945291116833
-0.009515375830233
-0.0109115755185484
-0.0124267637729644
-0.0138922864571213
-0.0151457926258444
-0.0160445719957351
-0.0164811369031667
-0.0164005532860755
-0.0158065892755985
-0.0147539805620908
-0.0133356526494026
-0.011667862534523
-0.0098711252212524
-0.0080511346459388
-0.0062880255281925
-0.0046341964043676
-0.00311488378793
-0.001729954383336
-0.0004579208325594
0.0007376534049399
0.0018994538113474
0.0030680892523378
0.0042752204462885
0.0055366624146699
0.0068495562300086
0.0081961946561932
0.0095501625910401
0.0108817815780639
0.0121614094823598
0.0133609753102064
0.0144538674503564
0.0154096977785229
0.0161854028701782
0.0167197175323963
0.0169373899698257
0.016766108572483
0.0161608066409826
0.0151226548478007
0.0137017257511615
0.0119856894016265
0.0100866509601473
0.0081304321065545
0.0062445309013128
0.0045444220304489
0.0031235124915838
0.0020492444746196
0.0013615079224109
0.0010716076940298
0.0011636912822723
0.0015980899333953
0.0023137433454394
0.0032310951501131
0.0042619039304554
0.0053263907320797
0.006365742534399
0.0073407026939094
0.0082238912582397
0.0089969020336866
0.0096523035317659
0.0101954340934753
0.0106434961780905
0.0110222371295094
0.0113608827814459
0.011686741374433
0.0120212528854608
0.0123777305707335
0.0127606838941574
0.0131672285497188
0.0135895805433392
0.0140165537595748
0.0144306318834424
0.0147973261773586
0.0150546040385961
0.0151157137006521
0.0148848704993724
0.0142772439867258
0.0132389366626739
0.0117627829313278
0.0098956637084484
0.0077355750836431
0.0054176775738596
0.0030930829234421
0.000908866059035
-0.0010065981186926
-0.0025526606477797
-0.0036598942242562
-0.004293309058994
-0.004458513110876
-0.0042043356224894
-0.0036165271885693
-0.0028039049357175
-0.001880760770291
-0.0009513865225017
-0.0001002741046249
0.0006136046722531
0.0011595354881137
0.0015340303070843
0.0017559975385665
0.0018596564186736
0.0018884473247453
0.0018918316345661
0.0019218418747186
0.0020238819997757
0.0022245072759687
0.0025264567229896
0.0029122540727257
0.0033504143357276
0.0038034818135201
0.0042368336580693
0.0046241260133683
0.0049483841285109
0.0051992395892739
0.0053663025610148
0.0054301149211823
0.0053537292405962
0.0050804410129785
0.0045454618521034
0.0036992095410823
0.0025250343605875
0.0010428507812321
-0.0006920425221323
-0.0025912979617714
-0.0045424876734614
-0.006423267070204
-0.0081171430647373
-0.0095295179635286
-0.0105981156229972
-0.0112929847091436
-0.0116107929497957
-0.0115724187344312
-0.0112244058400392
-0.0106348814442753
-0.009880275465548
-0.0090313265100121
-0.0081478087231516
-0.0072818365879356
-0.0064794952049851
-0.0057754116132855
-0.0051868110895156
-0.0047111343592405
-0.0043268701992928
-0.0039984658360481
-0.0036827221047133
-0.0033349432051181
-0.0029171518981456
-0.0024069822393357
-0.0018029556376859
-0.001123915426433
-0.0004010719712823
0.0003345151199027
0.0010570362210273
0.0017394555034115
0.0023488448932766
0.002850578399375
0.003211636096239
0.0033965329639613
0.0033624351490288
0.0030607834924012
0.0024473771918565
0.0014988002367317
0.0002274068538099
-0.0013122794916853
-0.0030268908012658
-0.0047955922782421
-0.0064848777838051
-0.0079628359526395
-0.0091154854744672
-0.0098645156249403
-0.0101774800568819
-0.0100666284561157
-0.0095816431567072
-0.0088011855259537
-0.0078229829668998
-0.0067502278834581
-0.0056763957254588
-0.0046742260456085
-0.0037915941793471
-0.0030525284819304
-0.0024594399146735
-0.0019950033165514
-0.0016237214440479
-0.0012936714338138
-0.0009455643594264
-0.0005305816885083
-2.347305417060852e-05
0.0005762458313256
0.0012497333809733
0.0019665560685098
0.0026925913989543
0.003396135289222
0.0040514669381082
0.0046399924904108
0.0051490906625986
0.0055682454258203
0.0058816303499042
0.006059578154236
0.0060576256364583
0.0058278460055589
0.0053326832130551
0.0045520109124481
0.0034882454201579
0.0021746836137026
0.000681854551658
-0.0008862353861331
-0.0024061072617769
-0.0037524544168263
-0.004814607091248
-0.0055098161101341
-0.0057914601638913
-0.0056512132287025
-0.0051182769238948
-0.0042575281113386
-0.0031616264022886
-0.0019351188093423
-0.0006796177476644
0.0005129501223564
0.0015648137778043
0.0024195821024477
0.0030485619790852
0.0034525839146226
0.003660200163722
0.0037232264876365
0.0037078361492604
0.0036830189637839
0.0037110312841832
0.0038389703258872
0.0040914672426879
0.0044691367074847
0.0049538742750883
0.0055174729786813
0.0061267921701073
0.0067424704320728
0.0073183490894734
0.0078046931885182
0.0081481337547302
0.0082872323691844
0.0081525547429919
0.0076760286465287
0.0068062022328376
0.0055239456705749
0.0038527864962816
0.0018610381521284
-0.0003432903904467
-0.0026238530408591
-0.0048312302678823
-0.0068183941766619
-0.0084578208625316
-0.0096609946340322
-0.0103908237069845
-0.0106594506651163
-0.0105161890387535
-0.0100334919989109
-0.0092950025573372
-0.0083879064768552
-0.0073996218852698
-0.0064130728133022
-0.0054963240399956
-0.004691379610449
-0.0040103481151163
-0.0034405668266117
-0.0029508345760405
-0.0024947822093963
-0.0020194742828607
-0.0014821784570813
-0.000862680375576
-0.0001617581583559
0.0006068595685064
0.0014218166470527
0.0022578202188014
0.0030900533311069
0.0038974205963313
0.0046639526262879
0.0053783142939209
0.0060319686308503
0.0066177533008158
0.0071257962845265
0.0075353356078267
0.0078082806430757
0.0078855575993657
0.0076867644675076
0.0071228654123842
0.0061236219480633
0.0046665933914482
0.0027938417624682
0.000609275419265
-0.0017393538728356
-0.0040834317915141
-0.0062549649737775
-0.0081051122397184
-0.009518776088953
-0.0104229915887117
-0.0107897147536277
-0.0106345592066645
-0.0100115546956658
-0.0090069063007831
-0.0077327778562903
-0.006316315382719
-0.0048830704763531
-0.0035388367250561
-0.0023549199104309
-0.0013625603169202
-0.0005568331107497
9.391922503709792e-05
0.0006366139277815
0.0011236304417252
0.0016061319038271
0.0021282397210597
0.0027213632129132
0.0034022168256342
0.0041764816269278
0.0050412574782967
0.0059806359931826
0.0069623962044715
0.0079428274184465
0.0088752377778291
0.0097181545570492
0.0104399789124727
0.0110145304352045
0.0114095732569694
0.0115762026980519
0.0114455018192529
0.0109387133270502
0.0099897980690002
0.0085690710693597
0.0066998125985264
0.004463879391551
0.0019906060770154
-0.0005666706711053
-0.0030530341900885
-0.005327851511538
-0.0072740148752927
-0.0088022435083985
-0.009855231270194
-0.0104110855609178
-0.010482938028872
-0.0101163182407617
-0.0093854237347841
-0.0083861947059631
-0.0072251399978995
-0.0060057137161493
-0.0048139449208974
-0.003705920651555
-0.0027059447020292
-0.0018170960247516
-0.0010305298492312
-0.0003277417272329
0.0003169197589159
0.0009312126785516
0.0015419516712427
0.0021753152832388
0.0028553274460136
0.0035982728004455
0.004408739041537
0.0052810139022767
0.006202065385878
0.0071528321132063
0.0081105474382638
0.0090508507564663
0.0099400375038385
0.0107179135084152
0.0112879276275634
0.0115264151245355
0.0113071044906973
0.010530237108469
0.0091489907354116
0.0071886819787323
0.0047508981078863
0.001998527906835
-0.0008704965002834
-0.003650031518191
-0.0061482763849198
-0.0082055265083909
-0.0097063779830932
-0.0105853322893381
-0.0108303762972354
-0.0104871485382318
-0.00965466350317
-0.0084691895171999
-0.0070837051607668
-0.0056463629007339
-0.0042806849814951
-0.0030725598335266
-0.0020656720735132
-0.0012643081136047
-0.0006404952146112
-0.0001417910680174
0.0002993233501911
0.0007520271465182
0.0012756353244185
0.001916155219078
0.0027039763517677
0.0036457984242588
0.0047182310372591
0.0058715213090181
0.0070413942448794
0.0081620970740914
0.0091738943010568
0.0100201740860939
0.0106357261538505
0.0109365181997418
0.0108225047588348
0.0101940222084522
0.0089739114046096
0.0071311965584754
0.0047022649087011
0.001800080994144
-0.0013974192552268
-0.0046772672794759
-0.0078234476968646
-0.0106399375945329
-0.0129669550806283
-0.0146912587806582
-0.0157502684742212
-0.0161332860589027
-0.0158799346536397
-0.0150742884725332
-0.0138357188552618
-0.0123066417872905
-0.0106357196345925
-0.0089573506265878
-0.0073716542683541
-0.0059315622784197
-0.0046455594711005
-0.0034949276596307
-0.0024500912986695
-0.0014771833084523
-0.0005398537032306
0.0003992612473666
0.001376258675009
0.0024216580204665
0.0035543509293347
0.004776231944561
0.0060711703263223
0.0074097919277846
0.0087573062628507
0.0100795524194836
0.0113452710211277
0.0125253284350037
0.0135834328830242
0.0144553910940885
0.0150336399674415
0.0151757383719086
0.0147347934544086
0.0135967787355184
0.0117100467905402
0.009100099094212
0.0058720377273857
0.0022025944199413
-0.0016806200146675
-0.0055289706215262
-0.0091027878224849
-0.0121963089331984
-0.0146537134423851
-0.0163752790540456
-0.0173204690217971
-0.0175105612725019
-0.01702381670475
-0.0159821063280105
-0.0145354997366666
-0.0128451390191912
-0.0110623128712177
-0.0093083791434764
-0.0076622078195214
-0.0061566922813653
-0.0047832103446125
-0.0035041910596191
-0.0022689751349389
-0.0010239602997899
0.0002823839895427
0.0016928720287978
0.0032322239130735
0.0048987409099936
0.0066621676087379
0.0084693906828761
0.0102564198896288
0.0119633264839649
0.0135447168722748
0.0149722648784518
0.0162309948354959
0.0173105113208293
0.0181933492422103
0.0188403278589248
0.0191763453185558
0.0190912000834941
0.018464908003807
0.0172040406614542
0.0152647290378808
0.0126592144370079
0.0094609400257468
0.0058078155852854
0.0018928493373095
-0.0020563418511301
-0.0058025885373353
-0.0091254459694027
-0.0118443667888641
-0.0138359684497118
-0.0150448326021432
-0.0154842464253306
-0.0152250435203313
-0.0143787618726491
-0.0130813354626297
-0.0114772282540798
-0.0097060753032565
-0.0078946314752101
-0.0061489413492381
-0.0045449621975421
-0.0031226859427988
-0.0018848697654902
-0.0008019446395337
0.0001757076242938
0.001104709226638
0.0020396136678755
0.0030263741500675
0.0040971180424094
0.0052661220543086
0.0065293982625007
0.0078696077689528
0.0092620989307761
0.0106765525415539
0.0120739107951521
0.0134045640006661
0.0146137112751603
0.0156517475843429
0.016481664031744
0.0170770995318889
0.0174101684242486
0.0174356643110513
0.0170833058655262
0.0162649992853403
0.014895349740982
0.0129192639142274
0.0103376936167478
0.0072217192500829
0.0037102019414305
-7.815659046173096e-06
-0.0037211258895695
-0.0072257155552506
-0.0103455698117613
-0.0129432873800396
-0.0149268601089715
-0.0162539109587669
-0.0169295147061347
-0.0170004591345787
-0.016550101339817
-0.0156902521848678
-0.0145479384809732
-0.013250857591629
-0.0119128599762916
-0.010618720203638
-0.0094132339581847
-0.0083035677671432
-0.0072743319906294
-0.0063028428703546
-0.0053660687990486
-0.0044406726956367
-0.0035013840533792
-0.0025239065289497
-0.0014927727170288
-0.0004055984318256
0.0007309699431061
0.0019061993807554
0.0031044883653521
0.0043023070320487
0.0054684253409504
0.0065690437331795
0.0075758257880806
0.0084703918546438
0.0092405602335929
0.0098724626004695
0.0103425337001681
0.0106090055778622
0.0106069464236497
0.0102532496675848
0.0094635067507624
0.008175398223102
0.0063675409182906
0.0040685655549168
0.0013596080243587
-0.0016289381310343
-0.0047283275052905
-0.0077472608536481
-0.0104903457686305
-0.0127834193408489
-0.0145017933100461
-0.0155858695507049
-0.0160390771925449
-0.0159167889505624
-0.0153138749301433
-0.0143521064892411
-0.0131657607853412
-0.0118867047131061
-0.0106299873441457
-0.0094803199172019
-0.0084851700812578
-0.0076565663330256
-0.006976128090173
-0.0064004692249
-0.0058678006753325
-0.0053099901415407
-0.0046712374314665
-0.0039213225245475
-0.0030557345598936
-0.0020908145233988
-0.0010589295998215
-9.415671229362488e-07
0.0010420968756079
0.0020343121141195
0.0029494510963559
0.0037752967327833
0.0045132618397474
0.0051707364618778
0.005749063566327
0.0062308711931109
0.0065721506252884
0.0067034037783741
0.0065390020608901
0.0059937918558716
0.0050052134320139
0.0035537742078304
0.0016750916838645
-0.0005386602133512
-0.0029482766985893
-0.0053857662715017
-0.0076766987331211
-0.0096623571589589
-0.0112169301137328
-0.0122570022940635
-0.0127462241798639
-0.0126963183283805
-0.0121606923639774
-0.0112245921045541
-0.0099984528496861
-0.0086091598495841
-0.0071848165243864
-0.0058369915932416
-0.0046446248888969
-0.0036449301987886
-0.0028339235577732
-0.0021735597401857
-0.0016034003347158
-0.0010544946417212
-0.0004618996754288
0.000224872957915
0.0010343366302549
0.0019725998863577
0.003029596991837
0.0041821496561169
0.0053894584998488
0.0065916655585169
0.0077195288613438
0.0087094288319349
0.0095159169286489
0.0101192519068717
0.0105257118120789
0.0107589587569236
0.0108451675623655
0.0107958316802978
0.0105934999883174
0.0101889055222272
0.0095130633562803
0.008499514311552
0.0071092317812144
0.0053468104451894
0.0032606278546154
0.0009351097978651
-0.0015167235396802
-0.0039629810489714
-0.0062674228101968
-0.0083067109808325
-0.0099856639280915
-0.0112452069297432
-0.0120615065097808
-0.0124404188245534
-0.0124127008020877
-0.0120304599404335
-0.0113622397184371
-0.0104847457259893
-0.009470896795392
-0.0083813108503818
-0.0072669191285967
-0.006175763439387
-0.0051512382924556
-0.004222247749567
-0.0033962307497859
-0.002660293597728
-0.0019868104718625
-0.0013406812213361
-0.0006881576264277
-3.511326212901622e-06
0.0007295523537322
0.0015181646449491
0.002360108308494
0.0032462668605148
0.0041656037792563
0.0051055899821221
0.0060458038933575
0.0069553344510495
0.0078005259856581
0.0085544558241963
0.0091992691159248
0.0097214253619313
0.0101024759933352
0.0103090805932879
0.0102896811440587
0.0099824806675314
0.0093316081911325
0.0083045242354273
0.0069040041416883
0.0051739909686148
0.0032020462676882
0.00111110357102
-0.0009639461059123
-0.0028995019383728
-0.0045953150838613
-0.0059788236394524
-0.0070041366852819
-0.0076498514972627
-0.0079195238649845
-0.0078413011506199
-0.007463339716196
-0.0068470104597508
-0.0060611302033066
-0.0051762051880359
-0.0042581632733345
-0.0033612558618187
-0.0025189996231347
-0.0017409259453415
-0.0010203432757407
-0.0003450312651693
0.0002977200783789
0.0009227804839611
0.0015490235527977
0.0021953512914478
0.0028743231669068
0.003589151892811
0.0043339803814888
0.0050951936282217
0.0058540138415992
0.0065911849960684
0.0072912415489554
0.0079443547874689
0.0085483212023973
0.0091080944985151
0.0096267461776733
0.010093905031681
0.010480822995305
0.0107399886474013
0.0108069162815809
0.0106081198900938
0.0100755477324128
0.0091617172583937
0.0078517673537135
0.0061712353490293
0.0041873878799378
0.0020039728842675
-0.000249195145443
-0.0024303949903696
-0.004400348290801
-0.0060386257246136
-0.0072638904675841
-0.0080459658056497
-0.0084014246240258
-0.0083807334303855
-0.0080556161701679
-0.0075075975619256
-0.0068174614571034
-0.006058950908482
-0.0052967695519328
-0.0045832204632461
-0.0039527439512312
-0.0034190181177109
-0.0029756254516541
-0.0025968835689127
-0.0022396552376449
-0.0018543746555224
-0.0014034523628652
-0.0008718308527022
-0.0002638198202475
0.000405455706641
0.0011144534219056
0.0018350282916799
0.0025347513146698
0.0031845038756728
0.0037665306590497
0.0042771389707922
0.0047230808995664
0.0051157465204596
0.0054671159014105
0.0057864203117787
0.0060726883821189
0.0063015576452016
0.0064151803962886
0.0063290991820394
0.0059574120678007
0.0052412240765988
0.004165818914771
0.0027649737894535
0.0011173547245562
-0.0006637211190536
-0.00244713248685
-0.0041022957302629
-0.0055132010020315
-0.0065892208367586
-0.0072739706374704
-0.0075481384992599
-0.007426334079355
-0.0069555095396935
-0.0062159732915461
-0.0053141163662076
-0.0043633263558149
-0.0034645916894078
-0.0026951096951961
-0.0021018148399889
-0.0016956108156591
-0.0014502645935863
-0.0013112808810546
-0.0012108263326808
-0.0010824005585163
-0.0008720408077351
-0.0005440849345177
-8.183892350643873e-05
0.0005160397849977
0.0012383945286273
0.0020587164908647
0.0029335678555071
0.003808778245002
0.0046290080063045
0.0053452756255865
0.0059198951348662
0.0063307965174317
0.0065729930065572
0.0066518792882561
0.0065702451393008
0.0063165733590722
0.0058601647615432
0.0051564145833253
0.0041636084206402
0.0028655030764639
0.0012849542545154
-0.0005185554618947
-0.0024582624901086
-0.0044298069551587
-0.0063235573470592
-0.0080383419990539
-0.0094908839091658
-0.0106188775971531
-0.0113816205412149
-0.0117615424096584
-0.0117657482624053
-0.0114253656938672
-0.0107921343296766
-0.0099347475916147
-0.0089331977069377
-0.0078659411519765
-0.0067979502491652
-0.0057797161862254
-0.0048498781397938
-0.0040335324592888
-0.0033383960835635
-0.0027521792799234
-0.0022435532882809
-0.001768140355125
-0.0012782595586031
-0.0007324139587581
-0.0001008594408631
0.0006320225074887
0.0014659664593636
0.0023836914915591
0.0033548702485859
0.0043473374098539
0.0053340652957558
0.0062873610295355
0.0071722352877259
0.0079489639028906
0.0085781011730432
0.0090196803212165
0.0092277340590953
0.0091485893353819
0.0087281409651041
0.0079245343804359
0.0067225908860564
0.005147561430931
0.003271221416071
0.001205152599141
-0.0009155413135886
-0.0029503975529223
-0.0047708451747894
-0.0062771346420049
-0.0074087954126298
-0.0081433923915028
-0.0084885833784937
-0.0084746461361646
-0.0081497319042682
-0.0075761480256915
-0.0068250922486186
-0.0059697772376239
-0.0050792377442121
-0.0042127231135964
-0.0034133363515138
-0.0027032434009015
-0.0020808596163988
-0.0015179147012531
-0.0009641251526772
-0.0003657666966319
0.0003153095021843
0.0010958919301629
0.0019752169027924
0.0029408638365566
0.0039736973121762
0.0050495406612753
0.0061376695521175
0.0072005754336714
0.0081983860582113
0.0090950587764382
0.0098620764911174
0.0104807158932089
0.0109455808997154
0.0112659130245447
0.0114551819860935
0.011508367024362
0.0113845355808734
0.011010842397809
0.0103052072227001
0.0092051327228546
0.0076916869729757
0.005801192484796
0.0036219323519617
0.0012798686511814
-0.0010789970401674
-0.0033061392605304
-0.0052685341797769
-0.0068632224574685
-0.008021829649806
-0.0087079470977187
-0.0089177154004573
-0.0086851082742214
-0.0080830110237002
-0.0072149611078202
-0.0061993789859116
-0.0051505472511053
-0.0041616619564592
-0.0032940167002379
-0.002574669662863
-0.0020013321191072
-0.0015491223894059
-0.0011772913858294
-0.0008375020697712
-0.0004821410402655
-6.916141137480736e-05
0.0004363949410617
0.0010571926832199
0.0017932704649865
0.002617722377181
0.003484123153612
0.0043407566845417
0.0051440200768411
0.0058642188087105
0.0064841974526643
0.0069939303211867
0.0073804478161036
0.0076157124713063
0.0076506570912897
0.0074222376570105
0.0068714157678186
0.0059632193297147
0.0047017009928822
0.0031333102378994
0.0013372807297855
-0.0005877802614122
-0.0025343243032693
-0.0043938597664237
-0.0060631432570517
-0.0074498429894447
-0.0084795458242297
-0.0091034518554806
-0.0093049649149179
-0.0091040693223476
-0.0085561582818627
-0.0077428547665476
-0.0067599765025079
-0.0057059861719608
-0.0046678436920046
-0.0037091828417032
-0.0028691249899566
-0.0021664635278284
-0.0016003139317035
-0.0011502671986818
-0.0007812855765223
-0.0004498558118939
-0.0001089684665203
0.0002863742411136
0.0007740959990769
0.001379644498229
0.0021094782277941
0.00294901849702
0.0038680259604007
0.0048299869522452
0.0057981922291219
0.0067276121117174
0.0075468113645911
0.0081516504287719
0.0084195043891668
0.008234305307269
0.0075117507949471
0.0062186014838516
0.0043831085786223
0.0020947938319295
-0.0005068338941782
-0.0032517630606889
-0.0059610987082123
-0.0084659485146403
-0.0106230955570936
-0.0123253092169761
-0.0135032748803496
-0.0141251534223556
-0.0142020098865032
-0.0137932822108268
-0.012998716905713
-0.0119369439780712
-0.0107248127460479
-0.0094652213156223
-0.0082396995276212
-0.0071021616458892
-0.0060747521929442
-0.0051484629511833
-0.0042897025123238
-0.0034500267356634
-0.0025754999369382
-0.0016156705096364
-0.0005322759971022
0.000692474655807
0.0020489296875894
0.0035003935918211
0.0049930536188185
0.0064687528647482
0.0078755281865596
0.0091744242236018
0.0103417858481407
0.0113658737391233
0.0122347623109817
0.0129182077944278
0.0133548825979232
0.013453921303153
0.0131101347506046
0.0122282523661851
0.0107516758143901
0.0086839124560356
0.0060914997011423
0.0030936992261558
-0.000151359476149
-0.0034608431160449
-0.0066430792212486
-0.0095186056569218
-0.0119408806785941
-0.013806365430355
-0.0150556052103638
-0.0156743861734867
-0.0156948845833539
-0.0151886343955993
-0.0142535436898469
-0.0130020258948206
-0.0115467812865972
-0.0099872630089521
-0.008405553176999
-0.0068652527406811
-0.0054067717865109
-0.0040439274162054
-0.0027652718126773
-0.0015397174283862
-0.0003253920003771
0.000920140184462
0.0022315867245197
0.0036314446479082
0.0051270574331283
0.0067087691277265
0.0083521734923124
0.0100254137068986
0.0116974990814924
0.0133409462869167
0.0149276368319988
0.0164238587021827
0.0177881568670272
0.0189693346619606
0.0199020393192768
0.0205021873116493
0.0206670761108398
0.020286401733756
0.019266877323389
0.0175613965839147
0.0151875149458646
0.0122291268780827
0.0088277654722332
0.0051709259860217
0.001475284807384
-0.0020411955192685
-0.005190247669816
-0.0078308451920747
-0.0098720090463757
-0.0112703628838062
-0.0120273921638727
-0.0121857728809118
-0.0118223996832966
-0.0110391750931739
-0.0099529810249805
-0.0086834225803613
-0.0073389294557273
-0.0060039032250642
-0.0047303517349064
-0.00353495310992
-0.0023997761309146
-0.0012821820564568
-0.0001353560946881
0.0010760324075818
0.0023725079372525
0.003760518040508
0.0052328668534755
0.006770194042474
0.0083435047417879
0.0099163204431533
0.0114481458440423
0.0129013676196336
0.0142467785626649
0.0154634844511747
0.0165377706289291
0.0174646694213151
0.0182468760758638
0.0188821610063314
0.0193405002355575
0.019546840339899
0.0193840432912111
0.0187156070023775
0.0174185521900653
0.0154160838574171
0.0127000529319047
0.0093384608626365
0.0054725822992622
0.0013055545277893
-0.0029215395916253
-0.0069619328714907
-0.0105923227965831
-0.0136319072917103
-0.0159522332251071
-0.0174842234700918
-0.0182245783507823
-0.0182353258132934
-0.0176322571933269
-0.0165669005364179
-0.0152074992656707
-0.0137187195941805
-0.0122419372200965
-0.0108812320977449
-0.0096964891999959
-0.0087019689381122
-0.0078701619058847
-0.007142995018512
-0.0064485636539757
-0.0057156402617692
-0.0048817573115229
-0.0038999477401375
-0.0027481140568852
-0.0014356928877532
-8.177012205123901e-07
0.0015014503151178
0.0030122939497232
0.0044776503928005
0.0058525595813989
0.0071027521044015
0.0082004256546497
0.00911177508533
0.0097822695970535
0.0101301809772849
0.0100548863410949
0.0094590466469526
0.0082766804844141
0.0064940229058265
0.004154609516263
0.0013550529256463
-0.0017607314512133
-0.0050135375931859
-0.0082097807899117
-0.011162880808115
-0.0137076713144779
-0.015709139406681
-0.0170708987861871
-0.0177450384944677
-0.0177399925887584
-0.0171210952103137
-0.0159994252026081
-0.0145119298249483
-0.0128016900271177
-0.0110053950920701
-0.0092475451529026
-0.0076321270316839
-0.0062284464947879
-0.0050615747459232
-0.004114681854844
-0.0033382191322743
-0.0026607341133058
-0.0020014527253806
-0.0012831245549023
-0.0004419377073645
0.0005653761327266
0.0017559854313731
0.0031181387603282
0.004613806027919
0.0061883493326604
0.0077820462174713
0.009334628470242
0.0107850767672061
0.0120756290853023
0.013156795874238
0.0139826415106654
0.0144964735954999
0.0146188475191593
0.0142490891739726
0.0132820112630724
0.0116334399208426
0.0092671457678079
0.0062158880755305
0.0025898488238453
-0.0014300756156444
-0.0056127323769032
-0.0097087863832712
-0.0134887192398309
-0.0167730450630188
-0.0194432698190212
-0.0214364528656005
-0.0227341223508119
-0.0233532898128032
-0.0233424752950668
-0.0227797497063875
-0.0217667445540428
-0.020416997373104
-0.0188415236771106
-0.0171370655298233
-0.0153810298070311
-0.0136290602385997
-0.0119105307385325
-0.0102286944165825
-0.0085704335942864
-0.0069171339273452
-0.0052501242607831
-0.0035534766502678
-0.0018173994030803
-4.041759530082345e-05
0.0017721151234582
0.0036107606720179
0.0054616811685264
0.0073028686456382
0.0091024748980999
0.0108238169923424
0.0124337701126933
0.0139101110398769
0.0152459666132926
0.0164459701627492
0.0175111331045627
0.0184202715754508
0.0191183630377054
0.0195157583802938
0.0194968804717063
0.0189383756369352
0.0177378021180629
0.015844490379095
0.0132790068164467
0.0101362382993102
0.0065750335343182
0.0027991593815386
-0.0009676325134932
-0.0045092608779668
-0.007639271672815
-0.010214508511126
-0.0121462764218449
-0.0134055465459823
-0.0140165146440267
-0.0140434317290782
-0.0135771827772259
-0.0127245103940367
-0.0115981781855225
-0.0103069581091403
-0.00894879642874
-0.0076046041212975
-0.0063285296782851
-0.0051409201696515
-0.0040307696908712
-0.0029638716951012
-0.0018908706260845
-0.0007579727098345
0.0004780412418767
0.0018391339108347
0.0033250045962631
0.0049174921587109
0.0065854648128151
0.0082888649776577
0.0099834129214286
0.011625631712377
0.0131764048710465
0.0146032040938735
0.0158806201070547
0.0169906318187713
0.0179250743240118
0.01868761703372
0.0192895196378231
0.0197330266237258
0.0199863705784082
0.019969830289483
0.0195648930966854
0.018642321228981
0.0170988142490386
0.0148869222030043
0.0120278298854827
0.0086099151521921
0.0047799376770854
0.0007301806472241
-0.0033199856989085
-0.0071499589830636
-0.0105649074539542
-0.0134129244834184
-0.0155896618962287
-0.017040342092514
-0.0177663005888462
-0.0178284756839275
-0.017337966710329
-0.0164367891848087
-0.0152773587033152
-0.0140020959079265
-0.0127243138849735
-0.0115172890946269
-0.010414914228022
-0.0094194076955318
-0.0085102580487728
-0.007652498781681
-0.0068049924448132
-0.0059272553771734
-0.0049821240827441
-0.0039387359283864
-0.0027803000994026
-0.001510162372142
-0.0001504009123891
0.0012646669056266
0.0026953406631946
0.0041013527661561
0.0054457858204841
0.0066975625231862
0.0078325811773538
0.0088354144245386
0.0096978088840842
0.0104095544666051
0.010945233516395
0.0112569537013769
0.0112786814570426
0.0109363887459039
0.0101604340597987
0.0089022666215896
0.0071515114977955
0.0049474099650979
0.0023815250024199
-0.0004093116149306
-0.0032573514617979
-0.0059827333316206
-0.0084144473075866
-0.0104087777435779
-0.0118621494621038
-0.0127192996442317
-0.0129770142957568
-0.0126812979578971
-0.0119182337075471
-0.0108049502596259
-0.0094822794198989
-0.0080993063747882
-0.0067876940593123
-0.0056404997594654
-0.004705817438662
-0.0039892429485917
-0.0034582838416099
-0.0030499324202537
-0.0026830048300325
-0.002274694154039
-0.0017572380602359
-0.0010867258533835
-0.0002425939310342
0.0007765300106257
0.0019557655323296
0.0032625389285385
0.0046449732035398
0.0060380138456821
0.0073749683797359
0.0085972864180803
0.0096593126654624
0.010529444552958
0.0111896703019738
0.0116277560591697
0.0118207242339849
0.011722533032298
0.0112653821706771
0.0103724524378776
0.0089768040925264
0.0070435316301882
0.0045919902622699
0.0017049429006874
-0.0014842157252132
-0.004812347702682
-0.0081030074506998
-0.0111827254295349
-0.0138985002413392
-0.016129296272993
-0.0177900698035955
-0.0188357941806316
-0.0192671902477741
-0.0191295314580202
-0.0185018442571163
-0.0174837373197078
-0.0161846540868282
-0.0147140165790915
-0.0131690353155136
-0.0116237616166472
-0.0101280780509114
-0.0087130554020404
-0.0073924632743
-0.0061615323647856
-0.0049989935941994
-0.0038735268171876
-0.0027516994159668
-0.0016051047714427
-0.0004159146919846
0.0008220098679885
0.0021067741326987
0.0034330864436924
0.0047948290593922
0.0061851665377616
0.0075962888076901
0.0090162092819809
0.0104210274294018
0.0117719890549778
0.0130228921771049
0.0141309555619955
0.0150591684505343
0.0157648473978042
0.0161856468766927
0.0162370838224887
0.0158228520303964
0.0148544115945696
0.0132766515016555
0.0110898548737168
0.0083580156788229
0.0052057541906833
0.0018087466014549
-0.0016267918981611
-0.0048956023529171
-0.0078217983245849
-0.0102740414440631
-0.012169943191111
-0.0134736765176057
-0.0141890570521354
-0.014351800084114
-0.0140242967754602
-0.0132914343848824
-0.0122528821229934
-0.0110120195895433
-0.0096664410084486
-0.0083011165261268
-0.0069790356792509
-0.0057308264076709
-0.0045561091974377
-0.0034378175623714
-0.0023538912646472
-0.001279876101762
-0.0001893644221127
0.0009430260397493
0.0021367203444242
0.00340072857216
0.0047316644340753
0.0061154384166002
0.0075318166054785
0.0089572984725236
0.0103646209463477
0.0117243081331253
0.0130110252648592
0.0142090842127799
0.0153109561651945
0.0163101740181446
0.0171935837715864
0.0179328192025423
0.0184743031859397
0.0187334604561328
0.0186000820249319
0.0179565902799367
0.016705771908164
0.0148002710193395
0.0122623536735773
0.0091865984722971
0.0057274145074188
0.0020775261800736
-0.0015543273184448
-0.0049615548923611
-0.0079590864479541
-0.0104063907638192
-0.0122226066887378
-0.0133861657232046
-0.0139245288446545
-0.0139011852443218
-0.0134046114981174
-0.0125400591641664
-0.0114217158406972
-0.0101645868271589
-0.0088750440627336
-0.0076396884396672
-0.0065178298391401
-0.0055402470752596
-0.004708704072982
-0.003994361963123
-0.0033433258067816
-0.0026926742866635
-0.0019861024338752
-0.0011813165619969
-0.00025290180929
0.0008064401336014
0.0019864905625581
0.0032613419461995
0.0045930361375212
0.0059371693059802
0.0072483806870877
0.0084845200181007
0.009609836153686
0.0105981109663844
0.0114374533295631
0.0121337473392486
0.0127012431621551
0.01313685066998
0.0133969830349087
0.0133964326232671
0.0130267543718218
0.0121821397915482
0.0107865808531641
0.0088172061368823
0.0063164113089442
0.0033895589876919
0.0001928370911628
-0.003083249554038
-0.006234941072762
-0.0090690590441226
-0.0114216338843107
-0.0131695456802845
-0.0142433242872357
-0.0146403303369879
-0.014424230903387
-0.013707997277379
-0.0126328188925981
-0.0113510247319936
-0.0100116170942783
-0.0087432349100708
-0.0076362686231732
-0.0067335618659853
-0.0060325134545564
-0.0054940124973654
-0.0050545986741781
-0.0046391878277063
-0.0041710822843015
-0.0035791881382465
-0.0028081098571419
-0.0018314246553927
-0.0006584926159121
0.0006697625503875
0.002092094393447
0.0035398856271058
0.0049481689929962
0.0062635424546897
0.0074487747624516
0.0084829200059175
0.0093526970595121
0.0100356452167034
0.0104863243177533
0.0106340702623128
0.010391573421657
0.009672931395471
0.0084165968000888
0.006603050045669
0.0042636319994926
0.0014843165408819
-0.0015956333372741
-0.0047952635213732
-0.0079141622409224
-0.0107570271939039
-0.0131534533575177
-0.0149726681411266
-0.0161339323967695
-0.0166123416274786
-0.0164400301873683
-0.015701150521636
-0.0145183075219392
-0.0130325211212039
-0.0113852368667721
-0.0097072198987007
-0.0081092836335301
-0.0066715525463223
-0.0054360087960958
-0.0044063879176974
-0.0035535360220819
-0.0028245211578905
-0.0021551193203777
-0.0014815139584243
-0.0007475225720554
9.168731048703194e-05
0.0010672754142433
0.0021941759623587
0.0034686548169702
0.0048684268258512
0.0063535226508975
0.0078664561733603
0.0093377856537699
0.0106984572485089
0.011891545727849
0.0128760607913136
0.0136188967153429
0.0140781532973051
0.0141885243356227
0.0138591723516583
0.0129883121699094
0.0114913433790206
0.009331258945167
0.0065379366278648
0.0032130940817296
-0.0004756905254907
-0.0043153390288352
-0.0080799032002687
-0.0115590058267116
-0.0145749077200889
-0.0169950649142265
-0.0187416635453701
-0.0197931788861751
-0.0201775766909122
-0.0199627373367548
-0.0192469581961631
-0.0181472841650247
-0.0167861469089984
-0.0152801815420389
-0.0137303657829761
-0.012211937457323
-0.010768205858767
-0.0094115575775504
-0.0081300055608153
-0.0068950504064559
-0.0056674014776945
-0.0044017592445015
-0.0030531799420714
-0.0015855934470891
1.964624971151352e-05
0.001760228537023
0.0036151958629488
0.0055493912659585
0.0075194393284618
0.00948042050004
0.0113897286355495
0.0132101718336343
0.0149154150858521
0.0164865851402282
0.0178906451910734
0.0190564207732677
0.0198670290410518
0.0201705768704414
0.0198067314922809
0.0186447165906429
