bvp
-0.0045782215893268
-0.0039388798177242
-0.0032153753563761
-0.0024775527417659
-0.0017952648922801
-0.0012276712805032
-0.0008115256205201
-0.000554428435862
-0.0004357201978564
-0.0004147160798311
-0.0004398804157972
-0.0004554623737931
-0.0004090936854481
-0.0002598501741886
1.820921897888184e-05
0.0004353821277618
0.0009854035452008
0.001648224890232
0.0023945579305291
0.0031848791986703
0.0039652683772146
0.0046657198108732
0.0052042226307094
0.0054974108934402
0.0054725925438106
0.0050779008306562
0.0042921942658722
0.0031335977837443
0.0016626566648483
-2.3303553462028503e-05
-0.001803146675229
-0.0035462221130728
-0.0051229456439614
-0.0064112124964594
-0.0073076197877526
-0.0077488971874117
-0.0077275848016142
-0.0072869751602411
-0.006503103300929
-0.005467327311635
-0.0042731426656246
-0.0030054105445742
-0.0017317906022071
-0.0004983497783541
0.0006697308272123
0.0017634164541959
0.002783634699881
0.0037366226315498
0.0046334154903888
0.005493888631463
0.0063471756875514
0.0072216764092445
0.0081340577453374
0.0090855304151773
0.0100632337853312
0.0110476482659578
0.0120229758322238
0.0129808373749256
0.013917769305408
0.0148327741771936
0.0157223641872406
0.0165689755231142
0.0173299387097358
0.0179382767528295
0.0183167960494756
0.0183980800211429
0.0181389302015304
0.0175230763852596
0.0165608264505863
0.0152923092246055
0.0137878321111202
0.0121423546224832
0.0104660280048847
0.0088711306452751
0.0074578654021024
0.0063014882616698
0.0054439161904156
0.0048938272520899
0.0046320557594299
0.0046155750751495
0.0047819297760725
0.0050603626295924
0.005382633768022
0.0056840255856513
0.0059028659015893
0.0059865904040634
0.0059011979028582
0.0056403512135148
0.0052285073325037
0.004714613314718
0.0041600447148084
0.0036262101493775
0.0031666373834013
0.0028231213800609
0.0026219696737825
0.0025716051459312
0.0026645665057003
0.0028824312612414
0.0031982688233256
0.0035745492205023
0.0039629908278584
0.0043106377124786
0.004566304385662
0.0046802693977952
0.0045991241931915
0.0042647486552596
0.0036200555041432
0.0026167640462517
0.0012244274839758
-0.0005587562918663
-0.0026967599987983
-0.005111807025969
-0.0076881339773535
-0.0102832280099391
-0.0127456486225128
-0.0149384373798966
-0.0167588703334331
-0.0181444622576236
-0.0190677046775817
-0.0195290707051754
-0.0195543467998504
-0.0191941112279891
-0.0185188371688127
-0.0176079962402582
-0.016538007184863
-0.015375068411231
-0.0141744278371334
-0.0129810916259884
-0.0118264555931091
-0.0107230274006724
-0.0096653373911976
-0.0086392564699053
-0.0076320795342326
-0.0066362656652927
-0.0056472243741154
-0.0046602375805377
-0.0036704437807202
-0.0026735942810773
-0.0016639353707432
-0.0006336290389299
0.0004217438399791
0.0014962255954742
0.002567958086729
0.0035951491445302
0.0045190714299678
0.0052738226950168
0.0057917479425668
0.0060014110058546
0.0058299228549003
0.0052153021097183
0.0041210390627384
0.0025481395423412
0.0005439333617687
-0.0017962995916604
-0.0043375045061111
-0.0069212615489959
-0.0093860886991024
-0.0115865459665656
-0.0134064983576536
-0.0147638507187366
-0.0156060364097356
-0.0159012284129858
-0.0156420860439538
-0.0148691339418292
-0.0136906336992979
-0.0122758848592638
-0.0108271576464176
-0.0095459315925836
-0.0086010228842496
-0.0081044174730777
-0.0081026954576373
-0.0085838707163929
-0.0094893965870141
-0.0107240173965692
-0.0121656004339456
-0.0136778261512517
-0.0151235880330204
-0.0163751356303691
-0.0173223763704299
-0.017883826047182
-0.0180144999176263
-0.0177036300301551
-0.016967236995697
-0.01584292948246
-0.0143896397203207
-0.0126909539103508
-0.0108566395938396
-0.0090159270912408
-0.0072999615222215
-0.0058200610801577
-0.0046518761664628
-0.0038270705845206
-0.0033289594575762
-0.0030941646546125
-0.0030262342188507
-0.0030189699027687
-0.0029765421058982
-0.0028210687451064
-0.0024914662353694
-0.0019417963922023
-0.0011437046341598
-9.256880730390547e-05
0.0011885436251759
0.0026502488180994
0.0042209750972688
0.0058153313584625
0.0073485653847455
0.008751219138503
0.0099795833230018
0.0110222101211547
0.0118979457765817
0.0126423146575689
0.0132907927036285
0.0138694513589143
0.0143936984241008
0.0148706696927547
0.0153034403920173
0.0156960785388946
0.0160562098026275
0.0163923501968383
0.0167080499231815
0.0169983878731727
0.0172502789646387
0.0174430888146162
0.0175507273524999
0.0175470132380723
0.017406802624464
0.0171024147421121
0.0166077055037021
0.0159095376729965
0.0150151345878839
0.0139530375599861
0.0127716232091188
0.0115363504737615
0.0103233680129051
0.0092092379927635
0.0082604372873902
0.0075242863968014
0.0070220902562141
0.0067471824586391
0.0066690985113382
0.0067421169951558
0.0069118151441216
0.0071154716424643
0.0072842719964683
0.0073546916246414
0.0072826263494789
0.0070512657985091
0.00666937045753
0.0061627286486327
0.0055669248104095
0.0049246652051806
0.0042834519408643
0.0036898218095302
0.00318089639768
0.0027792879845947
0.00249575660564
0.0023340410552918
0.0022889154497534
0.0023390108253806
0.0024443992879241
0.0025513914879411
0.0025990733411163
0.0025255193468183
0.0022747572511434
0.0018052039667963
0.0010985317640006
0.0001663086004555
-0.0009484984911978
-0.0021778657101094
-0.0034410543739795
-0.0046577341854572
-0.0057559614069759
-0.0066725690849125
-0.007355922833085
-0.0077772815711796
-0.0079400381073355
-0.0078786555677652
-0.0076499045826494
-0.0073214094154536
-0.0069604045711457
-0.0066229789517819
-0.0063472157344222
-0.0061531490646302
-0.0060462206602096
-0.0060224840417504
-0.0060711856931447
-0.0061700260266661
-0.0062820478342473
-0.0063604987226426
-0.0063583268783986
-0.0062418384477496
-0.0060031833127141
-0.005662836600095
-0.0052623082883656
-0.0048521114513278
-0.0044792965054512
-0.0041767531074583
-0.0039567193016409
-0.0038126395083963
-0.0037279115058481
-0.0036874278448522
-0.0036881098058074
-0.0037425702903419
-0.0038740867748856
-0.0041038617491722
-0.0044369734823703
-0.0048592132516205
-0.0053431196138262
-0.0058518014848232
-0.0063402825035154
-0.0067596212029457
-0.0070630218833684
-0.0072110812179744
-0.0071764579042792
-0.006948365829885
-0.0065361522138118
-0.0059698396362364
-0.0052949474193155
-0.0045636384747922
-0.0038250579964369
-0.0031162553932517
-0.0024610718246549
-0.0018795802025124
-0.0013937143376097
-0.0010202658595517
-0.0007630744948983
-0.0006128851091489
-0.0005490219336934
-0.0005410168669186
-0.0005543028237298
-0.000556782237254
-0.0005212567048147
-0.0004281219735275
-0.0002697145682759
-4.961859667673707e-05
0.0002227876684628
0.0005382130038924
0.0008892158512026
0.0012612268328666
0.0016192293260246
0.0019078461918979
0.0020679319277405
0.0020544154103845
0.0018455071840435
0.0014473223127424
0.0008952509379014
0.0002482256386429
-0.0004226430319249
-0.0010471474379301
-0.0015670135617256
-0.001941394759342
-0.0021459895651787
-0.0021682307124137
-0.0020058853551745
-0.0016718215774744
-0.001196592580527
-0.0006248112767934
-9.187031537294388e-06
0.0005966643802821
0.0011456452775746
0.0016024389769881
0.0019464446231722
0.0021724277175962
0.0022888146340847
0.0023154276423156
0.0022820457816123
0.0022259159013628
0.0021879242267459
0.0022083586081862
0.0023183312732726
0.0025278360117226
0.0028216417413204
0.0031676103826612
0.0035282548051327
0.0038660813588649
0.0041439183987677
0.0043262331746518
0.0043820366263389
0.0042878300882875
0.0040311655029654
0.0036146780475974
0.0030589036177843
0.0024028599727898
0.001703146379441
0.001028976868838
0.0004480434581637
8.698087185621262e-06
-0.0002681277692317
-0.0003847074694931
-0.0003580125048756
-0.0002127140760421
2.3179687559604645e-05
0.0003216662444174
0.0006574536673724
0.0010079923085868
0.0013514687307178
0.0016652406193315
0.0019268272444605
0.0021183169446885
0.0022318502888083
0.002274605911225
0.002270926721394
0.0022557852789759
0.0022617564536631
0.0023110946640372
0.0024159457534551
0.0025782329030334
0.0027874656952917
0.0030225389637053
0.0032575228251516
0.003467843402177
0.0036356470081955
0.0037514236755669
0.0038097549695521
0.0038033910095691
0.0037210457958281
0.0035499143414199
0.0032774053979665
0.0028876911383122
0.0023631032090634
0.0016974369063973
0.0009071766398847
2.9697082936763763e-05
-0.0008840742520987
-0.0017742998898029
-0.0025765779428184
-0.0032303514890372
-0.0036890031769871
-0.0039274785667657
-0.0039459178224205
-0.0037683551199734
-0.0034359423443675
-0.0029961122199892
-0.0024956101551651
-0.0019823471084237
-0.0015059099532663
-0.0011099004186689
-0.0008236509747803
-0.0006590974517166
-0.0006104493513703
-0.0006544101051986
-0.0007546488195657
-0.0008720899932086
-0.0009734537452459
-0.0010337103158235
-0.0010368092916905
-0.0009752153418958
-0.0008443198166787
-0.0006375894881784
-0.0003528939560055
-5.370471626520157e-06
0.000366548076272
0.0007045064121484
0.0009376038797199
0.000994165893644
0.0008182236924767
0.0003820839338004
-0.0003102314658463
-0.0012247837148606
-0.002300452440977
-0.0034538204781711
-0.0045913201756775
-0.0056242044083774
-0.0064754127524793
-0.0070811528712511
-0.0073977434076368
-0.0074131316505372
-0.0071521177887916
-0.0066698645241558
-0.0060390960425138
-0.0053366599604487
-0.0046329787001013
-0.0039867190644145
-0.0034416699782013
-0.0030227042734622
-0.002733627334237
-0.0025584613904356
-0.0024645552039146
-0.0024084560573101
-0.0023432113230228
-0.0022239973768591
-0.002014772966504
-0.001696478575468
-0.0012704832479357
-0.000754659064114
-0.0001751668751239
0.0004403078928589
0.0010625571012496
0.0016550840809941
0.0021679662168025
0.0025368956848978
0.0026905192062258
0.002564170397818
0.002115624025464
0.0013372134417295
0.0002606734633445
-0.0010440982878208
-0.002478246577084
-0.0039322916418313
-0.0053028296679258
-0.00649905949831
-0.0074448119848966
-0.0080819288268685
-0.0083749275654554
-0.0083165578544139
-0.0079313274472951
-0.0072725247591733
-0.006413185968995
-0.0054346993565559
-0.0044153295457363
-0.0034203380346298
-0.0024940185248851
-0.0016549751162528
-0.000900188460946
-0.0002160035073757
0.0004154723137617
0.001016492024064
0.0016130525618791
0.0022321511059999
0.0028987880796194
0.0036322083324193
0.0044413041323423
0.00532191619277
0.0062575247138738
0.0072184475138783
0.0081570940092206
0.0090045174583792
0.0096736568957567
0.0100715449079871
0.0101150115951895
0.0097420690581202
0.0089212991297245
0.0076611340045928
0.0060152234509587
0.0040837693959474
0.0020084325224161
-4.357844591140747e-05
-0.0019018854945898
-0.0034142695367336
-0.004464054480195
-0.0049828141927719
-0.0049574468284845
-0.0044292658567428
-0.0034827329218387
-0.0022287257015705
-0.0007920861244201
0.000695526599884
0.0021060556173324
0.0033320169895887
0.0043035577982664
0.0049980748444795
0.0054387021809816
0.0056847631931304
0.0058220420032739
0.0059526395052671
0.0061779543757438
0.0065794009715318
0.0072069838643074
0.0080761760473251
0.0091712726280093
0.0104515515267848
0.0118493791669607
0.0132602676749229
0.0145409647375345
0.0155241396278142
0.0160432234406471
0.0159597992897033
0.0151892444118857
0.013719760812819
0.0116201881319284
0.0090344427153468
0.0061643542721867
0.0032447883859276
0.0005141794681549
-0.0018137656152248
-0.003570707514882
-0.0046466197818517
-0.004999317228794
-0.0046610254794359
-0.0037348736077547
-0.0023771356791257
-0.0007721669971942
0.0008921381086111
0.0024468302726745
0.0037621306255459
0.0047605596482753
0.0054187346249818
0.0057615265250205
0.0058530969545245
0.005784748122096
0.0056592058390378
0.0055756526999175
0.0056217908859252
0.0058677736669778
0.0063536930829286
0.0070782732218503
0.0079983631148934
0.009033496491611
0.0100685879588127
0.0109593104571104
0.0115447398275136
0.0116660315543413
0.011189280077815
0.0100278323516249
0.0081591438502073
0.0056356862187385
0.0025867999065667
-0.0007909946143627
-0.0042509655468165
-0.0075225685723125
-0.0103511717170476
-0.0125370025634765
-0.0139559470117092
-0.0145630938932299
-0.0143884625285863
-0.0135277416557073
-0.0121279247105121
-0.0103697795420885
-0.0084471777081489
-0.0065439082682132
-0.0048118843697011
-0.0033552476670593
-0.0022238583769649
-0.0014138245023787
-0.0008710161782801
-0.0005030890461057
-0.0002030180767178
0.000128012150526
0.0005683796480298
0.0011718245223164
0.0019670845940709
0.0029575822409242
0.0041140103712677
0.005360472947359
0.0065681007690727
0.0075656119734048
0.0081623466685414
0.0081767681986093
0.0074670957401394
0.0059626488946378
0.0036897594109177
0.0007771947421133
-0.0025642404798418
-0.0060741435736417
-0.0094749303534626
-0.0125029180198907
-0.0149374427273869
-0.0166232138872146
-0.0174811724573373
-0.0175092313438653
-0.0167768076062202
-0.0154135441407561
-0.0135923959314823
-0.011508285999298
-0.0093540819361805
-0.0072981226257979
-0.0054667741060256
-0.0039348918944597
-0.0027263490483164
-0.0018209281843155
-0.0011632565874606
-0.000671922112815
-0.0002479318063706
0.0002144834725186
0.000813347636722
0.0016240256372839
0.0026872614398598
0.0040015475824475
0.005516929551959
0.0071274531073868
0.0086685931310057
0.0099298991262912
0.0106840431690216
0.0107225608080625
0.009889705106616
0.0081133479252457
0.0054286196827888
0.0019851857796311
-0.00196602079086
-0.0061052162200212
-0.0100883115082979
-0.0135918585583567
-0.0163499303162097
-0.0181809850037097
-0.0190027877688407
-0.0188318584114313
-0.0177699644118547
-0.0159833524376153
-0.0136781837791204
-0.0110773956403136
-0.0084008192643523
-0.0058442763984203
-0.003558233147487
-0.0016329856589436
-9.509388473816216e-05
0.0010863512288779
0.0019864491187036
0.0027061169967055
0.0033535344991832
0.0040304125286638
0.0048236814327538
0.0058000059798359
0.0070008430629968
0.0084387324750423
0.010093473829329
0.0119010666385293
0.0137372463941574
0.0154130151495337
0.0166935604065656
0.0173350684344768
0.0171288978308439
0.015943618491292
0.0137548353523015
0.010655621998012
0.0068475333973765
0.00261633656919
-0.0017026732675731
-0.005766094662249
-0.0092650577425956
-0.0119580496102571
-0.0136875323951244
-0.0143884001299738
-0.0140951871871948
-0.0129389278590679
-0.0111247114837169
-0.0088969618082046
-0.0065047442913055
-0.0041716983541846
-0.0020721880719065
-0.000316523713991
0.0010545796249061
0.0020660129375755
0.0027933605015277
0.0033420701511204
0.0038294729311019
0.0043713590130209
0.0050692623481154
0.0059952428564429
0.0071768779307603
0.0085942363366484
0.0101923812180757
0.0118963168933987
0.0136196333914995
0.0152669250965118
0.0167281534522771
0.0178688056766986
0.0185281373560428
0.0185340326279401
0.0177338607609272
0.0160318464040756
0.0134195117279887
0.009991506114602
0.0059447260573506
0.0015570288524031
-0.0028530554845929
-0.0069708623923361
-0.0105207739397883
-0.0132908280938863
-0.0151481740176677
-0.0160448439419269
-0.0160159133374691
-0.0151710696518421
-0.0136769665405154
-0.0117328725755214
-0.009546935558319
-0.0073152165859937
-0.0052030845545232
-0.0033310400322079
-0.0017663389444351
-0.0005211746320128
0.0004406012594699
0.0011890074238181
0.0018115304410457
0.0023999037221074
0.0030392725020647
0.0037975963205099
0.0047164028510451
0.0058057308197021
0.0070462506264448
0.0083980830386281
0.0098100714385509
0.0112249022349715
0.0125810615718364
0.0138122485950589
0.0148418648168444
0.0155719481408596
0.0158747043460607
0.0156008694320917
0.0146100185811519
0.0128112751990556
0.0101963207125663
0.0068532284349203
0.002960056066513
-0.0012370124459266
-0.0054542422294616
-0.009403046220541
-0.0128214992582798
-0.0155024649575352
-0.0173130258917808
-0.0182012226432561
-0.0181932058185338
-0.0173883941024541
-0.0159530472010374
-0.0141031816601753
-0.0120736183598637
-0.0100816516205668
-0.0082976557314395
-0.0068300999701023
-0.0057222954928874
-0.0049556251615285
-0.0044596344232559
-0.0041296742856502
-0.0038481801748275
-0.0035048276185989
-0.0030125621706247
-0.0023164488375186
-0.0013933461159467
-0.0002483986318111
0.0010840985924005
0.0025418102741241
0.0040463786572217
0.005519675090909
0.0068932101130485
0.0081080067902803
0.0091066509485244
0.009822217747569
0.0101724527776241
0.0100660920143127
0.0094208251684904
0.0081840325146913
0.0063489638268947
0.0039665903896093
0.0011513531208038
-0.0019268449395895
-0.0050668511539697
-0.0080657750368118
-0.0107411686331033
-0.0129440482705831
-0.0145675782114267
-0.0155546925961971
-0.0159024186432361
-0.0156592614948749
-0.0149168325588107
-0.0137985814362764
-0.0124463140964508
-0.0110042206943035
-0.0096009299159049
-0.0083320857957005
-0.0072479248046875
-0.0063522644340991
-0.0056153163313865
-0.0049908012151718
-0.0044273026287555
-0.0038759168237447
-0.0032976027578115
-0.0026660859584808
-0.001965632662177
-0.0011904295533895
-0.0003461763262748
0.0005514677613973
0.0014808438718318
0.0024172216653823
0.0033356919884681
0.0042150821536779
0.0050366129726171
0.0057700034230947
0.0063552763313055
0.0066987108439207
0.0066891480237245
0.0062262564897537
0.0052495636045932
0.0037581697106361
0.0018142666667699
-0.0004671644419431
-0.0029325652867555
-0.0054043363779783
-0.007700434885919
-0.0096576120704412
-0.0111508946865797
-0.0121037121862173
-0.0124881621450185
-0.0123241422697901
-0.011680576018989
-0.0106677636504173
-0.009419722482562
-0.0080763343721628
-0.0067679230123758
-0.0056008510291576
-0.0046444637700915
-0.0039235632866621
-0.0034205913543701
-0.0030852230265736
-0.0028476938605308
-0.0026324847713112
-0.002369581721723
-0.0020034871995449
-0.0014987951144576
-0.0008421633392572
-4.2421743273735046e-05
0.0008722627535462
0.0018601948395371
0.0028725797310471
0.0038587497547268
0.0047706887125968
0.0055674472823739
0.0062151979655027
0.0066808210685849
0.0069256005808711
0.0069071250036358
0.0065900832414627
0.005958124063909
0.005021053366363
0.0038184784352779
0.0024167606607079
0.0008970024064183
-0.000657201744616
-0.0021647009998559
-0.0035468749701976
-0.0047303270548582
-0.0056550120934844
-0.0062829563394188
-0.0066027543507516
-0.0066277906298637
-0.0063902814872562
-0.0059378370642662
-0.0053336285054683
-0.0046527991071343
-0.0039704060181975
-0.0033459379337728
-0.0028167637065052
-0.0024026846513152
-0.0021091545931994
-0.0019259611144661
-0.0018281550146639
-0.0017796526663005
-0.0017379652708768
-0.001660156995058
-0.0015092152170836
-0.0012617669999599
-0.0009150537662208
-0.0004857438616454
6.239861249923706e-08
0.0005161599256098
0.0010399632155895
0.001553270034492
0.0020366087555885
0.0024570222012698
0.0027630859985947
0.0028934250585734
0.0027910396456718
0.0024173974525183
0.0017648099455982
0.0008642098400741
-0.0002161918673664
-0.0013802575413137
-0.0025174336042255
-0.0035195653326809
-0.004296051338315
-0.0047821784391999
-0.0049417619593441
-0.0047651920467615
-0.0042678932659327
-0.003495062701404
-0.0025243759155273
-0.0014563638251274
-0.0003963323542848
0.0005632176762446
0.0013553943717852
0.0019459242466837
0.0023337251041084
0.0025462906341999
0.002632166724652
0.0026510958559811
0.0026634884998202
0.0027227501850575
0.0028728935867547
0.0031489445827901
0.0035722227767109
0.0041393814608454
0.0048173018731176
0.0055511938408017
0.0062792105600237
0.0069449567236006
0.0075024366378784
0.0079124579206109
0.0081370491534471
0.0081402333453297
0.0078946156427264
0.0073863030411303
0.0066174007952213
0.0056095924228429
0.0044084363617002
0.0030857087112963
0.0017321698833256
0.0004387935623526
-0.0007189642637968
-0.0016844221390783
-0.0024179732427001
-0.0028971405699849
-0.0031173136085271
-0.0030919522978365
-0.0028521907515823
-0.0024442388676106
-0.0019237333908677
-0.0013481085188686
-0.0007684156298637
-0.0002235574647784
0.0002630343660712
0.0006872578524053
0.0010635214857757
0.0014142505824565
0.0017579174600541
0.0021049925126135
0.0024607330560684
0.0028280089609324
0.0032080062665045
0.0036003305576741
0.0040019750595092
0.0044073043391108
0.0048105586320161
0.0052061951719224
0.0055869305506348
0.0059430659748613
0.006261539645493
0.0065227742306888
0.0066951448097825
0.0067309197038412
0.0065715997479856
0.0061637447215616
0.0054778102785348
0.0045204544439911
0.003335190936923
0.0019941795617341
0.0005860389210283
-0.0007965075783431
-0.0020670429803431
-0.0031540067866444
-0.0040067476220428
-0.0045981109142303
-0.0049227559939026
-0.0049926731735467
-0.0048354412429034
-0.0044962712563574
-0.0040362221188843
-0.0035228678025305
-0.0030184155330061
-0.0025704363361001
-0.0022070161066949
-0.0019362587481737
-0.0017488715238869
-0.0016207601875066
-0.0015154480934143
-0.0013898941688239
-0.0012033376842737
-0.0009251656010746
-0.0005376385524868
-3.289710730314255e-05
0.0005881008692085
0.001309972256422
0.0020984937436878
0.0029059848748147
0.0036837975494563
0.0043912683613598
0.0049954326823353
0.0054662032052874
0.0057720895856618
0.0058785788714885
0.0057522458955645
0.0053683202713727
0.004716538824141
0.003804471110925
0.0026610041968524
0.0013425024226307
-6.766337901353836e-05
-0.0014749043621122
-0.0027914731763303
-0.0039441306143999
-0.004877496510744
-0.0055591161362826
-0.0059807295911014
-0.0061528398655354
-0.0060992571525275
-0.0058552846312522
-0.0054659591987729
-0.0049818539991974
-0.0044534783810377
-0.0039242785423994
-0.0034225983545184
-0.0029569920152425
-0.0025196895003318
-0.0020983247086405
-0.0016864268109202
-0.0012827338650822
-0.000884405337274
-0.000484399497509
-7.385201752185822e-05
0.0003547044470906
0.0008064853027462
0.0012861369177699
0.0017985412850975
0.0023478008806705
0.0029363962821662
0.0035631824284791
0.0042214337736368
0.0049007576890289
0.0055860914289951
0.0062462794594466
0.0068227290175855
0.0072330338880419
0.0073891645297408
0.0072184205055236
0.0066778780892491
0.0057619526050984
0.0045061185956001
0.0029859030619263
0.001308477949351
-0.0004010992124676
-0.002015633508563
-0.0034218691289424
-0.0045310985296964
-0.005281719379127
-0.0056424532085657
-0.0056200921535491
-0.0052628917619585
-0.0046529537066817
-0.0038900654762983
-0.0030746441334486
-0.0022946055978536
-0.0016148975118994
-0.0010708328336477
-0.0006688870489597
-0.0003924556076526
-0.0002075722441077
-6.736535578966141e-05
8.273310959339142e-05
0.0002978704869747
0.0006269011646509
0.0011034999042749
0.001734334975481
0.0024948557838797
0.0033375527709722
0.0042060613632202
0.0050493692979216
0.0058306106366217
0.0065276771783828
0.0071292147040367
0.0076278178021311
0.0080106221139431
0.0082517880946397
0.0083114942535758
0.0081430496647953
0.0077067124657332
0.006982835009694
0.0059758648276329
0.0047107702121138
0.0032301906030625
0.0015956498682498
-0.0001108730211853
-0.0017908504232764
-0.0033395523205399
-0.0046589043922722
-0.0056702592410147
-0.0063261799514293
-0.0066179945133626
-0.0065742554143071
-0.0062517561018466
-0.0057268254458904
-0.0050861467607319
-0.0044115260243415
-0.0037672528997063
-0.0031996318139135
-0.0027402867563068
-0.0024042534641921
-0.0021858573891222
-0.0020578084513545
-0.0019761174917221
-0.0018894341774284
-0.0017481357790529
-0.0015106326900422
-0.0011480967514216
-0.0006485818885266
-1.8008053302764893e-05
0.0007249005138874
0.0015580551698803
0.0024628289975225
0.0034182458184659
0.0043828492052853
0.0052809920161962
0.0060066529549658
0.0064418287947773
0.0064804614521563
0.0060505769215524
0.0051293936558067
0.0037491610273718
0.0019938067998737
-1.2598000466823578e-05
-0.002121977508068
-0.0041782618500292
-0.0060314731672406
-0.007549759466201
-0.0086289327591657
-0.0092027364298701
-0.0092567596584558
-0.0088373478502035
-0.008043598383665
-0.0070050745271146
-0.0058582802303135
-0.0047275153920054
-0.0037090447731316
-0.0028619249351322
-0.0022078854963183
-0.0017360839992761
-0.0014086151495575
-0.0011669937521219
-0.0009414860978722
-0.0006609363481402
-0.0002600494772195
0.0003111697733402
0.0010735359974205
0.0020120488479733
0.003085158765316
0.004239194560796
0.0054167434573173
0.0065620495006442
0.0076264031231403
0.0085684116929769
0.0093474779278039
0.0099160997197031
0.0102157527580857
0.010179104283452
0.009739932604134
0.0088497828692197
0.0074971793219447
0.0057186437770724
0.0035947263240814
0.0012378364335745
-0.0012201792560517
-0.0036391383036971
-0.0058806180022656
-0.0078185191377997
-0.0093508847057819
-0.0104103907942771
-0.0109704891219735
-0.0110458061099052
-0.0106887584552168
-0.0099845128133893
-0.0090389885008335
-0.0079588498920202
-0.0068354825489223
-0.0057397494092583
-0.0047214967198669
-0.0038091000169515
-0.0030086315236985
-0.0023020422086119
-0.0016488302499055
-0.0009964276105165
-0.000294248573482
0.0004967483691871
0.0014005941338837
0.0024261469952762
0.0035672020167112
0.0048040482215583
0.0061082178726792
0.0074480571784079
0.0087933298200368
0.0101150562986731
0.0113766025751829
0.0125238858163356
0.0134830698370933
0.0141630284488201
0.0144635159522295
0.0142923928797245
0.0135840466246008
0.0123125119134783
0.0105012971907854
0.0082270447164773
0.0056130304001271
0.0028156007174402
8.868984878063202e-06
-0.0026292642578482
-0.0049320366233587
-0.0067639201879501
-0.0080413157120347
-0.0087414262816309
-0.0088965520262718
-0.008582267910242
-0.0079041924327611
-0.0069836564362049
-0.0059436634182929
-0.004894888959825
-0.0039222696796059
-0.0030778071377426
-0.0023814311716705
-0.0018248101696372
-0.0013761820737272
-0.000986668979749
-0.0005967668257653
-0.0001459897030144
0.0004133896436542
0.0011078262468799
0.0019429624080657
0.0029070149175822
0.0039750458672642
0.0051137655973434
0.0062848222441971
0.0074472520500421
0.0085608921945095
0.0095910569652915
0.0105114560574293
0.0112999211996793
0.0119270356371998
0.0123470006510615
0.0124976318329572
0.0123048741370439
0.0116890231147408
0.0105801271274685
0.0089433323591947
0.0068008452653884
0.0042378571815788
0.0013922383077442
-0.0015631343703716
-0.0044402726925909
-0.0070581040345132
-0.0092626493424177
-0.0109401829540729
-0.0120252640917897
-0.0125073939561843
-0.0124309686943888
-0.0118827624246478
-0.010976044461131
-0.0098408572375774
-0.0086140539497137
-0.0074229016900062
-0.0063674142584204
-0.0055080908350646
-0.0048619131557643
-0.0044059632346034
-0.0040864399634301
-0.0038315777201205
-0.0035660951398313
-0.0032225251197814
-0.0027470611967146
-0.0021022921428084
-0.0012688008137047
-0.0002465019933879
0.0009420588612556
0.002248634584248
0.0036041210405528
0.0049328077584505
0.0061681373044848
0.0072628776542842
0.0081907594576478
0.0089391339570283
0.0094959922134876
0.0098362891003489
0.0099139772355556
0.0096660740673542
0.0090276151895523
0.0079509504139423
0.0064248731359839
0.0044896230101585
0.0022392803803086
-0.0001929812133312
-0.0026569482870399
-0.0050019957125186
-0.0070875147357583
-0.0087941456586122
-0.0100368652492761
-0.0107732787728309
-0.0110053494572639
-0.010778384283185
-0.0101759396493434
-0.0093088913708925
-0.008301455527544
-0.0072746183723211
-0.0063266702927649
-0.0055169775150716
-0.0048638442531228
-0.0043561654165387
-0.0039655421860516
-0.0036534965038299
-0.0033768201246857
-0.0030910936184227
-0.002753562759608
-0.0023284605704247
-0.0017930013127624
-0.001140309497714
-0.0003793407231569
0.0004673087969422
0.0013667540624737
0.0022793728858232
0.0031648343428969
0.0039893146604299
0.0047246031463146
0.0053366143256425
0.0057733813300728
0.0059630330651998
0.0058250408619642
0.0052888942882418
0.0043124901130795
0.0028972355648875
0.001096355728805
-0.0009875418618321
-0.003215495031327
-0.0054317321628332
-0.0074835391715168
-0.0092355227097868
-0.0105774514377117
-0.0114309955388307
-0.0117585947737097
-0.0115719735622406
-0.0109351007267832
-0.0099557545036077
-0.0087668485939502
-0.0075049791485071
-0.0062911249697208
-0.0052172150462865
-0.0043399329297244
-0.0036798729561269
-0.0032247952185571
-0.0029350509867072
-0.0027508786879479
-0.002602229360491
-0.0024177148006856
-0.0021320600062608
-0.0016968254931271
-0.0010913726873695
-0.0003248089924454
0.0005707782693207
0.0015505794435739
0.0025671813637018
0.0035751387476921
0.0045303073711693
0.005388471763581
0.0061025689356029
0.0066178455017507
0.0068691023625433
0.0067849187180399
0.0063010803423821
0.005380536429584
0.0040299072861671
0.0023026247508823
0.0002903863787651
-0.0018885503523051
-0.0040996833704411
-0.0062019377946853
-0.0080590844154357
-0.0095526129007339
-0.0105941593647003
-0.0111348386853933
-0.0111686494201421
-0.0107317119836807
-0.0098992018029093
-0.0087766516953706
-0.0074849231168627
-0.0061425003223121
-0.0048478082753717
-0.0036677250172942
-0.0026380475610494
-0.0017701536417007
-0.0010557421483099
-0.0004694690578617
2.7336747734807432e-05
0.0004797425062861
0.0009312190813943
0.0014190922956913
0.0019740643911063
0.0026207095943391
0.0033748489804565
0.004238199442625
0.0051961541175842
0.0062226150184869
0.0072880978696048
0.008359813131392
0.0093911550939083
0.0103138461709022
0.0110409082844853
0.0114766061305999
0.0115303825587034
0.0111337043344974
0.0102546531707048
0.008905523456633
0.0071433717384934
0.0050648911856114
0.0027976997662335
0.0004889940028078
-0.0017091216286644
-0.0036544031463563
-0.0052263219840824
-0.006338988430798
-0.0069551398046314
-0.0070922332815825
-0.0068166423588991
-0.0062291650101542
-0.0054463893175125
-0.0045824311673641
-0.0037330174818634
-0.0029639657586812
-0.0023076192010194
-0.0017676306888461
-0.0013272929936647
-0.0009550990071147
-0.0006074979901313
-0.0002333475276827
0.0002187003847211
0.0007896260358393
0.0014986371388658
0.0023390101268887
0.0032822510693222
0.0042845187708735
0.0052953409031033
0.0062676891684532
0.0071642678231
0.0079604871571064
0.0086438469588756
0.0092059299349784
0.0096310814842581
0.0098900496959686
0.0099397804588079
0.0097289830446243
0.009211285971105
0.0083596482872962
0.0071726348251104
0.0056746629998087
0.0039169695228338
0.0019792183302342
-3.3282412914559245e-05
-0.0019999253563582
-0.003800215665251
-0.005328397732228
-0.0065032998099923
-0.0072742472402751
-0.0076254378072917
-0.0075791394338011
-0.0071942373178899
-0.0065538072958588
-0.0057456539943814
-0.0048504006117582
-0.0039407876320183
-0.0030811885371804
-0.0023207734338939
-0.0016861396143212
-0.0011800620704889
-0.0007855689618736
-0.0004722743760794
-0.0002027370501309
6.297859363257885e-05
0.0003639649366959
0.000735055655241
0.0012025855248793
0.0017797930631786
0.0024668173864483
0.0032564899884164
0.0041361758485436
0.0050818882882595
0.0060552796348929
0.0070078819990158
0.0078850369900465
0.0086268419399857
0.0091691017150878
0.0094452295452356
0.009391258470714
0.0089564770460128
0.0081166019663214
0.0068832002580165
0.0053060385398566
0.0034705656580626
0.0014934737700968
-0.000486186821945
-0.0023255608975887
-0.0039035673253238
-0.0051399394869804
-0.0059992293827235
-0.0064852172508835
-0.0066318670287728
-0.0064913388341665
-0.0061233006417751
-0.0055917846038937
-0.0049657253548502
-0.0043145189993083
-0.0036985964979976
-0.0031601106747984
-0.0027162805199623
-0.002357070101425
-0.0020481441169977
-0.001741649582982
-0.001394317834638
-0.0009814286604523
-0.0004995283088646
3.887841012328863e-05
0.0006163200596347
0.0012211488792672
0.0018493253737688
0.0024975745473057
0.0031559886410832
0.0038065528497099
0.0044279498979449
0.0050013842992484
0.0055126408115029
0.0059502702206373
0.006300791632384
0.0065399301238358
0.006623325869441
0.0064874375239014
0.0060651930980384
0.005307575687766
0.0041998061351478
0.0027674571610987
0.0010741418227553
-0.0007854290306568
-0.0026949089951813
-0.0045284023508429
-0.0061646634712815
-0.0075016878545284
-0.0084697129204869
-0.0090381372720003
-0.0092128124088048
-0.0090300785377621
-0.0085545685142278
-0.0078760040923953
-0.0070993085391819
-0.0063299676403403
-0.0056578940711915
-0.0051436102949082
-0.0048114843666553
-0.0046499921008944
-0.0046170451678335
-0.0046513802371919
-0.004687251523137
-0.0046654473990201
-0.0045389179140329
-0.0042745498940348
-0.0038521829992532
-0.0032657468691468
-0.0025279009714722
-0.0016712910728529
-0.0007429448887705
0.0002045404398813
0.0011196959530934
0.0019535445608198
0.0026568272151052
0.0031767478212714
0.003457301761955
0.0034466320648789
0.0031098774634301
0.0024409117177128
0.001468073693104
0.0002547058975324
-0.001104085240513
-0.0024935281835496
-0.003800306469202
-0.0049289613962173
-0.0058066952042281
-0.0063844728283584
-0.0066392575390636
-0.0065751047804951
-0.0062208343297243
-0.0056247599422931
-0.0048496644012629
-0.0039687985554337
-0.0030597145669162
-0.0021954146213829
-0.0014345749514177
-0.0008106941822916
-0.0003249899018555
4.704063758254051e-05
0.0003387394826859
0.000581613741815
0.0008066084701567
0.001046618563123
0.0013322876766324
0.0016865176148712
0.002122857607901
0.0026452394668012
0.0032486275304108
0.0039213811978697
0.0046465769410133
0.0054006073623895
0.0061491606757044
0.006844334769994
0.0074276756495237
0.0078345788642764
0.0079951314255595
0.0078381244093179
0.0073051061481237
0.0063699726015329
0.0050526140257716
0.0034203589893877
0.0015803533606231
-0.0003343136049807
-0.0021839011460542
-0.003841359866783
-0.0052055311389267
-0.0062075024470686
-0.0068126297555863
-0.0070181176997721
-0.0068473313003778
-0.0063480678945779
-0.005595326423645
-0.0046877330169081
-0.0037329201586544
-0.0028290897607803
-0.0020504095591604
-0.0014386195689439
-0.0010012695565819
-0.0007159304805099
-0.0005366448312997
-0.0004006307572126
-0.0002380954101681
1.4195218682289124e-05
0.0004010051488876
0.0009447652846574
0.0016498556360602
0.0025048200041055
0.0034772881772369
0.0045146085321903
0.005556097254157
0.0065442100167274
0.0074281790293753
0.0081623625010252
0.0086999759078025
0.0089868865907192
0.0089640785008668
0.0085806334391236
0.0078093437477946
0.0066568967886269
0.00516734784469
0.0034219229128211
0.0015347467269748
-0.0003620395436882
-0.0021418309770524
-0.0037017669528722
-0.0049698371440172
-0.005905445665121
-0.0064964671619236
-0.0067553175613284
-0.0067155961878597
-0.0064279264770448
-0.0059540458023548
-0.0053598689846694
-0.0047088209539651
-0.0040557314641773
-0.0034413365647196
-0.0028872932307422
-0.002392703667283
-0.0019379761070013
-0.0014976901002228
-0.0010517677292227
-0.0005868249572813
-9.18121077120304e-05
0.0004456178285181
0.0010388963855803
0.00169846881181
0.0024267826229333
0.0032158615067601
0.0040501346811652
0.0049119992181658
0.0057825352996587
0.0066379867494106
0.0074484208598732
0.0081764487549662
0.0087720081210136
0.0091680008918046
0.0092845931649208
0.0090429317206144
0.0083837835118174
0.0072865500114858
0.0057805790565907
0.0039432947523891
0.0018906713230535
-0.0002346516121178
-0.0022793298121541
-0.0040993294678628
-0.0055789961479604
-0.0066438592039048
-0.0072635062970221
-0.0074458783492445
-0.0072318175807595
-0.0066928500309586
-0.0059244213625788
-0.0050330669619143
-0.0041236178949475
-0.0032874206081032
-0.0025891349650919
-0.0020560408011078
-0.0016769804060459
-0.0014103925786912
-0.0011961669661104
-0.0009680609218776
-0.0006637591868638
-0.0002329368144273
0.000356575474143
0.0011179412249475
0.0020447189453989
0.0031056045554578
0.004243669565767
0.0053881695494055
0.0064728572033345
0.0074483528733253
0.0082852337509393
0.0089721111580729
0.0095073133707046
0.0098849274218082
0.0100843869149684
0.0100676463916897
0.0097827780991792
0.0091754999011754
0.0082078985869884
0.0068774740211665
0.0052257454954087
0.0033311867155134
0.0012959886807948
-0.0007634030771441
-0.0027252985164523
-0.00447578728199
-0.0059222523123025
-0.0070024156011641
-0.007688011508435
-0.0079844407737255
-0.0079276552423834
-0.0075798709876835
-0.00702342716977
-0.0063483486883342
-0.0056346897035837
-0.0049394154921174
-0.0042960103601217
-0.0037231286987662
-0.0032295805867761
-0.0028119417838752
-0.0024531327653676
-0.0021262294612824
-0.0017996714450418
-0.0014404165558516
-0.0010168446460738
-0.0005037480732426
0.0001125072303693
0.0008300065528601
0.0016297721303999
0.0024801043327897
0.003346991026774
0.0042044222354888
0.0050337105058133
0.0058108661323785
0.0064950035884976
0.0070264372043311
0.00733337784186
0.0073420135304331
0.006987371481955
0.0062259477563202
0.0050471723079681
0.0034795254468917
0.0015905611217021
-0.0005180675070732
-0.0027191527187824
-0.0048702084459364
-0.006822919473052
-0.008435258641839
-0.0095930220559239
-0.0102334907278418
-0.0103557892143726
-0.0100159449502825
-0.0093131382018327
-0.0083701265975832
-0.0073124952614307
-0.0062529100105166
-0.0052812718786299
-0.0044576022773981
-0.0038068247959017
-0.0033189789392054
-0.0029564625583589
-0.0026650419458746
-0.002383713144809
-0.0020501445978879
-0.0016066525131464
-0.0010129985166713
-0.0002591566299088
0.0006329308962449
0.0016192232724279
0.0026475752238184
0.0036688002292066
0.0046430751681327
0.0055430196225643
0.0063539510592818
0.0070697581395506
0.0076831877231597
0.0081740971654653
0.0085024451836943
0.008610937744379
0.0084363305941224
0.0079218298196792
0.0070265154354274
0.0057354606688022
0.0040700314566493
0.0020928825251758
-9.54330898821354e-05
-0.0023672385141253
-0.0045817499049007
-0.0066003771498799
-0.0083022527396678
-0.0095963673666119
-0.0104289120063185
-0.01078627910465
-0.0106934187933802
-0.0102084539830684
-0.0094137834385037
-0.0084059797227382
-0.0072886561974883
-0.0061632669530808
-0.0051145241595804
-0.0041996585205197
-0.0034457128494977
-0.0028501395136117
-0.0023837029002606
-0.0019977095071226
-0.0016335319960489
-0.0012316391803324
-0.0007405494106933
-0.0001243544975295
0.0006343631539493
