bvp
-0.0047462875954806
-0.0053946990519762
-0.0055772638879716
-0.0053185750730335
-0.0046673733741045
-0.003694885643199
-0.0024925416801124
-0.0011612747330218
0.0002050073817372
0.0015362553531304
0.0028040709439665
0.0040397713892161
0.0053528295829892
0.006956148892641
0.009177166968584
0.0124007873237133
0.0169451180845499
0.0229616481810808
0.030437983572483
0.0392912775278091
0.04950587823987
0.061267152428627
0.0750065222382545
0.0912817269563674
0.1104988530278205
0.1325795203447342
0.1567379087209701
0.1814762949943542
0.2047813981771469
0.2244354337453842
0.2383425682783126
0.2447929382324218
0.2426440566778183
0.2314313352108001
0.2114035934209823
0.1834651529788971
0.1490090489387512
0.1096512153744697
0.0669505447149276
0.0222709327936172
-0.0231167674064636
-0.0678009539842605
-0.1101205497980117
-0.1483204364776611
-0.1808608919382095
-0.2066823840141296
-0.2253176569938659
-0.2368611693382263
-0.2418574094772339
-0.2411589324474334
-0.2357842922210693
-0.2267954349517822
-0.2152052819728851
-0.2019125372171402
-0.187659278512001
-0.1730172932147979
-0.1584015190601349
-0.1440973281860351
-0.1302949339151382
-0.1171256080269813
-0.1046978309750557
-0.0931380838155746
-0.0826282501220703
-0.0734179094433784
-0.0657929331064224
-0.0600020289421081
-0.056167259812355
-0.0542080625891685
-0.0538050346076488
-0.0544236749410629
-0.0553916692733764
-0.0560014992952346
-0.0556153059005737
-0.0537573099136352
-0.0501757785677909
-0.0448598377406597
-0.0380104482173919
-0.0299789905548095
-0.0211972668766975
-0.0121168252080678
-0.0031589288264513
0.0053265718743205
0.0130881462246179
0.0199796743690967
0.0259500369429588
0.0310231875628232
0.0352748967707157
0.0388085655868053
0.0417292676866054
0.0441172420978546
0.0460100956261158
0.0474017634987831
0.048256617039442
0.0485348030924797
0.04821652546525
0.0473106354475021
0.0458520576357841
0.0438994355499744
0.0415333658456802
0.0388530604541301
0.0359706804156303
0.0330011360347271
0.0300489254295825
0.027195930480957
0.0244935601949691
0.0219642035663127
0.0196115709841251
0.0174337103962898
0.0154366316273808
0.0136456470936536
0.0121041787788271
0.0108555853366851
0.0099210068583488
0.0092896744608879
0.0089246928691864
0.0087760742753744
0.0087906615808606
0.008915938436985
0.0091060791164636
0.0093362815678119
0.0096155246719717
0.0099847158417105
0.0105007104575634
0.0112140113487839
0.0121480636298656
0.0132889216765761
0.0145866777747869
0.0159624963998794
0.0173192732036113
0.0185560770332813
0.0195828936994075
0.0203323159366846
0.0207653939723968
0.0208688024431467
0.0206482969224452
0.0201273746788501
0.0193500276654958
0.0183799378573894
0.0172921791672706
0.0161598604172468
0.0150436181575059
0.0139886867254972
0.0130249103531241
0.0121655771508812
0.0114080216735601
0.010738412849605
0.0101380320265889
0.0095868501812219
0.0090651307255029
0.0085575636476278
0.0080580236390233
0.0075675826519727
0.007085901685059
0.0066036898642778
0.0060992622748017
0.0055379718542099
0.0048766639083623
0.0040725525468587
0.003089053556323
0.001895323395729
0.000467138364911
-0.0012052059173583
-0.0031090974807739
-0.0052088219672441
-0.0074485670775175
-0.0097557716071605
-0.0120470952242612
-0.0142386946827173
-0.0162562765181064
-0.0180389657616615
-0.019534908235073
-0.0206915587186813
-0.0214487630873918
-0.0217421427369117
-0.0215186327695846
-0.0207574609667062
-0.0194819420576095
-0.0177544597536325
-0.0156629513949155
-0.013308985158801
-0.0107973963022232
-0.0082250982522964
-0.0056724324822425
-0.0032013952732086
-0.0008596032857894
0.0013146921992301
0.0032910406589508
0.0050495862960815
0.006585968658328
0.0079162828624248
0.0090758875012397
0.0101078934967517
0.0110508818179368
0.0119339302182197
0.0127764698117971
0.0135915055871009
0.0143911503255367
0.0151901636272668
0.0160029139369726
0.0168328490108251
0.0176607053726911
0.0184393189847469
0.0190968755632638
0.0195471793413162
0.0197068490087986
0.0195162817835807
0.0189535748213529
0.0180350840091705
0.0168102197349071
0.0153586808592081
0.0137874204665422
0.0122198443859815
0.0107774622738361
0.0095620509237051
0.0086427144706249
0.0080481301993131
0.0077648237347602
0.007742702960968
0.007907448336482
0.0081758350133895
0.0084710363298654
0.0087369903922081
0.0089453440159559
0.0090898592025041
0.0091777518391609
0.0092278644442558
0.0092714633792638
0.0093505531549453
0.0095159979537129
0.0098279258236289
0.01035519503057
0.0111666880548
0.0123140607029199
0.0138151636347174
0.0156456045806407
0.0177401639521121
0.0200027171522378
0.0223193801939487
0.0245654135942459
0.0266038067638874
0.0282887630164623
0.0294818840920925
0.0300734229385852
0.0299997813999652
0.0292520634829998
0.0278744548559188
0.0259547084569931
0.0236087441444396
0.0209614038467407
0.0181270875036716
0.0151956910267472
0.0122274896129965
0.0092561617493629
0.0062967613339424
0.0033517894335091
0.0004111598245799
-0.0025446554645895
-0.005531198810786
-0.0085454350337386
-0.0115602640435099
-0.0145285613834857
-0.0173912718892097
-0.0200852304697036
-0.0225508660078048
-0.0247394647449255
-0.0266171395778656
-0.0281637199223041
-0.0293674021959304
-0.0302190594375133
-0.0307091623544693
-0.030828645452857
-0.0305729694664478
-0.0299406182020902
-0.0289248153567314
-0.0275131594389677
-0.0257022976875305
-0.0235185995697975
-0.0210312530398368
-0.0183488056063652
-0.0156018678098917
-0.012923820875585
-0.0104370322078466
-0.0082437498494982
-0.0064190286211669
-0.0050033284351229
-0.0039968937635421
-0.003364342264831
-0.0030518630519509
-0.0030054412782192
-0.0031780488789081
-0.0035291472449898
-0.0040265992283821
-0.0046512614935636
-0.0053988923318684
-0.0062787430360913
-0.0073101883754134
-0.0085169617086648
-0.0099192708730697
-0.0115245888009667
-0.0133177936077117
-0.0152526814490556
-0.0172487627714872
-0.0191990807652473
-0.0209894329309463
-0.0225172359496355
-0.023699764162302
-0.0244760829955339
-0.0248116590082645
-0.024707481265068
-0.0242063235491514
-0.0233874637633562
-0.0223511699587106
-0.0212000645697116
-0.0200217626988887
-0.0188757553696632
-0.0177864823490381
-0.0167410597205162
-0.0156893711537122
-0.0145514365285635
-0.0132370311766862
-0.0116687957197427
-0.0097999852150678
-0.0076283374801278
-0.0052018971182405
-0.0026100664399564
3.504287451505661e-05
0.0026199580170214
0.005049689207226
0.0072591938078403
0.0092154638841748
0.0109156537801027
0.0123810032382607
0.0136454608291387
0.014743915759027
0.0157000701874494
0.0165134705603122
0.0171564072370529
0.0175873823463916
0.0177709087729454
0.0176886320114135
0.0173394568264484
0.0167376510798931
0.0159125477075576
0.0149072939530015
0.0137754455208778
0.0125737274065613
0.0113516375422477
0.0101423794403672
0.0089617324993014
0.0078182145953178
0.006723194848746
0.005689637735486
0.0047286413609981
0.0038537317886948
0.0030867252498865
0.0024564424529671
0.0019904188811779
0.0017067492008209
0.001611110754311
0.0016985666006803
0.0019598379731178
0.0023898147046566
0.002992607653141
0.0037812041118741
0.0047744838520884
0.0059920609928667
0.0074424315243959
0.0091031594201922
0.0109032709151506
0.0127237066626548
0.0144201889634132
0.0158555321395397
0.0169273689389228
0.0175842233002185
0.017826247960329
0.0176952946931123
0.0172614678740501
0.016606306657195
0.0158065930008888
0.0149268191307783
0.0140204057097435
0.0131345372647047
0.0123086981475353
0.0115614030510187
0.0108771547675132
0.0102045889943838
0.0094631174579262
0.0085551459342241
0.0073845470324158
0.0058786682784557
0.0040064165368676
0.0017863397952169
-0.0007150415331125
-0.0033902544528245
-0.0061001582071185
-0.0086870081722736
-0.0109917931258678
-0.0128715001046657
-0.014216274023056
-0.014968292787671
-0.0151343187317252
-0.0147821148857474
-0.0140218082815408
-0.0129840858280658
-0.0118048284202814
-0.0106117026880383
-0.0095084439963102
-0.0085635557770729
-0.0078061232343316
-0.0072265090420842
-0.006785056553781
-0.0064288359135389
-0.0061066360212862
-0.0057761613279581
-0.0054099685512483
-0.0050027472898364
-0.0045693246647715
-0.0041305455379188
-0.0037006787024438
-0.0032858077902346
-0.0028874378185719
-0.002506053308025
-0.0021480740979313
-0.001834386610426
-0.0016012411797419
-0.0014916674699634
-0.0015455191023647
-0.0017928145825862
-0.0022456040605902
-0.0028885027859359
-0.0036797660868614
-0.0045653409324586
-0.0054903030395507
-0.006399717181921
-0.0072391214780509
-0.0079600336030125
-0.0085241552442312
-0.0089049506932497
-0.0090904915705323
-0.0090856319293379
-0.0089088091626763
-0.0085852686315774
-0.0081423837691545
-0.0076077561825513
-0.0070060756988823
-0.0063530998304486
-0.0056545259431004
-0.0049167163670063
-0.0041581685654819
-0.0034086515661329
-0.002700435463339
-0.0020596841350197
-0.0015012649819254
-0.0010298737324774
-0.0006457450799643
-0.000350161222741
-0.0001493766903877
-5.530938506126404e-05
-8.112005889415741e-05
-0.0002344348467886
-0.0005095615051686
-0.0008797454647719
-0.001298448536545
-0.0017140810377895
-0.0020863027311861
-0.002391476649791
-0.0026186546310782
-0.002763935830444
-0.0028279959224164
-0.0028160996735095
-0.0027369624003767
-0.0026006894186139
-0.0024194242432713
-0.0022080922499299
-0.0019795689731836
-0.0017374316230416
-0.0014729034155607
-0.0011657560244202
-0.0007906109094619
-0.0003303177654743
0.0002152994275093
0.0008326582610607
0.0015005962923169
0.0021945340558886
0.0028896369040012
0.003561629448086
0.0041866987012326
0.004742715973407
0.0052113430574536
0.0055807377211749
0.0058483676984906
0.0060243788175284
0.0061355577781796
0.0062249191105365
0.0063415821641683
0.0065242485143244
0.0067889909259974
0.0071281348355114
0.0075182621367275
0.007931544445455
0.0083461171016097
0.0087532168254256
0.0091575570404529
0.0095709087327122
0.0100037408992648
0.0104563515633344
0.0109119145199656
0.0113373156636953
0.0116921626031398
0.011940911412239
0.0120592005550861
0.012029880657792
0.0118378093466162
0.0114707071334123
0.0109232580289244
0.0102032553404569
0.0093376925215125
0.0083721671253442
0.0073633138090372
0.0063701001927256
0.0054459301754832
0.004630743060261
0.0039457790553569
0.0033954791724681
0.002976790536195
0.0026885136030614
0.0025300232227891
0.0024909395724534
0.0025468009989708
0.0026661099400371
0.0028205756098031
0.0029916707426309
0.0031705033034086
0.003353061620146
0.0035352050326764
0.0037079900503158
0.0038548163138329
0.0039531425572931
0.0039796396158635
0.0039159557782113
0.0037552986759692
0.0035100060049444
0.0032109024468809
0.002891773590818
0.0025712938513606
0.0022464296780526
0.0018970090895891
0.0014955224469304
0.0010193050839006
0.0004616235382854
-0.0001648976467549
-0.0008338335901498
-0.0015133661217987
-0.0021719550713896
-0.0027809315361082
-0.0033164536580443
-0.0037607639096677
-0.0041014403104782
-0.0043343920260667
-0.0044735958799719
-0.0045560952275991
-0.0046338350512087
-0.0047581982798874
-0.0049674329347908
-0.0052815126255154
-0.0057004238478839
-0.0062030348926782
-0.0067513333633542
-0.0073013547807931
-0.0078141698613762
-0.008261845447123
-0.0086277332156896
-0.0089020803570747
-0.0090768607333302
-0.0091466130688786
-0.0091153811663389
-0.0089999623596668
-0.0088239936158061
-0.0086075328290462
-0.0083616636693477
-0.008093113079667
-0.0078105060383677
-0.0075244870968163
-0.0072458442300558
-0.0069838245399296
-0.0067436788231134
-0.0065261423587799
-0.0063289636746048
-0.0061476398259401
-0.0059765623882412
-0.0058169104158878
-0.0056872102431952
-0.0056206150911748
-0.0056481310166418
-0.0057826740667223
-0.0060138618573546
-0.0063128261826932
-0.0066398587077856
-0.0069512207992374
-0.0072067743167281
-0.0073783081024885
-0.0074560539796948
-0.007451276294887
-0.0073949019424617
-0.0073299165815114
-0.0072955298237502
-0.0073155332356691
-0.0074019506573677
-0.007561826147139
-0.0077948821708559
-0.0080877617001533
-0.0084125101566314
-0.0087288171052932
-0.0089884875342249
-0.0091424277052283
-0.0091471085324883
-0.0089678354561328
-0.008581225760281
-0.0079785697162151
-0.0071678701788187
-0.0061713485047221
-0.0050196070224046
-0.00374920014292
-0.002406139858067
-0.0010495749302208
0.0002496396191418
0.001414711587131
0.002370583359152
0.0030538579449057
0.0034240405075252
0.0034715998917818
0.0032191341742873
0.0027153212577104
0.0020249285735189
0.0012189103290438
0.0003672642633318
-0.0004634521901607
-0.0012093624100089
-0.0018121656030416
-0.0022286847233772
-0.0024380506947636
-0.0024388460442423
-0.0022399490699172
-0.0018508173525333
-0.0012759873643517
-0.000518986955285
0.0004075933247804
0.0014765691012144
0.002647959627211
0.0038714539259672
0.0050875544548034
0.0062321871519088
0.0072470111772418
0.0080913305282592
0.0087460204958915
0.0092083550989627
0.0094898343086242
0.0096204169094562
0.0096508357673883
0.0096497246995568
0.0096975388005375
0.0098767783492803
0.0102563388645648
0.0108718629926443
0.0117101985961198
0.0127062052488327
0.0137549163773655
0.0147353196516633
0.0155354551970958
0.0160703137516975
0.016287337988615
0.0161578971892595
0.0156677179038524
0.0148196741938591
0.0136443506926298
0.0122093185782432
0.0106232380494475
0.0090311970561742
0.0075978967361152
0.0064797927625477
0.0057926550507545
0.0055848681367933
0.0058281351812183
0.0064293537288904
0.0072559514082968
0.0081643499433994
0.009021122008562
0.0097113391384482
0.0101412702351808
0.0102430917322635
0.009979335591197
0.0093421377241611
0.0083470325917005
0.0070265410467982
0.0054281312040984
0.0036146221682429
0.0016616492066532
-0.0003487467765808
-0.0023351141717284
-0.0042213900014758
-0.0059372559189796
-0.0074162348173558
-0.0085985623300075
-0.0094405338168144
-0.0099222157150506
-0.0100468480959534
-0.0098363673314452
-0.0093285338953137
-0.0085735395550727
-0.0076270224526524
-0.0065417238511145
-0.0053615025244653
-0.00411993637681
-0.0028472864069044
-0.001583494246006
-0.0003865652251988
0.0006705647101625
0.0015125358477234
0.0020735312718898
0.0023025509435683
0.0021680733188986
0.0016669060569256
0.0008331661811098
-0.0002591179800219
-0.0015052293892949
-0.0027886575553566
-0.0039993338286876
-0.0050453911535441
-0.0058607109822332
-0.0064101386815309
-0.0066899433732032
-0.0067208483815193
-0.0065362728200852
-0.0061722393147647
-0.0056646768935024
-0.005054741166532
-0.0043945075012743
-0.0037446788046509
-0.0031634720508009
-0.002693188842386
-0.0023522372357547
-0.0021354930941015
-0.0020200575236231
-0.0019698715768754
-0.001939102075994
-0.0018788191955536
-0.0017445046687498
-0.0015016999095678
-0.0011281060287728
-0.0006114111165516
4.818150773644447e-05
0.0008280648034997
0.0016782958991825
0.0025267470628023
0.0032882753293961
0.0038740509189665
0.0042018741369247
0.00420857174322
0.0038604922592639
0.0031576403416693
0.0021336283534765
0.0008525802404619
-0.0005979390116408
-0.0021145467180758
-0.0035843334626406
-0.0048913564532995
-0.0059281066060066
-0.0066147735342383
-0.0069152056239545
-0.0068385992199182
-0.0064305714331567
-0.0057609467767179
-0.0049128904938697
-0.0039741988293826
-0.0030283096712082
-0.0021458293776959
-0.0013790108496323
-0.0007595751085318
-0.0002992459922097
9.124574717134236e-06
0.0001927660196088
0.0002998994314111
0.0003907743375748
0.0005193548859097
0.0007198898820206
0.0010046191746369
0.0013674376532435
0.0017893119947984
0.002243694383651
0.0027002932038158
0.0031281863339245
0.0034986236132681
0.0037827068008482
0.0039438903331756
0.0039335051551461
0.0036943291779607
0.0031717158854007
0.0023294794373214
0.0011620302684605
-0.0003043802280444
-0.0020150132477283
-0.0038866596296429
-0.0058093764819204
-0.007657035253942
-0.009303574450314
-0.0106395166367292
-0.0115864779800176
-0.0121044376865029
-0.0121883312240242
-0.0118604023009538
-0.0111653804779052
-0.0101670417934656
-0.0089426822960376
-0.0075761014595627
-0.0061514927074313
-0.0047486582770943
-0.003436466678977
-0.0022644000127911
-0.0012568547390401
-0.000412278342992
0.000293472316116
0.0009005893953144
0.0014564869925379
0.0020052692852914
0.0025788822676986
0.0031932326965034
0.003849018830806
0.0045362580567598
0.0052407942712306
0.0059475996531546
0.0066335536539554
0.0072524878196418
0.0077278614044189
0.007962105795741
0.0078585557639598
0.0073473425582051
0.0064061135053634
0.0050690113566815
0.0034229699522256
0.0015938896685838
-0.0002737510949373
-0.0020392006263136
-0.0035838424228131
-0.0048202848993241
-0.0056924945674836
-0.0061731291934847
-0.006263377610594
-0.0059949811547994
-0.0054279430769383
-0.0046406774781644
-0.0037173572927713
-0.0027374625205993
-0.0017699375748634
-0.00087096914649
-8.104182779788971e-05
0.0005791774019598
0.0011111130006611
0.0015391879715025
0.0019095954485237
0.0022834716364741
0.0027280463837087
0.003310150001198
0.0040857847779989
0.0050834827125072
0.0062936912290751
0.0076729888096451
0.0091590294614434
0.0106874099001288
0.0122031308710575
0.0136645250022411
0.0150406323373317
0.0163038484752178
0.0174212269484996
0.0183468237519264
0.0190167035907506
0.0193496868014335
0.0192571375519037
0.0186600312590599
0.0175044704228639
0.0157693438231945
0.0134689062833786
0.0106555633246898
0.0074229752644896
0.0039040159899741
0.000260414526565
-0.0033325096592307
-0.0067017981782555
-0.0096923187375068
-0.0121829025447368
-0.0141012491658329
-0.0154306786134839
-0.0162056889384984
-0.0164983868598938
-0.016397563740611
-0.0159887988120317
-0.0153474016115069
-0.0145421288907527
-0.013637650758028
-0.0126896882429718
-0.011735675856471
-0.0107884500175714
-0.0098382253199815
-0.0088606346398592
-0.0078249815851449
-0.0067011564970016
-0.0054682865738868
-0.0041243536397814
-0.0026890076696872
-0.0011952361091971
0.0003229617141187
0.0018358026864007
0.0033139910083264
0.0047241239808499
0.006026264745742
0.0071691256016492
0.0080840922892093
0.0086851501837372
0.0088782925158739
0.0085771773010492
0.0077209062874317
0.0062928954139351
0.0043347640894353
0.0019462563795968
-0.0007267920300364
-0.0035070502199232
-0.006200545001775
-0.008616792038083
-0.0105938548222184
-0.0120183750987052
-0.0128331128507852
-0.0130334617570042
-0.0126579515635967
-0.0117798335850238
-0.0105054173618555
-0.0089743342250585
-0.0073517612181603
-0.0058107813820242
-0.0045095039531588
-0.0035671917721629
-0.0030447547324001
-0.002932921051979
-0.0031474945135414
-0.003538757096976
-0.0039201481267809
-0.004101803060621
-0.003916417248547
-0.0032401559874415
-0.0020089973695576
-0.0002251546829938
0.0020480179227888
0.0046984530054032
0.007581521756947
0.0105384308844804
0.013411521911621
0.0160502810031175
0.0183093231171369
0.0200489740818738
0.0211465656757354
0.021511036902666
0.0210918337106704
0.0198861919343471
0.0179475098848342
0.0153870582580566
0.0123633723706007
0.0090633258223533
0.005682157818228
0.0024052259977906
-0.0006090006791055
-0.0032429518178105
-0.005425470881164
-0.0071266870945692
-0.0083489585667848
-0.009118266403675
-0.0094750542193651
-0.0094694886356592
-0.0091629931703209
-0.0086258500814437
-0.0079242633655667
-0.0071015483699738
-0.0061632166616618
-0.0050761345773935
-0.0037839689757674
-0.0022282155696302
-0.0003643536474555
0.0018287303391844
0.0043437490239739
0.0071402145549654
0.0101403780281543
0.0132320066913962
0.0162802040576934
0.0191404931247234
0.0216654483228921
0.0237114690244197
0.0251514818519353
0.0258862059563398
0.0258479937911033
0.0249996464699506
0.0233343858271837
0.0208800137042999
0.0177042968571186
0.0139177870005369
0.0096719795837998
0.0051513835787773
0.0005588736385107
-0.0039021964184939
-0.0080431792885065
-0.0117046171799302
-0.0147727970033884
-0.0171909220516681
-0.0189600177109241
-0.0201317872852087
-0.0207947641611099
-0.0210581552237272
-0.0210402980446815
-0.0208614058792591
-0.0206351578235626
-0.0204577296972274
-0.0203967057168483
-0.0204828307032585
-0.0207055415958166
-0.0210095550864934
-0.0212931260466575
-0.0214183796197175
-0.0212382301688194
-0.0206282865256071
-0.0195125322788953
-0.0178782530128955
-0.0157772172242403
-0.0133147509768605
-0.0106322327628731
-0.0078847184777259
-0.0052147414535284
-0.0027319982182234
-0.0005078598624095
0.0014163617743179
0.0030117051210254
0.0042444714345037
0.0050726048648357
0.0054532904177904
0.0053516277112066
0.0047529153525829
0.0036821472458541
0.0022197959478944
0.000502786017023
-0.0012892765225842
-0.0029593049548566
-0.0043258513323962
-0.0052549820393323
-0.005680238828063
-0.005608394742012
-0.0051141967996954
-0.0043239379301667
-0.0033861002884805
-0.0024363389238715
-0.0015727770514786
-0.0008498253300786
-0.0002847835421562
0.0001314398832619
0.0004242062568664
0.0006278143264353
0.0007830378599464
0.0009397007524967
0.0011591077782213
0.0015102513134479
0.0020592575892806
0.0028565232641994
0.0039267977699637
0.0052651278674602
0.0068408930674195
0.0086093228310346
0.0105218589305877
0.012529045343399
0.0145798567682504
0.0166217107325792
0.0186002012342214
0.0204555317759513
0.0221153143793344
0.0234891362488269
0.0244714301079511
0.0249529220163822
0.024835642427206
0.024048987776041
0.022566981613636
0.0204233340919017
0.0177200399339199
0.0146258184686303
0.0113577451556921
0.0081477118656039
0.0052095283754169
0.0027177962474524
0.0007968253921717
-0.0004836898297071
-0.0011071413755416
-0.0011053036432713
-0.0005537227261811
0.0004326160997152
0.0017053806222975
0.0030942326411604
0.0044241859577596
0.0055348831228911
0.0062988502904772
0.0066354018636047
0.0065138093195855
0.0059459311887621
0.0049777403473854
0.0036836806684732
0.0021596439182758
0.0005138413980603
-0.0011436734348535
-0.002713294699788
-0.00411620689556
-0.0052945003844797
-0.0061982972547411
-0.0067701684311032
-0.0069402633234858
-0.0066359671764075
-0.0058017438277602
-0.0044252071529626
-0.0025660032406449
-0.0003761379048228
0.0019060987979173
0.0039922073483467
0.005592037923634
0.0064607039093971
0.0064415540546178
0.0054968930780887
0.0037124305963516
0.0012711212038993
-0.0015931539237499
-0.0046439301222562
-0.0076802289113402
-0.0105603011325001
-0.0132095953449606
-0.0156153785064816
-0.0178134106099605
-0.0198701675981283
-0.0218624081462621
-0.0238558538258075
-0.0258840732276439
-0.027933107689023
-0.0299424156546592
-0.0318248234689235
-0.0334959924221038
-0.0349002406001091
-0.0360210239887237
-0.0368710905313491
-0.0374713875353336
-0.0378334634006023
-0.0379515849053859
-0.0378050059080123
-0.0373723544180393
-0.0366556495428085
-0.0357021614909172
-0.0346156805753707
-0.0335571095347404
-0.0327291674911975
-0.0323377586901187
-0.0325376130640506
-0.0333846025168895
-0.034811295568943
-0.0366295054554939
-0.0385577008128166
-0.0402637720108032
-0.0414118990302085
-0.0417104884982109
-0.0409591048955917
-0.0390875749289989
-0.036176711320877
-0.0324491783976554
-0.0282290875911712
-0.0238818526268005
-0.0197506211698055
-0.0161012634634971
-0.0130804851651191
-0.0106970742344856
-0.0088361464440822
-0.0072952061891555
-0.0058266855776309
-0.0041848234832286
-0.0021716393530368
0.0003371275961399
0.0034013427793979
0.0070444010198116
0.011264182627201
0.0160158276557922
0.0211834199726581
0.0265650562942028
0.0318888761103153
0.0368589088320732
0.0412139594554901
0.0447795316576957
0.0474981591105461
0.0494325384497642
0.050743743777275
0.0516522675752639
0.0523919872939586
0.0531666241586208
0.0541142672300338
0.0552795752882957
0.0565979108214378
0.0579040311276912
0.0589685663580894
0.0595509819686412
0.0594526305794715
0.0585555024445056
0.0568408668041229
0.0543890036642551
0.0513632483780384
0.0479837507009506
0.0444972664117813
0.0411472208797931
0.0381470546126365
0.0356622263789176
0.0338022634387016
0.0326140560209751
0.0320728197693824
0.032082263380289
0.0324914194643497
0.0331206880509853
0.0337887927889823
0.0343374274671077
0.0346491746604442
0.0346567519009113
0.0343461111187934
0.0337522998452186
0.0329460576176643
0.0320152640342712
0.0310487691313028
0.0301281213760375
0.0293244067579507
0.0286916941404342
0.0282556414604187
0.0280053839087486
0.0278969518840312
0.0278671942651271
0.0278492607176303
0.02778204344213
0.0276123248040676
0.0272920746356248
0.026771480217576
0.0259873922914266
0.0248533580452203
0.0232601128518581
0.0210878960788249
0.0182287003844976
0.0146161830052733
0.0102508179843425
0.0052074287086725
-0.0003694351762533
-0.0062733367085456
-0.0122499819844961
-0.0180212669074535
-0.023316690698266
-0.0279038865119218
-0.0316105410456657
-0.0343379899859428
-0.0360684990882873
-0.0368633083999156
-0.0368498340249061
-0.0362029187381267
-0.0351227894425392
-0.0338096693158149
-0.0324436984956264
-0.0311744511127471
-0.0301109440624713
-0.0293108001351356
-0.0287774093449115
-0.0284657794982194
-0.0282922983169555
-0.0281492136418819
-0.0279233176261186
-0.0275133550167083
-0.0268432833254337
-0.0258711203932762
-0.0245921239256858
-0.0230357609689235
-0.0212579891085624
-0.0193303991109132
-0.0173318162560462
-0.0153455827385187
-0.0134551320225
-0.011736998334527
-0.0102606639266014
-0.0090976860374212
-0.0083330124616622
-0.0080680176615715
-0.008409347385168
-0.0094461627304553
-0.0112236030399799
-0.0137217584997415
-0.0168469939380884
-0.020436218008399
-0.0242688748985528
-0.0280832834541797
-0.0316019877791404
-0.0345667004585266
-0.0367698818445205
-0.0380737371742725
-0.0384209267795085
-0.0378395393490791
-0.0364375077188015
-0.0343834720551967
-0.0318805053830146
-0.0291410833597183
-0.0263652112334966
-0.0237227324396371
-0.0213406756520271
-0.0192921347916126
-0.0175878684967756
-0.0161784049123525
-0.0149708185344934
-0.0138548919931054
-0.0127252107486128
-0.0114924134686589
-0.0100898072123527
-0.0084796110168099
-0.0066554909572005
-0.0046392325311899
-0.0024738423526287
-0.0002160426229238
0.0020703170448541
0.0043183658272027
0.0064569879323244
0.0084037948399782
0.010059256106615
0.0113084502518177
0.0120277684181928
0.012096470221877
0.0114189870655536
0.0099531635642051
0.0077322209253907
0.0048746149986982
0.0015792399644851
-0.0018951073288917
-0.0052602645009756
-0.008231870830059
-0.0105627961456775
-0.0120728081092238
-0.012667816132307
-0.0123470379039645
-0.0111958011984825
-0.009363037534058
-0.0070361783728003
-0.0044236863031983
-0.0017375573515892
0.0008297702297568
0.0031268992461264
0.0050567733123898
0.0065821288153529
0.0077241044491529
0.0085530392825603
0.0091731958091259
0.0097043700516223
0.0102623086422681
0.0109422020614147
0.0118087967857718
0.0128937009721994
0.0141988648101687
0.0156996846199035
0.0173440128564834
0.0190541613847017
0.0207352470606565
0.0222831405699253
0.0235865972936153
0.0245250780135393
0.0249688699841499
0.0247876346111297
0.0238681677728891
0.0221368893980979
0.0195803456008434
0.0162596106529235
0.0123148383572697
0.007957573980093
0.003452094271779
-0.0009142528288066
-0.0048669590614736
-0.0081751989200711
-0.0106726912781596
-0.0122685823589563
-0.0129493093118071
-0.0127748977392911
-0.0118689099326729
-0.0103995138779282
-0.0085564963519573
-0.006531081162393
-0.0044990838505327
-0.0026053744368255
-0.0009507928043603
0.0004163277335464
0.0015019429847598
0.0023571667261421
0.003059088718146
0.0036913161166012
0.0043306942097842
0.0050390474498271
0.0058592348359525
0.0068155261687934
0.0079145105555653
0.009143391624093
0.0104690957814455
0.011842718347907
0.0132075473666191
0.0145070273429155
0.0156901869922876
0.0167112499475479
0.0175241976976394
0.0180733613669872
0.0182809382677078
0.0180427841842174
0.0172429047524929
0.0157823041081428
0.01360884308815
0.0107377711683511
0.0072605367749929
0.0033411784097552
-0.0008003506809473
-0.0049146255478262
-0.0087525974959135
-0.012092899531126
-0.0147631987929344
-0.016653511673212
-0.0177201479673385
-0.0179834105074405
-0.0175241511315107
-0.0164753384888172
-0.0150033272802829
-0.0132854152470827
-0.0114902621135115
-0.009760932996869
-0.0082025397568941
-0.0068761082366108
-0.0057970066554844
-0.0049390825442969
-0.004245291929692
-0.0036406903527677
-0.0030447468161582
-0.0023823734372854
-0.0015932768583297
-0.0006407527253031
0.0004814388230443
0.001749507151544
0.0031176395714282
0.0045281834900379
0.0059207938611507
0.0072397207841277
0.0084394356235861
0.0094882603734731
0.0103663709014654
0.0110554844141006
0.0115250032395124
0.0117247160524129
0.0115881534293293
0.0110440393909811
0.0100334081798791
0.008525263518095
0.0065246950834989
0.0040771188214421
0.001270592212677
-0.0017664786428213
-0.0048732878640294
-0.0078714955598115
-0.0105856638401746
-0.0128638176247477
-0.0145937725901603
-0.0157126411795616
-0.0162096209824085
-0.0161242727190256
-0.015538795851171
-0.0145617295056581
-0.0133098764345049
-0.0119001884013414
-0.0104489559307694
-0.0090654622763395
-0.007838262245059
-0.0068209967575967
-0.0060245599597692
-0.0054200156591832
-0.0049495440907776
-0.0045407311990857
-0.0041218670085072
-0.0036339573562145
-0.0030363164842128
-0.0023085111752152
-0.0014518201351165
-0.0004875632002949
0.0005504172295331
0.0016237655654549
0.0026923650875687
0.0037145614624023
0.004650174640119
0.0054672006517648
0.0061459951102733
0.0066737886518239
0.007032448425889
0.0071895653381943
0.0070985220372676
0.0067061530426144
0.0059645539149641
0.004844220355153
0.0033461041748523
0.0015114918351173
-0.0005729375407099
-0.0027825846336781
-0.0049752118065953
-0.0070113586261868
-0.0087689766660332
-0.010155951604247
-0.0111187491565942
-0.0116423442959785
-0.0117430314421653
-0.0114609654992818
-0.010855471715331
-0.0100000714883208
-0.0089761912822723
-0.0078671099618077
-0.0067506479099392
-0.0056894090957939
-0.0047220322303473
-0.0038616678211838
-0.0031031526159495
-0.0024312189780175
-0.0018233321607112
-0.0012509077787399
-0.0006834845989942
-9.325845167040824e-05
0.0005425862036645
0.0012399267870932
0.0020046769641339
0.0028299475088715
0.0036963110323995
0.004576701670885
0.0054436009377241
0.0062760324217379
0.0070635387673974
0.0077999224886298
0.0084666945040225
0.0090198470279574
0.0093905832618474
0.0094994204118847
0.0092773213982582
0.008685746230185
0.0077290651388466
0.0064558023586869
0.0049503808841109
0.0033212723210453
0.0016892537241801
0.0001763041364029
-0.0011049257591366
-0.0020611290819942
-0.0026276581920683
-0.0027775131165981
-0.0025292064528912
-0.0019478457979857
-0.0011340936180204
-0.0002033770433627
0.000736447633244
0.0015999909956008
0.0023290065582841
0.0028919179458171
0.0032824175432324
0.0035167604219168
0.0036281684879213
0.0036595619749277
0.0036578718572854
0.0036702747456729
0.0037410417571663
0.0039067547768354
0.0041878740303218
0.0045816735364496
0.0050638383254408
0.0055977115407586
0.0061429035849869
0.0066590551286935
0.0071105887182056
0.0074739381670951
0.0077374726533889
0.0078917695209383
0.0079196272417902
0.0077912556007504
0.0074658212251961
0.0069029740989208
0.006080528255552
0.0050026662647724
0.0036933845840394
0.0021891887299716
0.0005408045835793
-0.0011821510270237
-0.0028926986269652
-0.0044960281811654
-0.0059023443609476
-0.0070373089984059
-0.0078495545312762
-0.0083171911537647
-0.0084494911134243
-0.0082816760987043
-0.0078683560714125
-0.0072781862691044
-0.006585163064301
-0.0058571971021592
-0.0051511847414076
-0.0045142374001443
-0.0039814948104321
-0.0035700476728379
-0.0032748340163379
-0.0030701442155987
-0.0029167544562369
-0.0027707917615771
-0.0025905936490744
-0.0023409496061503
-0.0019964033272117
-0.0015445231692865
-0.0009879937861114
-0.0003427134361118
0.0003689366858452
0.001122144749388
0.001885456033051
0.0026175114326179
0.0032722894102334
0.0038063456304371
0.0041822679340839
0.004368825815618
0.0043397680856287
0.0040745688602328
0.0035621072165668
0.0028047589585185
0.0018208569381386
0.0006450847722589
-0.0006721643730998
-0.0020643237512558
-0.0034491722472012
-0.0047373292036354
-0.0058474438264966
-0.0067181289196014
-0.0073146945796906
-0.007632253691554
-0.0076910695061087
-0.0075266985222697
-0.0071827210485935
-0.0067058936692774
-0.006141657475382
-0.0055317124351859
-0.0049134660512208
-0.0043193148449063
-0.0037737607490271
-0.0032882941886782
-0.0028584247920662
-0.0024670660495758
-0.0020927106961607
-0.0017167967744171
-0.0013272652868181
-0.0009182603098452
-0.0004875648301094
-3.4872908145189285e-05
0.0004385174252092
0.0009299905505031
0.0014363538939505
0.0019539101049304
0.0024768577422946
0.002995926188305
0.0034987819381058
0.0039713066071271
0.0043983971700072
0.0047600460238754
0.0050231432542204
0.0051406947895884
0.0050629493780434
0.0047508673742413
0.0041846367530524
0.0033678193576633
0.0023296284489333
0.0011246223002672
-0.0001723086461424
-0.0014743227511644
-0.0026930314488708
-0.0037500648759305
-0.0045846691355109
-0.0051535847596824
-0.0054282220080494
-0.0053987330757081
-0.0050860256887972
-0.0045481999404728
-0.0038698348216712
-0.0031409519724547
-0.002440471202135
-0.0018284483812749
-0.0013416414149105
-0.0009901947341859
-0.0007583205588161
-0.0006102453917264
-0.0004997155629098
-0.0003797854296863
-0.0002094702795147
4.460476338863373e-05
0.0004099747166037
0.0009054238907992
0.0015300726518034
0.0022573261521756
0.0030433614738285
0.0038417009636759
0.0046123792417347
0.0053235264495015
0.0059497077018022
0.0064704637043178
0.0068686204031109
0.0071285162121057
0.0072348844259977
0.0071713738143444
0.0069210790097713
0.0064751291647553
0.0058450018987059
0.0050630895420908
0.0041713435202836
0.0032149581238627
0.0022444846108555
0.0013150675222277
0.0004807161167263
-0.0002099447883665
-0.0007170499302446
-0.0010153446346521
-0.0010988814756274
-0.000980719923973
-0.0006893295794725
-0.0002643829211592
0.0002473327331244
0.0007975953631103
0.001345616299659
0.0018626297824084
0.0023267692886292
0.0027190316468477
0.0030265576206147
0.0032473909668624
0.0033933790400624
0.0034894184209406
0.0035688304342329
0.0036668293178081
0.0038127994630485
0.004024283029139
0.00430623954162
0.0046537243761122
0.0050543509423732
0.0054917330853641
0.0059499130584299
0.0064108367078006
0.0068426276557147
0.0071909921243786
0.0073837991803884
0.0073445420712232
0.0070063639432191
0.0063257385045289
0.0052948053926229
0.0039453292265534
0.0023435072507709
0.0005817108321934
-0.0012310545425862
-0.0029804445803165
-0.0045591071248054
-0.0058784456923604
-0.0068756332620978
-0.0075160791166126
-0.0077962665818631
-0.0077458340674638
-0.0074243079870939
-0.006911139935255
-0.0062929475679993
-0.0056530204601585
-0.0050622662529349
-0.0045706643722951
-0.0042016683146357
-0.0039518559351563
-0.0037967846728861
-0.0036993455141782
-0.0036159674637019
-0.0035004382953047
-0.0033073017839342
-0.00299883633852
-0.0025558802299201
-0.0019839268643409
-0.0013086211401969
-0.0005648699589073
0.0002116772811859
0.0009865635074675
0.0017266487702727
0.00240397779271
0.0030004777945578
0.0035072960890829
0.0039189695380628
0.0042258510366082
0.0044061462394893
0.0044228299520909
0.0042318208143115
0.0037946095690131
0.0030854542274028
0.0020958669483661
0.0008392621530219
-0.0006458894349634
-0.0022948640398681
-0.0040204767137765
-0.0057224058546125
-0.0072979144752025
-0.0086524588987231
-0.0097097195684909
-0.0104194413870573
-0.0107626654207706
-0.0107525046914815
-0.0104272067546844
-0.0098391938954591
-0.0090496158227324
-0.0081294737756252
-0.0071571124717593
-0.0062055448070168
-0.0053275693207979
-0.0045506302267313
-0.0038794842548668
-0.0032984311692416
-0.0027735992334783
-0.0022591054439544
-0.0017071212641894
-0.0010771681554615
-0.000340134371072
0.0005197883583605
0.0015025436878204
0.0025937529280781
0.0037685632705688
0.0049903420731425
0.0062095080502331
0.007371331565082
0.0084276190027594
0.0093425838276743
0.01009226962924
0.0106615303084254
0.0110385296866297
0.0112069910392165
0.0111408783122897
0.0108065344393253
0.0101728197187185
0.0092238336801528
0.0079703154042363
0.0064575774595141
0.0047617000527679
0.0029733572155237
0.0011843359097838
-0.0005164789035916
-0.0020468244329094
-0.0033383700065314
-0.0043411911465227
-0.005023990292102
-0.0053756348788738
-0.0054077957756817
-0.0051543884910643
-0.004668615758419
-0.004018239211291
-0.0032770037651062
-0.0025126067921519
-0.0017752666026353
-0.001093874219805
-0.0004815845750272
5.7402998208999634e-05
0.0005265460349619
0.000938547309488
0.0013157180510461
0.0016879783943295
0.0020883348770439
0.0025465332437306
0.0030831373296678
0.0037065262440592
0.0044122324325144
0.0051830164156854
0.0059912707656621
0.0068055908195674
0.0076002161949872
0.0083593036979436
0.0090677756816148
0.0096976850181818
0.0102050490677356
0.0105348564684391
0.0106282588094472
0.0104345940053462
0.0099241090938448
0.0090935518965125
0.0079662092030048
0.0065895905718207
0.0050314753316342
0.0033757691271603
0.0017161748837679
0.0001478212070651
-0.0012381304986774
-0.0023617632687091
-0.0031686979345977
-0.003640582319349
-0.0037938205059617
-0.0036709066480398
-0.0033308861311525
-0.0028429008089005
-0.002280387096107
-0.0017127334140241
-0.0011969100451096
-0.0007719825953245
-0.0004569024313241
-0.0002507183235138
-0.000134544679895
-7.486063987016678e-05
-2.8466107323765755e-05
4.842132329940796e-05
0.0001900224015116
0.000417367555201
0.0007392764091491
0.0011524721048772
0.0016421661712229
0.0021844985894858
0.0027496758848428
0.0033067916519939
0.003829772118479
0.0043002511374652
0.0047046206891536
0.0050264778546988
0.0052398638799786
0.0053085545077919
0.0051916344091296
0.0048504956066608
0.0042535625398159
