bvp
-0.0132187809795141
-0.0128590576350688
-0.0120723489671945
-0.0109292557463049
-0.009516792371869
-0.0079176165163517
-0.0061958124861121
-0.0043983478099107
-0.0025634448975324
-0.0007252703653648
0.0010874993167817
0.0028560408391058
0.0045726248063147
0.006238093599677
0.0078581199049949
0.0094374967738986
0.0109737673774361
0.0124533921480178
0.0138490349054336
0.015116068534553
0.0161909218877553
0.0169916749000549
0.0174175221472978
0.0173521023243665
0.0166806057095527
0.0153177268803119
0.0132350288331508
0.0104790106415748
0.0071728862822055
0.0035005742684006
-0.0003184732049703
-0.0040541179478168
-0.0074887704104185
-0.0104388054460287
-0.0127704078331589
-0.0144082447513937
-0.0153367910534143
-0.0155940502882003
-0.0152640603482723
-0.0144712133333086
-0.0133656784892082
-0.0120980544015765
-0.0107965255156159
-0.0095536215230822
-0.0084221437573432
-0.0074192881584167
-0.0065339375287294
-0.0057334247976541
-0.004974971525371
-0.0042249583639204
-0.0034802847076207
-0.0027865380980074
-0.0022468669340014
-0.0020118439570069
-0.0022503519430756
-0.0031119366176426
-0.0046898806467652
-0.0069968230091035
-0.0099630486220121
-0.0134518705308437
-0.0172793734818696
-0.0212338510900735
-0.025097019970417
-0.0286648534238338
-0.0317621380090713
-0.034252006560564
-0.0360427536070346
-0.0370880626142025
-0.0373805239796638
-0.0369432233273983
-0.0358251333236694
-0.0341024249792099
-0.0318776294589042
-0.0292706750333309
-0.0264065191149711
-0.0234031192958354
-0.0203618966042995
-0.0173640623688697
-0.0144696664065122
-0.0117160975933074
-0.0091187544167041
-0.0066722389310598
-0.0043518412858247
-0.0021205432713031
6.309151649475098e-05
0.0022425092756748
0.0044576432555913
0.0067307967692613
0.0090557932853698
0.0114006139338016
0.0137202879413962
0.0159716978669166
0.0181232281029224
0.0201550871133804
0.0220507644116878
0.0237847622483968
0.0253134295344352
0.026572685688734
0.0274830795824527
0.0279616937041282
0.0279407408088445
0.0273906700313091
0.0263352859765291
0.0248474795371294
0.0230341609567403
0.0210238378494977
0.0189583636820316
0.016983525827527
0.0152345392853021
0.0138193601742386
0.0128068765625357
0.012222247198224
0.0120475366711616
0.0122278295457363
0.0126824788749217
0.0133188720792531
0.0140467677265405
0.0147900450974702
0.0154904341325163
0.0161042287945747
0.016601163893938
0.0169685930013656
0.0172143559902906
0.0173639431595802
0.0174530744552612
0.0175192561000585
0.0175959635525941
0.0177094712853431
0.0178764630109071
0.018102878704667
0.0183832496404647
0.0186978932470083
0.0190129242837429
0.0192864257842302
0.019466234371066
0.0194740705192089
0.0191997401416301
0.0185209810733795
0.0173363275825977
0.0155923003330826
0.0132967708632349
0.0105205345898866
0.0073899030685424
0.00407210085541
0.0007579075172543
-0.0023578987456858
-0.0050998060032725
-0.007332679349929
-0.0089725740253925
-0.0099872946739196
-0.01039554271847
-0.0102690905332565
-0.009728823788464
-0.0089279022067785
-0.0080276830121874
-0.0071726432070136
-0.0064698467031121
-0.0059788711369037
-0.0057105319574475
-0.0056305942125618
-0.0056689004413783
-0.005734390579164
-0.0057346718385815
-0.0055953348055481
-0.0052701691165566
-0.0047385608777403
-0.0040017091669142
-0.0030878700781613
-0.0020554796792566
-0.0009833230869844
4.300661385059357e-05
0.0009362178388983
0.001604720717296
0.0019522421061992
0.0018865820020437
0.0013344422914087
0.0002566715702414
-0.0013393084518611
-0.0033931385260075
-0.0057930252514779
-0.008384427987039
-0.0109847337007522
-0.0134048983454704
-0.0154762119054794
-0.0170725658535957
-0.0181207470595836
-0.0186004601418972
-0.0185389332473278
-0.018002288416028
-0.0170848369598388
-0.0158990006893873
-0.0145647749304771
-0.0131955649703741
-0.0118842357769608
-0.0106942094862461
-0.009655499830842
-0.008763656951487
-0.0079819355159997
-0.0072517627850174
-0.006511393468827
-0.005712850484997
-0.0048286011442542
-0.0038491529412567
-0.0027787131257355
-0.0016314559616148
-0.0004275175742805
0.0008102152496576
0.002057398436591
0.0032835623715072
0.0044401520863175
0.0054505597800016
0.0062107080593705
0.0066023170948028
0.0065162423998117
0.0058745155110955
0.0046426421031355
0.0028375980909913
0.0005349032580852
-0.0021328786388039
-0.0049889693036675
-0.0078313173726201
-0.0104557927697896
-0.0126806888729333
-0.0143655147403478
-0.0154221830889582
-0.015820238739252
-0.0155853470787405
-0.0147914811968803
-0.0135494591668248
-0.0119922617450356
-0.0102595072239637
-0.0084854867309331
-0.0067879501730203
-0.0052540050819516
-0.0039283875375986
-0.0028109131380915
-0.0018637333996593
-0.0010239048860967
-0.0002170857042074
0.0006288476288318
0.0015722941607236
0.0026514821220189
0.003883316880092
0.0052650282159447
0.0067761116661131
0.0083805313333868
0.0100281927734613
0.0116547420620918
0.0131821315735578
0.0145191550254821
0.0155611280351877
0.0161944031715393
0.0163088329136371
0.0158145651221275
0.0146603547036647
0.0128504522144794
0.0104530164971947
0.0075966920703649
0.0044577047228813
0.0012404730077832
-0.0018428398761898
-0.0045909974724054
-0.0068351319059729
-0.0084612360224127
-0.0094220200553536
-0.00973407831043
-0.0094672497361898
-0.0087308203801512
-0.00765638705343
-0.0063793417066335
-0.0050237658433616
-0.0036910017952322
-0.0024495031684637
-0.0013299495913088
-0.0003303033299744
0.0005736881867051
0.0014218618161976
0.0022672307677567
0.0031667673029005
0.004164814017713
0.0052838008850812
0.0065252110362052
0.0078722322359681
0.00929313339293
0.0107467081397771
0.0121883517131209
0.0135759562253952
0.0148734748363494
0.016048239544034
0.0170606821775436
0.0178530700504779
0.0183464214205741
0.0184472184628248
0.0180616453289985
0.0171134565025568
0.0155604006722569
0.013408244587481
0.0107202911749482
0.0076174903661012
0.0042681843042373
0.0008699148893356
-0.0023726476356387
-0.0052694343030452
-0.0076644895598292
-0.0094510028138756
-0.0105789378285408
-0.011056276038289
-0.0109446831047534
-0.0103464340791106
-0.0093849888071417
-0.0081900414079427
-0.0068909646943211
-0.0056093530729413
-0.004444305319339
-0.0034578959457576
-0.0026697791181504
-0.0020600866992026
-0.0015782716218382
-0.0011568844784051
-0.0007254728116095
-0.0002216533757746
0.0004022014327347
0.0011772108264267
0.0021151863038539
0.0032047918066382
0.0044140694662928
0.005695984698832
0.0069905160926282
0.0082279788330197
0.0093363691121339
0.0102455355226993
0.0108853885903954
0.0111832180991768
0.0110633019357919
0.0104523478075861
0.0092948256060481
0.007572409696877
0.0053166458383202
0.002611743286252
-0.0004092305898666
-0.0035733161494135
-0.0066828639246523
-0.0095385331660509
-0.0119670117273926
-0.0138431508094072
-0.0151001149788498
-0.0157303176820278
-0.0157802626490592
-0.0153401372954249
-0.0145292598754167
-0.0134795093908905
-0.0123199997469782
-0.011164927855134
-0.0101035078987479
-0.0091909393668174
-0.0084434626623988
-0.0078402711078524
-0.0073293074965476
-0.0068381959572434
-0.0062942476943135
-0.0056452923454344
-0.0048687900416553
-0.0039675701409578
-0.0029612211510539
-0.0018788599409162
-0.0007524071261286
0.0003870856016874
0.0015100454911589
0.0025886297225952
0.0035937884822487
0.0044863764196634
0.0052062040194869
0.005671814084053
0.0057969279587268
0.0055090589448809
0.0047589438036084
0.0035281749442219
0.0018415432423353
-0.0002232585102319
-0.0025377795100212
-0.0049361307173967
-0.0072337845340371
-0.0092491758987307
-0.0108265001326799
-0.0118543915450572
-0.0122759602963924
-0.012092687189579
-0.0113646145910024
-0.0102014243602752
-0.0087408451363444
-0.0071251019835472
-0.0054879589006304
-0.0039482987485826
-0.0026001306250691
-0.0014994521625339
-0.000655579380691
-3.262097015976906e-05
0.0004388676024973
0.0008442550897598
0.0012667649425566
0.0017743548378348
0.0024134386330842
0.0032056309282779
0.0041457270272076
0.0052065411582589
0.0063508213497698
0.0075384923256933
0.0087242927402257
0.0098536685109138
0.0108603965491056
0.0116652455180883
0.0121779013425111
0.0123030040413141
0.0119509194046258
0.0110541209578514
0.0095851859077811
0.007568912114948
0.0050848559476435
0.0022629164159297
-0.0007262350991368
-0.0036871489137411
-0.0064216339960694
-0.0087553793564438
-0.0105617465451359
-0.0117714367806911
-0.0123694762587547
-0.0123889409005641
-0.0119019541889429
-0.0110071450471878
-0.0098194880411028
-0.0084622586145997
-0.0070553449913859
-0.0057015339843928
-0.0044748741202056
-0.003413300262764
-0.0025184091646224
-0.0017609966453164
-0.0010881721973419
-0.0004335194826126
0.0002664872445166
0.0010554299224168
0.0019497324246913
0.0029438368510454
0.0040189647115767
0.0051463469862937
0.0062880981713533
0.0074027045629918
0.0084524229168891
0.0094066271558403
0.0102382795885205
0.0109141981229186
0.011385403573513
0.0115855280309915
0.0114415334537625
0.0108908992260694
0.0098939547315239
0.0084407795220613
0.0065584839321672
0.004317054990679
0.0018282220698893
-0.0007640998810529
-0.0033000444527715
-0.005623837467283
-0.0076024495065212
-0.0091366302222013
-0.0101650990545749
-0.0106682879850268
-0.0106701655313372
-0.0102308616042137
-0.0094329928979277
-0.0083723468706011
-0.0071543217636644
-0.0058871433138847
-0.0046681747771799
-0.0035698823630809
-0.0026323157362639
-0.0018634429434314
-0.0012435023672878
-0.0007297804113477
-0.0002643698826432
0.0002134670503437
0.0007554029580205
0.0013975834008306
0.002159436000511
0.003044955432415
0.0040437630377709
0.0051296353340148
0.0062585589475929
0.0073723392561078
0.0084086582064628
0.009310558438301
0.0100274765864014
0.0105084646493196
0.0106961708515882
0.0105291167274117
0.0099542662501335
0.0089448289945721
0.0075131682679057
0.0057126996107399
0.003632980864495
0.0013946099206805
-0.0008591818623244
-0.0029810122214257
-0.0048430147580802
-0.0063535864464938
-0.0074629951268434
-0.0081603797152638
-0.0084660798311233
-0.0084239793941378
-0.0080939643085002
-0.007543503306806
-0.0068429596722126
-0.006064816378057
-0.0052788401953876
-0.0045413090847432
-0.0038864221423864
-0.003324607387185
-0.0028429804369807
-0.0024076141417026
-0.0019744029268622
-0.0015053723473101
-0.0009788770694285
-0.0003888932988047
0.0002610082738101
0.0009601421188563
0.0016892817802727
0.0024230640847235
0.0031372539233416
0.0038137701340019
0.004441468976438
0.0050148461014032
0.0055294428020715
0.0059751570224761
0.0063313450664281
0.00656224694103
0.0066126808524131
0.0064131123945117
0.0058977073058485
0.0050245807506144
0.0037897336296737
0.0022344011813402
0.0004423926584422
-0.0014740494079887
-0.0033902158029377
-0.0051805502735078
-0.0067304736003279
-0.0079494593665003
-0.0087815206497907
-0.009209613315761
-0.0092516858130693
-0.0089548528194427
-0.0083941128104925
-0.0076682236976921
-0.0068857260048389
-0.0061458265408873
-0.0055223507806658
-0.0050545339472591
-0.0047447825782001
-0.0045640803873538
-0.0044633373618125
-0.0043846471235156
-0.0042691845446825
-0.0040648430585861
-0.0037350307684391
-0.0032624313607811
-0.0026444667018949
-0.0018889661878347
-0.0010168381268158
-6.391404895111918e-05
0.000925412052311
0.0019053181167691
0.0028289526235312
0.0036460049450397
0.004303294699639
0.0047471756115555
0.0049252868629992
0.0047930148430168
0.0043265311978757
0.0035337882582098
0.0024581889156252
0.0011766115203499
-0.0002066735032713
-0.0015732626197859
-0.0028106635436415
-0.0038252051454037
-0.0045358329080045
-0.0048581170849502
-0.0047000660561025
-0.0039788144640624
-0.0026479645166546
-0.0007215715013444
0.001714498270303
0.0045076292008161
0.0074549559503793
0.0103251012042164
0.0128857493400573
0.0149369044229388
0.016340535134077
0.0170332118868827
0.0170198231935501
0.0163609441369771
0.0151618402451276
0.0135588143020868
0.0117013398557901
0.0097346724942326
0.0077841859310865
0.0059433104470372
0.0042712111026048
0.0027996476273983
0.0015407030005007
0.0004890016280114
-0.0003821679856628
-0.001123848836869
-0.0018053794046863
-0.0025032013654708
-0.003292788285762
-0.004241035785526
-0.0053951181471347
-0.0067716324701905
-0.0083498833701014
-0.0100706545636057
-0.0118426652625203
-0.013557968661189
-0.0151108363643288
-0.0164095219224691
-0.0173807404935359
-0.0179768800735473
-0.0181843601167202
-0.0180224347859621
-0.0175325684249401
-0.0167706254869699
-0.0158070977777242
-0.0147245423868298
-0.013606609776616
-0.012525200843811
-0.0115294102579355
-0.0106381038203835
-0.0098382495343685
-0.0090899774804711
-0.008338963612914
-0.0075306133367121
-0.006619167048484
-0.0055724950507283
-0.0043750712648034
-0.0030268672853708
-0.001537206582725
7.693655788898468e-05
0.0017827847041189
0.0035271616652607
0.005244349129498
0.0068675708025693
0.0083353826776146
0.0095907151699066
0.0105754071846604
0.0112290158867836
0.0114974901080131
0.0113470628857612
0.0107754291966557
0.0098168328404426
0.0085417730733752
0.0070531973615288
0.0054772198200225
0.0039440942928195
0.0025639990344643
0.0014103427529335
0.0005186237394809
-0.0001029483973979
-0.000462339259684
-0.0005787536501884
-0.0004812413826584
-0.0002063121646642
0.0002061603590846
0.0007156813517212
0.0012817047536373
0.0018667094409465
0.0024426523596048
0.0029967650771141
0.0035342890769243
0.0040738619863986
0.0046360837295651
0.0052356263622641
0.0058800219558179
0.0065702847205102
0.0073028141632676
0.008071132004261
0.0088644148781895
0.0096668591722846
0.0104622105136513
0.0112386075779795
0.0119882570579648
0.012703662738204
0.0133750820532441
0.0139899756759405
0.0145294414833188
0.0149589665234088
0.0152200479060411
0.0152330622076988
0.0149138066917657
0.0141941048204898
0.0130378380417823
0.0114524196833372
0.0094943270087242
0.0072638266719877
0.0048900311812758
0.0025137269403785
0.0002723531797528
-0.0017140819691121
-0.003355863969773
-0.0046000760048627
-0.0054277805611491
-0.0058503504842519
-0.0059111965820193
-0.0056833773851394
-0.0052578588947653
-0.0047294097021222
-0.0041834879666566
-0.0036843894049525
-0.0032690076623111
-0.002948056673631
-0.002710468834266
-0.002527285600081
-0.0023563862778246
-0.0021514610853046
-0.0018734908662736
-0.0014970847405493
-0.0010090027935802
-0.0004073021700605
0.0002947219181805
0.001068722223863
0.0018781113903969
0.0026834516320377
0.0034457051660865
0.0041316002607345
0.0047185998409986
0.0051951315253973
0.0055563282221555
0.0057962923310697
0.0058994921855628
0.0058368537575006
0.0055681150406599
0.0050499690696597
0.0042506670579314
0.0031622350215911
0.0017998022958636
0.0001960415393114
-0.0015973651316016
-0.0035054271575063
-0.0054317298345267
-0.0072675333358347
-0.0089061670005321
-0.0102600045502185
-0.0112722776830196
-0.01191964186728
-0.0122109111398458
-0.0121845453977584
-0.0119025874882936
-0.0114408014342188
-0.0108756702393293
-0.0102735459804534
-0.0096872150897979
-0.0091542024165391
-0.0086919171735644
-0.0082957344129681
-0.0079435957595705
-0.0076012508943676
-0.0072270948439836
-0.0067818621173501
-0.0062382728792726
-0.0055837878026068
-0.0048202630132436
-0.0039621852338314
-0.0030312635935842
-0.002048609778285
-0.0010285556782037
1.7858983483165503e-05
0.0010692512150853
0.0020838635973632
0.0030000999104231
0.0037422534078359
0.0042288983240723
0.0043855928815901
0.0041598319076001
0.0035319705493748
0.0025194871705025
0.0011771426070481
-0.0004054747114423
-0.0021108903456479
-0.0038061081431806
-0.0053556035272777
-0.0066324276849627
-0.007533929310739
-0.0080016488209366
-0.0080314306542277
-0.0076674753800034
-0.0069888052530586
-0.0060949949547648
-0.0050912210717797
-0.0040738321840763
-0.0031194617040455
-0.0022780355066061
-0.0015691972803324
-0.0009834959637373
-0.0004893378354609
-4.274863749742508e-05
0.0004058761987835
0.0009076374117285
0.0015063404571264
0.002226345706731
0.003067311597988
0.0040079574100673
0.0050134933553636
0.006043919827789
0.007061212323606
0.0080326665192842
0.0089309550821781
0.0097342748194932
0.0104265697300434
0.010992994531989
0.0114094614982604
0.0116340918466448
0.01161037851125
0.0112823341041803
0.0106086293235421
0.0095662726089358
0.0081524364650249
0.00639308989048
0.0043514077551662
0.0021266427356749
-0.0001564609410706
-0.0023637714330106
-0.0043708849698305
-0.0060798916965723
-0.0074269045144319
-0.0083805909380316
-0.0089375833049416
-0.0091182067990303
-0.0089615602046251
-0.0085190199315547
-0.0078505454584956
-0.0070249992422759
-0.0061153601855039
-0.0051871361210942
-0.0042901230044662
-0.003455986501649
-0.0026976126246154
-0.0020098201930522
-0.0013717671390622
-0.0007520648650825
-0.0001168856397271
0.000561547698453
0.0012996967416256
0.0021029887720942
0.0029694675467908
0.0038928720168769
0.0048619667068123
0.0058557987213134
0.0068420004099607
0.0077823088504374
0.0086390525102615
0.0093774534761905
0.0099638169631361
0.0103600844740867
0.0105174910277128
0.0103761898353695
0.0098758917301893
0.0089736506342887
0.0076590301468968
0.0059621664695441
0.0039574420079588
0.0017620521830394
-0.0004781117313541
-0.0026149090845137
-0.0045211841352283
-0.0061004385352134
-0.0072882669046521
-0.0080535402521491
-0.0084009589627385
-0.0083711789920926
-0.0080348774790763
-0.0074802814051508
-0.0067972084507346
-0.0060634948313236
-0.0053378203883767
-0.0046570566482841
-0.0040333457291126
-0.0034537613391876
-0.0028911717236042
-0.0023200893774628
-0.0017224290641024
-0.0010853663552552
-0.0004011160926893
0.0003318027011118
0.0011088956380262
0.0019214530475437
0.0027585711795836
0.003607788356021
0.0044545335695147
0.005281884688884
0.0060701887123286
0.0067977532744407
0.0074462494812905
0.0080074556171894
0.0084797153249382
0.0088524464517831
0.0090931812301278
0.0091473953798413
0.008948789909482
0.0084348013624548
0.0075631309300661
0.00632462836802
0.004748476203531
0.0029002479277551
0.0008758399635553
-0.0012085707858204
-0.0032312106341123
-0.0050796726718544
-0.0066587077453732
-0.0078921942040324
-0.008729999884963
-0.0091607375070452
-0.0092168087139725
-0.0089650284498929
-0.00849050283432
-0.0078828781843185
-0.0072274752892553
-0.0065969894640147
-0.0060424236580729
-0.0055892392992973
-0.0052402950823307
-0.0049799801781773
-0.0047766561619937
-0.0045869117602705
-0.0043630879372358
-0.0040596458129584
-0.0036391788162291
-0.0030816413927823
-0.0023909308947622
-0.001593449153006
-0.0007304843747988
0.0001528882421553
0.0010170801542699
0.0018317596986889
0.0025773411616683
0.0032443578820675
0.0038254561368376
0.004301999695599
0.0046359887346625
0.0047744261100888
0.004664474632591
0.0042703468352556
0.0035814621951431
0.0026113470084965
0.00139483762905
-1.1206138879060744e-05
-0.001525611965917
-0.0030460515990853
-0.0044607114978134
-0.0056645022705197
-0.0065739438869059
-0.0071371439844369
-0.0073382947593927
-0.0071971612051129
-0.0067641343921422
-0.0061116777360439
-0.0053218072280287
-0.0044710342772305
-0.0036211647093296
-0.0028196913190186
-0.0021008730400353
-0.001483135856688
-0.0009680761140771
-0.0005422204267233
-0.000178930000402
0.0001582637196406
0.0005093859508633
0.0009112295811064
0.0013915720628574
0.0019640296231955
0.0026255419943481
0.0033595720306038
0.0041457298211753
0.0049689719453454
0.0058166827075183
0.0066654346883296
0.0074727474711835
0.008179698139429
0.0087179560214281
0.0090162819251418
0.0090058483183383
0.0086271632462739
0.0078418487682938
0.0066454224288463
0.0050735203549265
0.0031995028257369
0.0011258868034929
-0.0010278124827891
-0.0031365251634269
-0.0050774458795785
-0.0067402208223938
-0.0080428952351212
-0.0089441761374473
-0.0094440262764692
-0.0095759881660342
-0.0093987304717302
-0.008987178094685
-0.0084201041609048
-0.0077690170146524
-0.0070932200178503
-0.0064380001276731
-0.0058328923769295
-0.0052901450544595
-0.0048040309920907
-0.0043515819124877
-0.0038955542258918
-0.0033931334037333
-0.0028095676098018
-0.0021265498362481
-0.0013417254667729
-0.0004663139116019
0.0004757893038913
0.0014516955707222
0.002427770756185
0.0033769281581044
0.004281148314476
0.0051304153166711
0.0059210639446973
0.006653725169599
0.0073260972276329
0.0079225357621908
0.0084084887057542
0.0087288878858089
0.0088093960657715
0.0085672987625002
0.0079322522506117
0.0068670497275888
0.0053809615783393
0.0035350078251212
0.0014376945327967
-0.000771255174186
-0.0029427898116409
-0.0049369409680366
-0.0066368179395794
-0.0079589728266
-0.0088573517277836
-0.0093195447698235
-0.0093603814020752
-0.0090207979083061
-0.0083701219409704
-0.0075012911111116
-0.0065177641808986
-0.005518177524209
-0.0045808088034391
-0.0037529421970248
-0.0030507307965308
-0.0024644243530929
-0.0019631483592092
-0.0015008649788796
-0.0010247328318655
-0.0004851627163589
0.0001543932594358
0.0009140288457274
0.0018007832113653
0.0028092593420296
0.003917540423572
0.0050866603851318
0.0062673217616975
0.0074109379202127
0.0084781153127551
0.0094401463866233
0.0102768950164318
0.0109724719077348
0.0115063246339559
0.0118446201086044
0.0119392033666372
0.011734620667994
0.0111803151667118
0.0102455466985702
0.0089340535923838
0.0072908150032162
0.0053956108167767
0.0033501195721328
0.0012659053318202
-0.0007459630724042
-0.0025820978917181
-0.0041521457023918
-0.0053871111012995
-0.0062469020485877
-0.0067208092659711
-0.0068249753676354
-0.0066016428172588
-0.0061173751018941
-0.0054557095281779
-0.0047016367316246
-0.0039231777191162
-0.0031650057062506
-0.0024579232558608
-0.0018266071565449
-0.0012846619356423
-0.00082768057473
-0.0004346841014921
-7.535354234278202e-05
0.0002832466270774
0.0006725814891979
0.0011193369282409
0.0016413991106674
0.0022446496877819
0.0029223004821687
0.0036580024752765
0.0044335220009088
0.0052353418432176
0.0060510872863233
0.0068571921437978
0.0076108193024992
0.0082532139495015
0.0087173404172062
0.0089325327426195
0.0088294073939323
0.0083500733599066
0.0074615832418203
0.0061675822362303
0.0045140264555811
0.0025868634693324
0.0005022643599659
-0.0016085305251181
-0.0036127944476902
-0.0053844274953007
-0.0068165869452059
-0.007841695100069
-0.0084429383277893
-0.0086485669016838
-0.0085176490247249
-0.0081262728199362
-0.007556305732578
-0.0068873479031026
-0.0061917174607515
-0.0055299745872616
-0.0049462462775409
-0.0044655408710241
-0.004093469120562
-0.0038172313943505
-0.003606129437685
-0.0034110581036657
-0.0031703594140708
-0.0028267183806747
-0.0023442800156772
-0.0017144810408353
-0.0009512997348792
-8.263395284302533e-05
0.0008569216588512
0.0018300979863852
0.0027984953485429
0.0037231482565402
0.0045645060017704
0.0052804583683609
0.0058225002139806
0.0061346571892499
0.0061605018563568
0.0058568557724356
0.005204171873629
0.004208396654576
0.0029004099778831
0.0013364586047828
-0.0004023846704512
-0.0022138934582471
-0.003983424976468
-0.0055951289832592
-0.0069422703236341
-0.0079383142292499
-0.0085284430533647
-0.0086972266435623
-0.0084710605442523
-0.0079137999564409
-0.0071123111993074
-0.0061571672558784
-0.0051313648000359
-0.0041100615635514
-0.0031600731890648
-0.0023324210196733
-0.0016529820859432
-0.0011175692779943
-0.0006939417799003
-0.0003302667755633
3.240104706492275e-05
0.0004475589666981
0.0009540905011817
0.0015712727326899
0.0022978575434535
0.0031164262909442
0.0040023988112807
0.0049332925118505
0.0058911247178912
0.0068541751243174
0.0077855032868683
0.0086278049275279
0.0093046352267265
0.0097256870940327
0.0097974557429552
0.009437914006412
0.0085921995341777
0.0072474470362067
0.0054412204772233
0.0032598539255559
0.0008298279717564
-0.0016961155924946
-0.004156794399023
-0.0063983527943491
-0.0082886395975947
-0.0097352592274546
-0.0106993066146969
-0.0111941676586866
-0.0112727750092744
-0.0110126016661524
-0.0105028823018074
-0.0098343137651681
-0.0090902689844369
-0.0083382800221443
-0.0076229465194046
-0.0069627338089048
-0.0063518872484564
-0.0057688420638442
-0.0051860683597624
-0.0045714322477579
-0.003886351827532
-0.0030943742021918
-0.0021754866465926
-0.0011326130479574
1.096818596124649e-05
0.0012187059037387
0.0024497765116393
0.0036667722743004
0.0048393118195235
0.0059437304735183
0.0069613372907042
0.0078749824315309
0.0086606033146381
0.0092774173244833
0.0096670901402831
0.009764002636075
0.0095077389851212
0.0088530201464891
0.0077803386375308
0.0063058384694159
0.0044851535931229
0.0024117403663694
0.0002100271522067
-0.0019790297374129
-0.0040160929784178
-0.0057787923142313
-0.0071723856963217
-0.008137047290802
-0.0086526190862059
-0.0087382458150386
-0.0084448587149381
-0.0078426375985145
-0.0070104794576764
-0.0060331034474074
-0.0049985218793153
-0.0039868573658168
-0.0030568800866603
-0.0022397544234991
-0.0015387600287795
-0.0009324122220277
-0.0003812811337411
0.0001632831990718
0.0007503649685531
0.0014217058196663
0.0022053562570363
0.0031118944752961
0.0041369693353772
0.0052671832963824
0.0064795222133398
0.0077361320145428
0.0089846681803464
0.0101642413064837
0.0112100355327129
0.0120535539463162
0.0126204276457428
0.012831955216825
0.0126158166676759
0.011921752244234
0.0107336714863777
0.0090772937983274
0.0070244520902633
0.0046892305836081
0.0022154287435114
-0.0002380967489443
-0.0025155288167297
-0.0044865394011139
-0.0060610729269683
-0.0071906675584614
-0.0078647695481777
-0.0081076957285404
-0.0079733310267329
-0.0075367363169789
-0.0068868463858962
-0.0061189336702227
-0.0053214719519019
-0.0045622857287526
-0.0038831355050206
-0.0032998814713209
-0.0028008685912936
-0.0023477091453969
-0.0018880683928728
-0.0013756861444562
-0.0007821193430572
-9.78310126811266e-05
0.0006699759978801
0.0015026745386421
0.002378805540502
0.0032798405736684
0.0041892025619745
0.0050889337435364
0.0059596374630928
0.0067801387049257
0.0075221871957182
0.0081447353586554
0.0085935294628143
0.0088065490126609
0.0087215639650821
0.0082830525934696
0.0074522541835904
0.0062203393317759
0.0046176221221685
0.0027160667814314
0.000624377047643
-0.0015246792463585
-0.003589078085497
-0.0054292967543005
-0.0069176242686808
-0.0079476693645119
-0.0084443427622318
-0.0083703342825174
-0.007723438553512
-0.0065250238403677
-0.0048104426823556
-0.0026272612158209
-3.5263190511614084e-05
0.0028956499882042
0.0060923583805561
0.0094906445592641
0.0130418604239821
0.0167055446654558
0.0204335711896419
0.0241566374897956
0.0277791135013103
0.0311819296330213
0.0342310890555381
0.0367921367287635
0.0387522056698799
0.0400464162230491
0.0406744144856929
0.040694274008274
0.040200799703598
0.0392986685037612
0.0380728542804718
0.0365653671324253
0.0347685888409614
0.0326338484883308
0.0300902780145406
0.0270702112466096
0.0235350131988525
0.0194947682321071
0.0150171071290969
0.010224238038063
0.005283273756504
0.0003912225365638
-0.004253014922142
-0.0084875635802745
-0.0122181288897991
-0.0154276806861162
-0.0181709825992584
-0.0205610264092683
-0.0227494370192289
-0.0249015614390373
-0.0271654613316059
-0.0296388752758502
-0.0323466062545776
-0.0352378636598587
-0.0382012911140918
-0.041088581085205
-0.0437381565570831
-0.0459954068064689
-0.0477327927947044
-0.0488712340593338
-0.0493933707475662
-0.04934037104249
-0.0487950071692466
-0.0478599034249782
-0.0466407611966133
-0.0452375374734401
-0.043737169355154
-0.0422048643231391
-0.040680669248104
-0.0391873754560947
-0.0377464704215526
-0.0363919734954834
-0.035173125565052
-0.0341466963291168
-0.0333677567541599
-0.0328824147582054
-0.0327191352844238
-0.0328778177499771
-0.0333200879395008
-0.0339659415185451
-0.0346987657248973
-0.0353770665824413
-0.0358506813645362
-0.0359785035252571
-0.0356451459228992
-0.0347737446427345
-0.0333315394818782
-0.0313304625451564
-0.0288258027285337
-0.0259086955338716
-0.0226940996944904
-0.0193121768534183
-0.0158994272351264
-0.0125831197947263
-0.0094619868323206
-0.0065915780141949
-0.0039823967963457
-0.0016090702265501
0.0005770977586507
0.0026331003755331
0.0046092439442873
0.0065430626273155
0.008460009470582
0.0103731788694858
0.0122867599129676
0.0142051447182893
0.0161363929510116
0.0180866811424493
0.0200547222048044
0.0220308639109134
0.0239997208118438
0.0259441174566745
0.0278443526476621
0.0296687949448823
0.0313643217086792
0.0328576378524303
0.0340664349496364
0.0349149890244007
0.0353516116738319
0.0353621654212474
0.0349748246371746
0.0342577397823333
0.0333081781864166
0.0322321243584156
0.0311259385198354
0.0300689749419689
0.0291211679577827
0.0283207520842552
0.0276827290654182
0.0271980427205562
0.0268372129648923
0.0265615638345479
0.0263351537287235
0.0261311363428831
0.0259333420544862
0.0257336720824241
0.0255292896181345
0.0253242943435907
0.0251291766762733
0.0249528884887695
0.0247972272336483
0.0246605966240167
0.0245454534888267
0.0244631152600049
0.0244337432086467
0.0244818571954965
0.024630369618535
0.0248939953744411
0.0252718217670917
0.0257426332682371
0.0262656062841415
0.0267849788069725
0.0272371973842382
0.0275583323091268
0.0276859849691391
0.0275542624294757
0.0270924642682075
0.0262355618178844
0.024940438568592
0.0231998786330223
0.0210502184927463
0.0185696072876453
0.0158683601766824
0.0130747742950916
0.0103167481720447
0.0077009107917547
0.00529565801844
0.0031234647613018
0.0011642994359135
-0.0006313500925898
-0.0023299036547541
-0.0040115257725119
-0.005764992441982
-0.0076647782698273
-0.0097397742792963
-0.0119557119905948
-0.0142184579744935
-0.0163924042135477
-0.0183257479220628
-0.0198759734630584
-0.0209325216710567
-0.0214311927556991
-0.021355926990509
-0.0207329802215099
-0.0196199864149093
-0.0180904604494571
-0.0162267833948135
-0.014126943424344
-0.011907092295587
-0.0096882171928882
-0.0075778788886964
-0.0056595345959067
-0.0039907647296786
-0.0026093292981386
-0.0015454934909939
-0.0008352100849151
-0.0005283392965793
-0.0006870571523904
-0.0013753436505794
-0.0026445165276527
-0.0045147091150283
-0.0069550238549709
-0.009873978793621
-0.0131259588524699
-0.0165272783488035
-0.0198758486658334
-0.0229740887880325
-0.025652065873146
-0.0277824103832244
-0.0292850937694311
-0.0301292557269334
-0.0303332135081291
-0.0299575254321098
-0.0290933866053819
-0.0278507377952337
-0.0263469666242599
-0.0246971528977155
-0.023001953959465
-0.0213362574577331
-0.019749091938138
-0.0182698667049407
-0.0169123001396656
-0.0156771801412105
-0.0145536167547106
-0.0135181918740272
-0.0125363674014806
-0.011568397283554
-0.0105768777430057
-0.0095341121777892
-0.0084278983995318
-0.007262525614351
-0.0060544502921402
-0.0048244134522974
-0.0035921237431466
-0.0023798965848982
-0.0012173887807875
-0.0001371605321764
0.0008326086681336
0.0016701084095984
0.0023588482290506
0.002883949317038
0.003224816173315
0.0033518751151859
0.0032327622175216
0.0028415941633284
0.0021654104348272
0.0012088136281818
-1.8455320969223976e-06
-0.0014142983127385
-0.0029479009099304
-0.0045003034174442
-0.0059664463624358
-0.0072605302557349
-0.0083292052149772
-0.0091510768979787
-0.0097245275974273
-0.0100518502295017
-0.0101307146251201
-0.009956419467926
-0.0095282355323433
-0.0088545233011245
-0.0079553807154297
-0.0068611921742558
-0.0056072110310196
-0.0042271725833415
-0.0027491813525557
-0.001196508295834
0.0004087435081601
0.0020451499149203
0.0036949245259165
0.0053466781973838
0.0069946958683431
0.0086335577070713
0.0102542601525783
0.0118448082357645
0.0133904116228222
0.0148740326985716
0.016278626397252
0.0175873041152954
0.0187814570963382
0.0198421813547611
0.0207572299987077
0.0215238183736801
0.0221399422734975
0.0225938446819782
0.0228602215647697
0.0229001119732856
0.0226632058620452
0.0220954269170761
0.0211500413715839
0.0197983793914318
0.01803894713521
0.0159042030572891
0.013462989591062
0.0108169578015804
0.0080921556800603
0.0054280408658087
0.002963114529848
0.0008155079558491
-0.0009348224848508
-0.0022501368075609
-0.0031261555850505
-0.0035831807181239
-0.0036613307893276
-0.0034151915460824
-0.0029075583443045
-0.0022060284391045
-0.0013802638277411
-0.0004949225112795
0.0003993529826402
0.0012708553113043
0.0021073082461953
0.0029163928702473
0.0037262802943587
0.0045780669897794
0.0055088344961404
0.0065388437360525
0.0076681794598698
0.0088728992268443
0.0100974775850772
0.0112519674003124
0.0122221205383539
0.0128917889669537
0.013168254867196
0.0130013301968574
0.0123924612998962
0.0113939177244901
0.0100990105420351
0.0086252046748995
0.0070927874185144
0.0055984766222536
0.0041879755444824
0.0028441338799893
0.0015014683594927
7.872725836932659e-05
-0.0014851689338684
-0.0032043370883911
-0.0050368681550025
-0.0068915537558496
-0.0086425580084323
-0.0101495906710624
-0.0112817827612161
-0.0119386073201894
-0.0120642129331827
-0.0116539103910326
-0.0107499472796916
-0.0094324313104152
-0.0078150248154997
-0.006038665305823
-0.0042544906027615
-0.0026048584841191
-0.0012106839567422
-0.0001620806287974
0.0004873806610703
0.00071925483644
0.0005453657358884
5.004461854696274e-06
-0.0008378592319786
-0.0019018172752112
-0.003097015665844
-0.0043303058482706
-0.0055088293738663
-0.0065477197058498
-0.0073802042752504
-0.0079627698287367
-0.0082722231745719
-0.0082998499274253
-0.0080484766513109
-0.007531261537224
-0.0067701349034905
-0.0057980990968644
-0.0046687419526278
-0.0034672098699957
-0.0023117021191865
-0.0013402430340647
-0.000689735636115
-0.0004747603088617
-0.0007662062998861
-0.0015761367976665
-0.0028570459689944
-0.0045108264312148
-0.0064011672511696
-0.0083693247288465
-0.0102526005357503
-0.0119036557152867
-0.0132073750719428
-0.0140911852940917
-0.0145301669836044
-0.0145492935553193
-0.0142199229449033
-0.0136492801830172
-0.0129642486572265
-0.0122881699353456
-0.0117155499756336
-0.0112992208451032
-0.0110534587875008
-0.0109609328210353
-0.0109775615856051
-0.0110385222360491
-0.0110665755346417
-0.0109816920012235
-0.0107111064717173
-0.0101986601948738
-0.0094110891222953
-0.008339837193489
-0.0070008933544158
-0.0054330676794052
-0.0036911312490701
-0.0018339604139328
8.709169924259186e-05
0.0020322827622294
0.0039676679298281
0.0058586122468113
0.0076693356968462
0.0093634203076362
0.0109003921970725
0.0122288763523101
0.0132809365168213
0.0139747941866517
0.0142274284735322
0.0139707960188388
0.0131666800007224
0.0118210446089506
0.0099954241886734
0.0078077120706439
0.0054201958701014
0.0030160248279571
0.0007690098136663
-0.0011803628876805
-0.0027357498183846
-0.0038469797000288
-0.0045068049803376
-0.0047437511384487
-0.0046158041805028
-0.0042059980332851
-0.0036134151741862
-0.0029365476220846
-0.0022552395239472
-0.0016200020909309
-0.0010503316298127
-0.00053764693439
-5.2381306886672974e-05
0.0004424359649419
0.0009756665676832
0.0015618214383721
0.002207439392805
0.0029203230515122
0.0037142997607588
0.0046117259189486
0.0056434851139783
0.0068431422114372
0.0082386434078216
0.0098460232838988
0.0116636380553245
0.0136675694957375
0.0158135239034891
0.0180448591709136
0.0202980171889066
0.0224974285811185
0.0245429277420043
0.0263021159917116
0.0276173073798418
0.0283279046416282
0.0283000599592924
0.0274512730538845
0.0257646758109331
0.0232934579253196
0.0201523452997207
0.0164966471493244
0.0125004146248102
0.0083447443321347
0.0042150821536779
0.0002999389544129
-0.0032144277356565
-0.0061589386314153
-0.0084051545709371
-0.0098838731646537
-0.0105919018387794
-0.0105909230187535
-0.0099964505061507
-0.0089541915804147
-0.0076120253652334
-0.0060983365401625
-0.0045122522860765
-0.0029247400816529
-0.001382123446092
9.230617433786392e-05
0.0014933216152712
0.0028256862424314
0.0040984004735946
0.0053195152431726
0.006490231025964
0.0076020793057978
0.0086386250331997
0.009580198675394
0.0104084629565477
0.0111092552542686
0.0116750635206699
0.012105593457818
0.012404253706336
0.0125722950324416
0.0126024931669235
0.0124722095206379
0.0121354144066572
0.0115182269364595
0.0105261048302054
0.0090593686327338
0.0070296274498105
0.0043809749186038
0.0011152187362313
-0.0026927143335342
-0.0068993619643151
-0.0113122686743736
-0.0157131310552358
-0.0198809597641229
-0.0236166696995496
-0.0267661996185779
-0.029235552996397
-0.030994813889265
-0.0320723913609981
-0.0325404666364192
-0.0324962735176086
-0.0320469141006469
-0.0312986448407173
-0.0303476098924875
-0.029271924868226
-0.0281255450099706
-0.0269352793693542
-0.025702541694045
-0.0244098287075757
-0.0230297520756721
-0.0215328410267829
-0.0198946706950664
-0.0181028544902801
-0.0161595344543457
-0.0140793211758136
-0.0118846930563449
-0.0095985867083072
-0.0072418660856783
-0.0048424992710351
-0.0024460160639137
-0.0001162036787718
0.0020698048174381
0.0040241195820271
0.0056480490602552
0.0068349386565387
0.0074792224913835
0.0074908165261149
0.0068142851814627
0.0054492643103003
0.003462046617642
0.000983559526503
-0.0018002190627157
-0.0046631572768092
-0.0073648234829306
-0.0096838753670454
-0.0114440387114882
-0.0125269945710897
-0.012879136018455
-0.0125141702592372
-0.0115075791254639
-0.009984441101551
-0.0081038465723395
-0.0060386285185813
-0.0039516352117061
-0.0019740527495741
-0.0001914547756314
0.0013602403923869
0.0026925383135676
0.0038579842075705
0.0049354322254657
0.0060071377083659
0.0071388762444257
0.0083712404593825
0.0097196502611041
0.0111791528761386
0.0127328876405954
0.0143612530082464
0.0160454884171485
0.0177657790482044
0.0195005610585212
0.021227229386568
0.0229170005768537
0.0245213471353054
0.0259595699608325
0.0271170921623706
0.0278503857553005
0.0279948636889457
0.0273818150162696
0.0258663743734359
0.0233606621623039
0.0198616310954093
0.0154614690691232
0.0103395758196711
0.0047448389232158
-0.00102677103132
