bvp
-0.0071009509265422
-0.009075416252017
-0.0115386359393596
-0.0143932029604911
-0.0175002850592136
-0.0207112338393926
-0.0238972194492816
-0.0269663818180561
-0.0298568047583103
-0.0325017981231212
-0.0347850769758224
-0.0365175828337669
-0.0374550223350524
-0.0373525246977806
-0.0360426530241966
-0.0335085391998291
-0.029914116486907
-0.0255804006010293
-0.0209275651723146
-0.0164030324667692
-0.0124080097302794
-0.0092307804152369
-0.0069937384687364
-0.0056301048025488
-0.0049105272628366
-0.0045141992159187
-0.0041082077659666
-0.0034045046195387
-0.002190513536334
-0.0003470964729785
0.0021292576566338
0.0051009017042815
0.0082833701744675
0.0112799042835831
0.0136482380330562
0.0149683766067028
0.0148934200406074
0.0131937656551599
0.0098018925637006
0.0048452382907271
-0.0013498337939381
-0.0082921674475073
-0.015394389629364
-0.0220602490007877
-0.0277652945369482
-0.0321081839501857
-0.0348385274410247
-0.0358620733022689
-0.0351700261235237
-0.0326970033347606
-0.0282468665391206
-0.0215778145939111
-0.0125794447958469
-0.0014267563819885
0.011363310739398
0.0249812267720699
0.0384380742907524
0.0507026687264442
0.0608404502272605
0.0681343227624893
0.0721680074930191
0.0728605166077613
0.0704496651887893
0.0654353648424148
0.0585065744817256
0.0504670776426792
0.0421527884900569
0.034333236515522
0.0276117697358131
0.022352609783411
0.0186581667512655
0.0163993649184703
0.0152781726792454
0.0148982480168342
0.0148324538022279
0.0146861467510461
0.0141536816954612
0.0130568835884332
0.0113533269613981
0.0091165630146861
0.0065021608024835
0.0037078745663166
0.0009296964854001
-0.0016785571351647
-0.0040306420996785
-0.0061095776036381
-0.0079488204792141
-0.0096294386312365
-0.0113029945641756
-0.0131471203640103
-0.0152073223143816
-0.0172591395676136
-0.0188212133944034
-0.0192916691303253
-0.0181177258491516
-0.0149378962814807
-0.0096648093312978
-0.0025020753964781
0.0060919402167201
0.0154788699001073
0.0249411426484584
0.0337882190942764
0.0414428301155567
0.047493539750576
0.0517126433551311
0.0540484897792339
0.0546042099595069
0.0536039508879184
0.0513487383723259
0.0481731742620468
0.0444061607122421
0.0403343103826046
0.0361780151724815
0.0320892855525016
0.0281659178435802
0.0244707353413105
0.0210472662001848
0.0179278198629617
0.0151351206004619
0.0126797296106815
0.0105547476559877
0.0087304376065731
0.0071524512022733
0.0057450383901596
0.0044168476015329
0.0030658226460218
0.0015780851244926
-0.0001750290393829
-0.0023179426789283
-0.0049176886677742
-0.0079246144741773
-0.0111567042768001
-0.0143591109663248
-0.0173106640577316
-0.0198992285877466
-0.0221177395433187
-0.0240086559206247
-0.025612374767661
-0.0269469413906335
-0.0280162449926137
-0.0288322959095239
-0.0294379089027643
-0.0299206301569938
-0.030408751219511
-0.0310423448681831
-0.0319264233112335
-0.0330895036458969
-0.034467939287424
-0.0359169915318489
-0.0372384712100029
-0.0382167696952819
-0.0386558249592781
-0.0384107157588005
-0.0374118238687515
-0.0356780923902988
-0.033313438296318
-0.030484901741147
-0.02738993242383
-0.0242263674736022
-0.021172197535634
-0.0183721128851175
-0.0159287024289369
-0.0138996466994285
-0.0123011711984872
-0.0111161302775144
-0.0103051401674747
-0.0098204035311937
-0.009621325880289
-0.009689200669527
-0.0100369546562433
-0.0107087567448616
-0.0117687620222568
-0.0132852252572774
-0.0153150111436843
-0.0178935024887323
-0.0210317336022853
-0.0247093699872493
-0.0288565158843994
-0.0333352610468864
-0.0379351787269115
-0.0423896983265876
-0.0464090481400489
-0.0497158281505107
-0.0520731173455715
-0.0533070489764213
-0.0533258244395256
-0.0521289445459842
-0.049802903085947
-0.0465049445629119
-0.0424386858940124
-0.0378294102847576
-0.0329052731394767
-0.0278819929808378
-0.0229475293308496
-0.0182483289390802
-0.0138810668140649
-0.009892638772726
-0.0062859123572707
-0.0030280444771051
-6.16665929555893e-05
0.0026824297383427
0.0052721612155437
0.0077602192759513
0.010173606686294
0.0125148147344589
0.0147736296057701
0.0169342793524265
0.0189700797200202
0.0208333916962146
0.0224482230842113
0.0237102024257183
0.024496916681528
0.0246858373284339
0.0241741333156824
0.022894388064742
0.0208247732371091
0.0179975125938653
0.0145032005384564
0.0104845575988292
0.0061250384896993
0.0016413833945989
-0.0027235783636569
-0.0067179463803768
-0.0101078040897846
-0.012701328843832
-0.0143616236746311
-0.0150144211947917
-0.0146558843553066
-0.0133554115891456
-0.011246308684349
-0.0085063092410564
-0.0053352229297161
-0.0019341260194778
0.0015098340809345
0.004832986742258
0.0079047828912734
0.0106386318802833
0.0129998475313186
0.0150059945881366
0.0167178474366664
0.0182268097996711
0.0196445547044277
0.0210943222045898
0.0227006860077381
0.0245739854872226
0.0267885848879814
0.0293616391718387
0.0322416424751281
0.0353106781840324
0.0383988060057163
0.0413080975413322
0.0438423156738281
0.0458351150155067
0.0471719503402709
0.0478018410503864
0.0477358475327491
0.0470400489866733
0.0458321608603
0.0442754328250885
0.0425616949796676
0.0408894717693328
0.0394463278353214
0.0384005084633827
0.0379095636308193
0.0381465181708335
0.0393305793404579
0.0417640507221221
0.0458987951278686
0.0524159595370292
0.0622085481882095
0.076142594218254
0.0946344137191772
0.1172666475176811
0.1426571309566497
0.1686254888772964
0.1925644427537918
0.2118924111127853
0.2244802713394165
0.2289656847715377
0.2249096184968948
0.2127950936555862
0.1938855648040771
0.1699872761964798
0.143181711435318
0.1155627220869064
0.0889930874109268
0.064911164343357
0.0442146807909011
0.0272328481078147
0.0137830227613449
0.0032883733510971
-0.0050697997212409
-0.0121872052550315
-0.0188888758420944
-0.0258228257298469
-0.0333977490663528
-0.0417601242661476
-0.0508088842034339
-0.0602429136633873
-0.0696328654885292
-0.0785058662295341
-0.0864290371537208
-0.0930839329957962
-0.0983257293701171
-0.1022057980298996
-0.1049390658736229
-0.1068329364061355
-0.1082133203744888
-0.1093675643205642
-0.1105089113116264
-0.1117636263370513
-0.113176554441452
-0.1147291734814643
-0.1163638979196548
-0.1180045530200004
-0.1195691972970962
-0.1209792494773864
-0.1221658736467361
-0.1230786591768264
-0.1236976683139801
-0.1240347325801849
-0.1241208091378212
-0.1239922121167182
-0.1236811876296997
-0.1232114732265472
-0.122599609196186
-0.1218559965491294
-0.1209790110588073
-0.1199447959661483
-0.1187009513378143
-0.1171712651848793
-0.1152727007865905
-0.1129385754466056
-0.110137939453125
-0.1068880558013916
-0.103262722492218
-0.0993891730904579
-0.0954263657331466
-0.0915337949991226
-0.0878422260284423
-0.084430307149887
-0.0813071727752685
-0.0784022137522697
-0.0755777284502983
-0.0726789981126785
-0.0695869177579879
-0.0662232860922813
-0.062525026500225
-0.0584325864911079
-0.0538997463881969
-0.0489246919751167
-0.0436009094119071
-0.0381469279527664
-0.0328756868839263
-0.0281230844557285
-0.024176700040698
-0.0212239399552345
-0.0193266719579696
-0.0184232015162706
-0.0183502323925495
-0.01886972412467
-0.0196845065802335
-0.0204468294978141
-0.0207813307642936
-0.020329188555479
-0.0187995843589305
-0.0160134956240654
-0.0119306780397892
-0.0066534131765365
-0.0004076063632965
0.006490871310234
0.0136791728436946
0.0207949131727218
0.0275166481733322
0.0335937775671482
0.0388695374131202
0.0432913750410079
0.0469028986990451
0.0498231723904609
0.0522170402109622
0.0542597211897373
0.0561096370220184
0.0578930638730526
0.0596912428736686
0.0615346319973468
0.0634136646986007
0.0653005391359329
0.0671706646680831
0.0690149888396263
0.0708414763212204
0.0726699903607368
0.074523739516735
0.0764194354414939
0.0783599913120269
0.0803335309028625
0.0823165923357009
0.0842771977186203
0.0861771032214164
0.087972268462181
0.0896142497658729
0.0910583436489105
0.0922762975096702
0.0932698994874954
0.0940791592001915
0.0947743505239486
0.0954357162117958
0.0961350202560424
0.096923604607582
0.0978232324123382
0.0988168567419052
0.0998420864343643
0.1007919237017631
0.1015260964632034
0.1018911823630333
0.1017395183444023
0.1009417176246643
0.09939906001091
0.0970554873347282
0.0939011126756668
0.089967593550682
0.0853225663304328
0.0800636187195777
0.0743087902665138
0.0681852847337722
0.0618208684027195
0.0553392469882965
0.048857569694519
0.042484562844038
0.0363201461732387
0.0304571911692619
0.0249784775078296
0.0199435763061046
0.0153767168521881
0.0112671572715044
0.0075789140537381
0.0042625442147254
0.0012659262865781
-0.0014565801247954
-0.0039366581477224
-0.0061874822713434
-0.0082073062658309
-0.0099912267178297
-0.0115381870418787
-0.0128495525568723
-0.0139271635562181
-0.0147705692797899
-0.0153796318918466
-0.015769550576806
-0.0159818213433027
-0.0160777028650045
-0.0161236505955457
-0.016178511083126
-0.0162859745323658
-0.0164783336222171
-0.0167893730103969
-0.0172624103724956
-0.0179492905735969
-0.0189069788902997
-0.0201890971511602
-0.0218274947255849
-0.0238146819174289
-0.0261033065617084
-0.0286230314522981
-0.0312983617186546
-0.0340536087751388
-0.0368096195161342
-0.0394852086901664
-0.042005505412817
-0.0443098619580268
-0.0463557504117488
-0.0481214821338653
-0.0496108420193195
-0.050858199596405
-0.0519265718758106
-0.0528931766748428
-0.0538268014788627
-0.0547687597572803
-0.0557272993028163
-0.0566871985793113
-0.0576248355209827
-0.0585137158632278
-0.0593187659978866
-0.0599919408559799
-0.0604731366038322
-0.0606899261474609
-0.06055923178792
-0.0599980987608432
-0.058938480913639
-0.0573394522070884
-0.0551963374018669
-0.0525418817996978
-0.0494348108768463
-0.0459363721311092
-0.0420785397291183
-0.0378421060740947
-0.0331693887710571
-0.0280097778886556
-0.0223753079771995
-0.0163846313953399
-0.0102740367874503
-0.0043665952980518
0.0009839031845331
0.005449516698718
0.0087735373526811
0.0108054429292678
0.0115242563188076
0.0110421776771545
0.0095814578235149
0.0074295699596405
0.0048894509673118
0.0022365022450685
-0.0003138808533549
-0.0026228716596961
-0.0046267071738839
-0.006322237662971
-0.0077463476918637
-0.008952859789133
-0.009990026243031
-0.0108857173472642
-0.0116428267210721
-0.0122404657304286
-0.0126388696953654
-0.012785580009222
-0.0126226861029863
-0.0120965782552957
-0.0111662736162543
-0.0098207220435142
-0.0081150364130735
-0.0061772381886839
-0.0041284700855612
-0.001980063971132
0.0003736538346856
0.0030796721111983
0.0062664528377354
0.0100266691297292
0.0144073739647865
0.0193869359791278
0.0248449482023715
0.0305382944643497
0.0360923632979393
0.0410169847309589
0.0447580404579639
0.046780414879322
0.0466621741652488
0.0441822297871112
0.0393835194408893
0.0325909405946731
0.0243739113211631
0.0154579728841781
0.0066023394465446
-0.0015260013751685
-0.0084473537281155
-0.0139139238744974
-0.0179021917283535
-0.0205644145607948
-0.0221619978547096
-0.0230016559362411
-0.0233833007514476
-0.0235645268112421
-0.0237409751862287
-0.0240323450416326
-0.0244715027511119
-0.0250070877373218
-0.0255248267203569
-0.0258804876357316
-0.025933863595128
-0.0255750864744186
-0.0247391555458307
-0.0234106834977865
-0.02162248454988
-0.0194497145712375
-0.0169983282685279
-0.0143866669386625
-0.0117242000997066
-0.0090966429561376
-0.0065626855939626
-0.0041597597301006
-0.0019129775464534
0.0001606103032827
0.0020529720932245
0.0037622731178998
0.0052867941558361
0.0066251344978809
0.0077815745025873
0.0087677706032991
0.0095983203500509
0.010283850133419
0.010825365781784
0.0112135875970125
0.0114327054470777
0.0114616379141807
0.0112731251865625
0.0108396634459495
0.010148636996746
0.0092192683368921
0.0081112049520015
0.0069203823804855
0.0057681053876876
0.0047884844243526
0.0041125193238258
0.0038506537675857
0.0040775127708911
0.0048192739486694
0.0060474425554275
0.0076841041445732
0.0096175968647003
0.0117200724780559
0.0138603039085865
0.0159169137477874
0.0177958607673645
0.0194437447935342
0.0208495073020458
0.0220372676849365
0.0230563040822744
0.0239703506231308
0.0248461831361055
0.0257420353591442
0.0266965180635452
0.0277202799916267
0.02879473939538
0.0298814363777637
0.0309353657066822
0.0319053009152412
0.0327199399471282
0.03328163549304
0.0334784872829914
0.0332050360739231
0.03238270804286
0.0309775620698928
0.029012992978096
0.0265743136405944
0.0238026827573776
0.0208779983222484
0.0179935116320848
0.0153296142816543
0.0130347535014152
0.0112146595492959
0.009927837178111
0.0091827819123864
0.0089339716359972
0.0090840561315417
0.0094979219138622
0.0100243212655186
0.0105187203735113
0.0108629651367664
0.0109792966395616
0.0108369793742895
0.010450504720211
0.0098722912371158
0.0091834105551242
0.0084799127653241
0.0078534195199608
0.0073746051639318
0.0070873629301786
0.0070055518299341
0.0071065472438931
0.0073357322253286
0.0076260901987552
0.0079140830785036
0.0081425048410892
0.0082571217790246
0.0082017965614795
0.007916166447103
0.0073396684601902
0.0064198183827102
0.0051218648441135
0.0034376704134047
0.001391262281686
-0.0009572557173669
-0.0035092975012958
-0.0061358800157904
-0.0086981812492012
-0.0110668456181883
-0.0131321847438812
-0.0148094892501831
-0.0160427819937467
-0.0168089903891086
-0.0171229448169469
-0.0170370005071163
-0.0166320279240608
-0.0160062853246927
-0.0152663979679346
-0.014519078657031
-0.0138606950640678
-0.0133612724021077
-0.0130480090156197
-0.0129021517932415
-0.0128718335181474
-0.0128892054781317
-0.0128857363015413
-0.012803990393877
-0.0126028368249535
-0.0122590726241469
-0.0117687191814184
-0.0111449789255857
-0.0104121910408139
-0.0096003469079732
-0.0087419766932725
-0.0078706461936235
-0.0070237712934613
-0.0062478529289364
-0.0055966228246688
-0.0051264101639389
-0.0048991674557328
-0.0049812132492661
-0.0054269200190901
-0.0062609212473034
-0.0074696857482194
-0.0089985253289341
-0.0107514066621661
-0.0125984214246273
-0.0143929496407508
-0.0159902814775705
-0.0172617845237255
-0.0181078482419252
-0.0184699539095163
-0.0183357503265142
-0.0177351888269186
-0.016735328361392
-0.0154375405982136
-0.013968663290143
-0.0124626951292157
-0.0110418694093823
-0.0098019754514098
-0.0088011594489216
-0.0080546047538518
-0.0075361877679824
-0.0071857990697026
-0.0069218995049595
-0.0066574485972523
-0.0063154306262731
-0.0058397743850946
-0.0051994388923048
-0.0043874233961105
-0.0034207571297883
-0.0023428555577993
-0.001219586469233
-0.0001261234283447
0.0008673025295138
0.0017045969143509
0.0023466181010007
0.0027673710137605
0.0029472857713699
0.0028702123090624
0.0025263046845793
0.0019187461584806
0.001070131547749
2.451334148645401e-05
-0.0011525666341185
-0.0023735715076327
-0.0035367691889405
-0.004546851851046
-0.005333605222404
-0.0058563761413097
-0.0061001172289252
-0.0060727158561348
-0.0058046695776283
-0.0053458674810826
-0.0047581754624843
-0.0041075716726481
-0.0034577096812427
-0.0028647985309362
-0.0023722071200609
-0.0020038364455103
-0.0017586317844688
-0.0016074045561254
-0.0014965776354074
-0.0013652835041284
-0.001166598405689
-0.0008774129673838
-0.0004945243708789
-2.309214323759079e-05
0.0005330499261617
0.0011711451224982
0.0018822490237653
0.0026474273763597
0.0034416755661368
0.0042398576624691
0.0050190011970698
0.0057571888901293
0.0064334599301218
0.0070296213962137
0.0075267408974468
0.0078961048275232
0.0080953333526849
0.0080743404105305
0.0077901487238705
0.0072262329049408
0.0064062229357659
0.0053971516899764
0.0043020443990826
0.0032406589016318
0.002324512694031
0.0016352711245417
0.0012089032679796
0.0010277265682816
0.0010312693193554
0.0011536255478858
0.0013576145283877
0.0016226093284785
0.0018969252705574
0.0020597460679709
0.0019116159528493
0.0011857515200972
-0.0004274980165064
-0.003242251696065
-0.0075280079618096
-0.0134627446532249
-0.0211001243442296
-0.0303481835871934
-0.0409522727131843
-0.0525025688111782
-0.0644949674606323
-0.0764262452721595
-0.0878778025507927
-0.0985732674598693
-0.1084132194519043
-0.117475651204586
-0.1259658187627792
-0.1341233104467392
-0.1421176642179489
-0.1499689370393753
-0.1575266420841217
-0.164507508277893
-0.1705608516931533
-0.1753369271755218
-0.1785378903150558
-0.1799309402704239
-0.1793328821659088
-0.1765918731689453
-0.1715756803750991
-0.1641613841056823
-0.1542257368564605
-0.1416461318731308
-0.1263254731893539
-0.1082322895526886
-0.0874334722757339
-0.0641073286533355
-0.038540780544281
-0.0111190229654312
0.0176861137151718
0.0473304688930511
0.0772203728556633
0.1067433431744575
0.135305255651474
0.1623728275299072
0.1875040680170059
0.2103510946035385
0.230648323893547
0.2482063472270965
0.2629161179065704
0.2747574746608734
0.2838039100170135
0.2902206778526306
0.2942527532577514
0.2961964607238769
0.296355128288269
0.2949938178062439
0.2923113703727722
0.2884344458580017
0.2834298014640808
0.2773318290710449
0.2701737582683563
0.2620081007480621
0.2529163062572479
0.2430106699466705
0.2324292212724685
0.2213268727064132
0.2098643779754638
0.1981958895921707
0.1864573955535888
0.1747575104236602
0.1631678789854049
0.1517110615968704
0.1403492987155914
0.1289782971143722
0.1174323260784149
0.1055075228214263
0.0930005759000778
0.0797491520643234
0.0656673461198806
0.0507729463279247
0.035199724137783
0.0191928297281265
0.003089003264904
-0.012719415128231
-0.0278337374329566
-0.0418987311422824
-0.0546411909162998
-0.0658960491418838
-0.0756210461258888
-0.0838971212506294
-0.090911865234375
-0.0969257950782775
-0.1022307723760604
-0.1071133464574813
-0.111825056374073
-0.1165563091635704
-0.1214161291718483
-0.126426488161087
-0.1315364688634872
-0.1366496086120605
-0.1416516900062561
-0.1464323550462722
-0.1509021520614624
-0.1550073772668838
-0.1587390899658203
-0.1621287316083908
-0.165229246020317
-0.1680894345045089
-0.1707329303026199
-0.1731472611427307
-0.1752778142690658
-0.1770243346691131
-0.1782439351081848
-0.1787640154361724
-0.1784064322710037
-0.1770205348730087
-0.1745166927576065
-0.1708897948265075
-0.1662242263555526
-0.160678282380104
-0.1544551253318786
-0.1477740108966827
-0.1408465206623077
-0.1338537633419037
-0.1269298195838928
-0.1201588436961174
-0.1135784387588501
-0.1071826145052909
-0.1009263396263122
-0.0947349742054939
-0.0885213166475296
-0.0822072401642799
-0.075742021203041
-0.0691116154193878
-0.0623370185494422
-0.055468063801527
-0.0485782511532306
-0.0417564660310745
-0.0350953713059425
-0.0286838859319686
-0.0226063504815101
-0.0169442687183618
-0.0117743108421564
-0.007157880347222
-0.0031246789731085
0.0003405086463317
0.003300663549453
0.0058580851182341
0.0081397797912359
0.0102831199765205
0.0124209225177764
0.0146658569574356
0.0171004775911569
0.0197740290313959
0.0227028615772724
0.0258735343813896
0.0292449425905942
0.0327469259500503
0.0362823456525802
0.0397394336760044
0.0430108457803726
0.0460108108818531
0.0486857034265995
0.0510180070996284
0.0530241355299949
0.0547473356127738
0.0562488920986652
0.0576005019247531
0.0588781051337718
0.0601549111306667
0.0614916048943996
0.0629260838031768
0.064463160932064
0.0660647302865982
0.0676504299044609
0.0691112503409385
0.0703227519989013
0.0711520612239837
0.0714664608240127
0.0711471512913703
0.0701022148132324
0.0682766810059547
0.0656636580824852
0.0623169839382171
0.058359932154417
0.0539831258356571
0.0494296848773956
0.0449706763029098
0.0408711023628711
0.0373494401574134
0.0345461219549179
0.0325119271874427
0.0312130823731422
0.0305482670664787
0.0303713791072368
0.0305131785571575
0.0308003462851047
0.0310713108628988
0.0311874486505985
0.0310408771038055
0.0305616110563278
0.0297253187745809
0.0285619609057903
0.0271610189229249
0.0256618503481149
0.0242257602512836
0.0230034738779068
0.0221106074750423
0.0216134190559387
0.0215249694883823
0.021811980754137
0.0224093049764633
0.0232346411794424
0.0241989977657794
0.0252130813896656
0.0261863842606544
0.0270183365792036
0.0275938417762517
0.0277981329709291
0.0275484360754489
0.0268199648708105
0.0256485976278781
0.0241151750087738
0.0223249029368162
0.0203873254358768
0.018397307023406
0.0164197608828544
0.0144822914153337
0.0125763621181249
0.010664626955986
0.0086933374404907
0.0066082295961678
0.0043690879829227
0.0019592931494116
-0.0006080651655793
-0.0032864771783351
-0.0060022301040589
-0.008673807606101
-0.0112298838794231
-0.0136138144880533
-0.0157806184142828
-0.0176949892193079
-0.0193313062191009
-0.0206730123609304
-0.0217089615762233
-0.0224286187440156
-0.0228210985660552
-0.0228787176311016
-0.0226008761674165
-0.0219967346638441
-0.0210860092192888
-0.0198961682617664
-0.0184631440788507
-0.0168437901884317
-0.0151314530521631
-0.0134603222832083
-0.0119950715452432
-0.0109105752781033
-0.0103681357577443
-0.0104904361069202
-0.0113375885412096
-0.0128918047994375
-0.015054035000503
-0.0176535043865442
-0.0204730425029993
-0.0232825893908739
-0.0258655715733766
-0.0280357301235198
-0.0296544823795557
-0.0306491870433092
-0.0310204681009054
-0.0308330915868282
-0.0301955882459878
-0.02923652715981
-0.0280832797288894
-0.0268468614667654
-0.0256146155297756
-0.0244475118815898
-0.0233776159584522
-0.022406930103898
-0.021509263664484
-0.0206348001956939
-0.0197174530476331
-0.0186841767281293
-0.0174684505909681
-0.0160274170339107
-0.0143511202186346
-0.0124578643590211
-0.0103846434503793
-0.0081796310842037
-0.0058963289484381
-0.0035887500271201
-0.0013072090223431
0.0009039621800184
0.0030031893402338
0.0049447584897279
0.0066745113581418
0.0081299105659127
0.0092456387355923
0.0099643720313906
0.0102446917444467
0.0100643513724207
0.0094253588467836
0.0083596808835864
0.0069314269348979
0.0052345795556902
0.0033837994560599
0.0015007406473159
-0.0002975277602672
-0.0019069910049438
-0.0032435813918709
-0.0042480216361582
-0.004887833725661
-0.0051563866436481
-0.0050694486126303
-0.004659469705075
-0.0039716623723506
-0.0030652941204607
-0.0020119021646678
-0.000885559245944
0.0002470174804329
0.0013326937332749
0.0023365458473563
0.0032450826838612
0.0040663434192538
0.0048259291797876
0.0055599408224225
0.0063047651201486
0.0070857517421245
0.0079121747985482
0.0087814452126622
0.0096849780529737
0.0106072360649704
0.0115202097222208
0.012382635846734
0.0131470244377851
0.0137689728289842
0.0142146861180663
0.0144674470648169
0.0145319392904639
0.0144327208399772
0.0142054036259651
0.0138830672949552
0.0134821627289056
0.0129930600523948
0.012380645610392
0.01159561984241
0.0105911586433649
0.0093359518796205
0.0078178476542234
0.0060446187853813
0.0040493253618478
0.0018959855660796
-0.0003227870911359
-0.0024999966844916
-0.0045337388291954
-0.0063400184735655
-0.0078562945127487
-0.0090421810746192
-0.0098812012001872
-0.0103815300390124
-0.0105729391798377
-0.0104983327910304
-0.0102026117965579
-0.0097292196005582
-0.009126704186201
-0.0084521789103746
-0.0077641238458454
-0.0071129258722066
-0.0065364781767129
-0.0060570687055587
-0.0056778341531753
-0.005383557640016
-0.0051465574651956
-0.004933413118124
-0.0047102645039558
-0.0044478168711066
-0.0041261669248342
-0.0037358701229095
-0.0032734172418713
-0.0027395859360694
-0.0021466398611664
-0.0015219831839203
-0.0008997870609164
-0.0003107525408267
0.0002225982025265
0.0006870608776807
0.0010776985436677
0.0013953652232885
0.0016445079818367
0.0018314747139811
0.0019616158679127
0.0020342916250228
0.0020379023626446
0.0019497191533446
0.0017433622851967
0.0013969149440526
0.0008944030851125
0.0002275668084621
-0.0005968697369098
-0.0015527168288826
-0.0025975704193115
-0.0036788042634725
-0.0047395443543791
-0.0057260408066213
-0.0065943268127739
-0.0073146638460457
-0.0078741442412137
-0.0082741705700755
-0.0085232835263013
-0.0086313411593437
-0.0086078038439154
-0.0084656812250614
-0.0082295192405581
-0.0079364851117134
-0.0076262336224317
-0.0073298285715281
-0.0070637124590575
-0.0068274177610874
-0.0066064307466149
-0.0063780611380934
-0.0061140777543187
-0.0057825134135782
-0.0053543178364634
-0.0048110461793839
-0.004147888161242
-0.0033722012303769
-0.0024981906171888
-0.0015426916070282
-0.0005285195074975
0.0005117857363075
0.0015413612127304
0.0025289051700383
0.0034536500461399
0.0043029719963669
0.0050668688490986
0.0057349596172571
0.0062987972050905
0.0067559070885181
0.0071084313094615
0.0073565794155001
0.0074938973411917
0.0075081242248415
0.0073854541406035
0.0071128206327557
0.0066775041632354
0.0060693412087857
0.0052866926416754
0.0043430021032691
0.0032708668150007
0.0021205767989158
0.000953864888288
-0.0001636202214285
-0.0011699992464855
-0.0020138099789619
-0.0026573622599244
-0.0030775340273976
-0.0032660528086125
-0.0032290713861584
-0.0029862301889806
-0.0025728386826813
-0.0020438849460333
-0.0014700074680149
-0.0009238253114745
-0.0004660981358028
-0.0001366375363431
5.075987428426743e-05
0.0001087847631424
7.122813258320093e-05
-1.6505364328622818e-05
-0.0001061027869582
-0.0001522724051028
-0.0001187126617878
1.55025627464056e-05
0.0002528361510485
0.0005801629740744
0.0009744166163727
0.0014056322397664
0.0018393615027889
0.002241195179522
0.0025800541043281
0.0028307705651968
0.0029791798442602
0.0030256770551204
0.0029824876692146
0.0028675743378698
0.0026988361496478
0.0024886019527912
0.002239849884063
0.0019463228527456
0.001597334165126
0.0011861589737236
0.0007147451397031
0.000189724843949
-0.0003823232837021
-0.0009920932352542
-0.001620125491172
-0.00223318208009
-0.0027897208929061
-0.0032507586292922
-0.0035885414108633
-0.0037907538935542
-0.0038617672398686
-0.0038214661180973
-0.003700585104525
-0.0035323468036949
-0.0033428529277443
-0.0031439242884516
-0.0029334318824112
-0.0027043716982007
-0.0024542859755456
-0.0021870220080018
-0.0019084922969341
-0.0016221413388848
-0.0013272734358906
-0.0010195448994636
-0.0006903503090143
-0.0003248685970902
9.661074727773666e-05
0.00059300288558
0.0011772010475397
0.0018536299467086
0.0026182304136455
0.0034617246128618
0.0043707778677344
0.0053223939612507
0.0062810317613184
0.0072045526467263
0.0080507975071668
0.0087807523086667
0.0093607250601053
0.0097632044926285
0.009966823272407
0.0099561801180243
0.0097219441086053
0.0092633077874779
0.0085917450487613
0.0077327098697423
0.0067264204844832
0.0056288940832018
0.0045064594596624
0.0034217648208141
0.0024237888865172
0.0015490823425352
0.0008258004672825
0.0002723559737205
-0.0001083258539438
-0.0003330456092953
-0.0004354072734713
-0.000455287285149
-0.0004272535443305
-0.0003753863275051
-0.0003153560683131
-0.000258301384747
-0.0002103354781866
-0.0001673651859164
-0.0001137754879891
-3.061490133404732e-05
9.560910984873772e-05
0.0002720351330935
0.0005025537684559
0.0007894211448729
0.0011322712525725
0.0015267650596797
0.0019656084477901
0.0024400176480412
0.0029393788427114
0.0034513680730015
0.0039633233100175
0.0044619897380471
0.0049342508427798
0.0053730313666164
0.0057799397036433
0.0061575178988277
0.0064995405264198
0.0067864088341593
0.0069858054630458
0.0070570548996329
0.0069552054628729
0.0066361017525196
0.0060640946030616
0.0052167186513543
0.0040855421684682
0.002679536351934
0.0010307452175766
-0.0008039195090532
-0.0027446702588349
-0.0046932166442275
-0.0065455096773803
-0.0082115177065134
-0.0096283201128244
-0.0107611110433936
-0.0115993646904826
-0.0121532576158642
-0.0124502312391996
-0.0125304833054542
-0.0124391000717878
-0.0122169936075806
-0.0118973096832633
-0.0115076685324311
-0.0110725592821836
-0.01061287894845
-0.0101427370682358
-0.0096639916300773
-0.0091649992391467
-0.0086294598877429
-0.0080466484650969
-0.0074137127958238
-0.0067328102886676
-0.0060076680965721
-0.005241029895842
-0.0044332034885883
-0.0035828500986099
-0.002690453082323
-0.0017598671838641
-0.0007956940680742
0.0001998469233512
0.001228348352015
0.0022949278354644
0.0034067505039274
0.0045674657449126
0.0057641235180199
0.0069545125588774
0.0080659827217459
0.0090058930218219
0.0096757663413882
0.0099831474944949
0.009852048009634
0.0092332018539309
0.0081126540899276
0.0065179597586393
0.0045210798271
0.0022359443828463
-0.0001915460452437
-0.0026000337675213
-0.0048309126868844
-0.0067472467198967
-0.0082522649317979
-0.0092997308820486
-0.0098908189684152
-0.0100604481995105
-0.0098626688122749
-0.0093626258894801
-0.0086322566494345
-0.0077451840043067
-0.0067718736827373
-0.0057750605046749
-0.0048042945563793
-0.0038936836645007
-0.0030640540644526
-0.0023212675005197
-0.0016496609896421
-0.0010132007300853
-0.0003680167719721
0.0003251582384109
0.0010952753946185
0.0019584540277719
0.0029160305857658
0.0039552692323923
0.0050549739971756
0.0061923582106828
0.0073458291590213
0.0084940232336521
0.0096141099929809
0.0106824273243546
0.0116791734471917
0.0125940926373004
0.0134277064353227
0.0141814574599266
0.0148377697914838
0.0153461964800953
0.0156262628734111
0.015581932850182
0.015121859498322
0.0141811780631542
0.0127383125945925
0.0108239185065031
0.0085233133286237
0.0059707122854888
0.0033324374817311
0.0007819244638085
-0.0015242071822285
-0.0034604696556925
-0.0049374010413885
-0.0059047574177384
-0.0063576316460967
-0.0063382973894476
-0.0059266276657581
-0.0052245436236262
-0.0043413192033767
-0.0033809943124651
-0.0024325149133801
-0.0015629222616553
-0.000814389437437
-0.0002045528963208
0.0002729380503296
0.0006463658064603
0.0009587267413735
0.0012601539492607
0.0016062511131167
0.0020535192452371
0.0026434366591274
0.0033888407051563
0.0042758700437843
0.0052739651873707
0.00634350720793
0.0074398713186383
0.0085164466872811
0.0095290280878543
0.0104410108178853
0.0112262833863496
0.0118668247014284
0.0123439542949199
0.0126279760152101
0.0126745626330375
0.0124301752075552
0.0118394391611218
0.010850585065782
0.0094257546588778
0.0075569106265902
0.0052787628956139
0.0026742240879684
-0.0001291390508413
-0.002971202135086
-0.0056775584816932
-0.0080823497846722
-0.0100498721003532
-0.0114875594154
-0.012350745499134
-0.0126438196748495
-0.0124158635735511
-0.0117486175149679
-0.0107462024316191
-0.0095311775803565
-0.0082352738827466
-0.0069812936708331
-0.0058662360534071
-0.0049500940367579
-0.0042514177039265
-0.0037516655866056
-0.003404620103538
-0.0031464309431612
-0.0029056894127279
-0.002613180084154
-0.002210751408711
-0.0016577362548559
-0.0009325112914666
-3.1411414965987206e-05
0.0010287661571055
0.0022069620899856
0.003441915847361
0.0046631461009383
0.0058020018041133
0.006798718124628
0.0076007866300642
0.0081552620977163
0.0084048463031649
0.0082902573049068
0.0077577396295964
0.0067722206003963
0.0053313481621444
0.0034741535782814
0.0012834654189646
-0.0011173654347658
-0.0035753408446907
-0.0059264665469527
-0.008017111569643
-0.0097212372347712
-0.0109502505511045
-0.0116576589643955
-0.0118408240377902
-0.0115387719124555
-0.0108262430876493
-0.009805872105062
-0.0085977856069803
-0.0073258550837635
-0.0061040627770125
-0.0050244852900505
-0.0041454769670963
-0.0034852973185479
-0.0030276344623416
-0.0027334932237863
-0.0025493712164461
-0.0024117077700793
-0.0022545168176293
-0.0020204968750476
-0.0016683982685208
-0.0011737733148038
-0.0005269986577332
0.0002672700211405
0.0011895331554114
0.0022071707062423
0.0032786284573376
0.0043574185110628
0.0053944196552038
0.0063378345221281
0.0071295858360826
0.0077007077634334
0.0079730581492185
0.0078688506036996
0.0073229148983955
0.0062953783199191
0.0047849938273429
0.0028402917087078
0.0005619833245873
-0.001906519755721
-0.004396041855216
-0.0067304666154086
-0.0087466230615973
-0.0103133432567119
-0.0113423308357596
-0.0117895882576704
-0.0116562852635979
-0.0109922681003808
-0.0098941652104258
-0.0084920274093747
-0.0069280117750167
-0.0053360895253717
-0.0038290990050882
-0.0024913377128541
-0.0013720574788749
-0.000481657218188
0.0002035903744399
0.0007302542217075
0.0011574793606996
0.0015478176064789
0.0019575362093746
0.0024316408671438
0.0030023846775293
0.0036840587854385
0.0044681797735393
0.0053258500993251
0.0062145269475877
0.0070850728079676
0.0078889019787311
0.0085849966853857
0.0091420011594891
0.0095328921452164
0.0097281606867909
0.0096916668117046
0.0093796588480472
0.008745839819312
0.0077538024634122
0.0063922591507434
0.0046835029497742
0.0026810970157384
0.0004648240283131
-0.0018636519089341
-0.0041904216632246
-0.0064024743624031
-0.0083964094519615
-0.0100827645510435
-0.0113915670663118
-0.0122800832614302
-0.0127383777871727
-0.0127904890105128
-0.012493148446083
-0.0119321178644895
-0.0112114511430263
-0.0104340855032205
-0.0096848895773291
-0.0090270349755883
-0.0085045155137777
-0.008139437995851
-0.0079271430149674
-0.0078381765633821
-0.0078255021944642
-0.0078304875642061
-0.0077895415015518
-0.0076431478373706
-0.0073436037637293
-0.0068606571294367
-0.0061856405809521
-0.0053328000940382
-0.0043361228890717
-0.003240835852921
-0.00209820875898
-0.0009728881996124
4.840083420276642e-05
0.0008604491595178
0.0013520291540771
0.0014217866118997
0.0009955647401511
3.973161801695824e-05
-0.0014314887812361
-0.0033510737121105
-0.0055979881435632
-0.008003924973309
-0.0103671578690409
-0.0124735925346612
-0.0141249522566795
-0.0151653261855244
-0.0154986530542373
-0.0150981433689594
-0.014004630036652
-0.0123094711452722
-0.0101292915642261
-0.0075822197832167
-0.0047679627314209
-0.0017533414065837
0.0014326474629342
0.0047914953902363
0.0083380574360489
0.012081054970622
0.0160079319030046
0.0200763922184705
0.0242134183645248
0.0283218324184417
0.0322889052331447
0.0359912812709808
0.0392992235720157
0.0420868583023548
0.0442493148148059
0.0457178279757499
0.0464625991880893
0.0464848689734935
0.0458067618310451
0.0444628819823265
0.0424927696585655
0.0399361699819564
0.0368360728025436
0.0332472398877143
0.0292436257004737
0.0249231662601232
0.0204076506197452
0.0158341154456138
0.0113415140658617
0.0070585999637842
0.0030947122722864
-0.0004686042666435
-0.0035886093974113
-0.0062732473015785
-0.0085861608386039
-0.0106389597058296
-0.0125719523057341
-0.0145311281085014
-0.0166480373591184
-0.0190220326185226
-0.0217021070420742
-0.0246713384985923
-0.0278458148241043
-0.0310950968414545
-0.0342706367373466
-0.0372253879904747
-0.0398252196609973
-0.0419586412608623
-0.0435443595051765
-0.0445352643728256
-0.044919591397047
-0.0447178184986114
-0.0439750589430332
-0.0427500307559967
-0.0411017462611198
-0.0390810742974281
-0.0367337502539157
-0.0341132804751396
-0.0313034020364284
-0.0284409560263156
-0.025714062154293
-0.0233280807733535
-0.0214606970548629
-0.0202260203659534
-0.0196529440581798
-0.0196784175932407
-0.0201580096036195
-0.0208922587335109
-0.0216606222093105
-0.0222545266151428
-0.0225027725100517
-0.0222845114767551
-0.0215301923453807
-0.0202173218131065
-0.0183694995939731
-0.0160575062036514
-0.0133927250280976
-0.0105103924870491
-0.0075482726097106
-0.0046258121728897
-0.0018288474529981
0.0007964354008436
0.0032414384186267
0.0055282693356275
0.0077001173049211
0.0098090218380093
0.0119026442989707
0.0140132391825318
0.0161513648927211
0.0183074939996004
0.0204585269093513
0.0225714556872844
0.024607066065073
0.026528064161539
0.0283056031912565
0.0299209747463464
0.0313658937811851
0.0326418504118919
0.0337564460933208
0.0347164906561374
0.0355189517140388
0.0361422896385192
0.0365442670881748
0.0366706699132919
0.036470353603363
0.0359078980982303
0.0349687598645687
0.0336579345166683
0.0319980531930923
0.0300300829112529
0.0278149079531431
0.0254344660788774
0.0229895822703838
0.0205907057970762
0.0183441471308469
0.0163388401269912
0.0146347833797335
0.0132557339966297
0.0121908336877822
0.0114031722769141
0.010839176364243
0.0104389227926731
0.0101467473432421
0.0099160484969615
0.0097088431939482
0.0094964606687426
0.00926274061203
0.0090068988502025
0.0087428530678153
0.0084936460480093
0.0082838833332061
0.0081346025690436
0.0080610699951648
0.0080705331638455
0.0081588141620159
0.0083093456923961
0.0084980996325612
0.0086995428428053
0.0088844867423176
0.0090103736147284
0.0090155648067593
0.0088249929249286
0.0083631407469511
0.007567245978862
0.0063971946947276
0.004842787515372
0.0029306933283805
0.0007286979816854
-0.0016592489555478
-0.0041081854142248
-0.0064906403422355
-0.0086917867884039
-0.0106170903891325
-0.0121920453384518
-0.0133633902296423
-0.0141083784401416
-0.0144423367455601
-0.0144156403839588
-0.0141045358031988
-0.0136015061289072
-0.0130040645599365
-0.0124007826671004
-0.0118587287142872
-0.0114168273285031
-0.0110850576311349
-0.0108477659523487
-0.0106720272451639
-0.0105191860347986
-0.0103513151407241
-0.0101307611912488
-0.0098228957504034
-0.0094062071293592
-0.008879616856575
-0.0082596354186534
-0.0075719319283962
-0.006844125688076
-0.0061019263230264
-0.0053687738254666
-0.0046677906066179
-0.0040238313376903
-0.0034655407071113
-0.0030275359749794
-0.0027514901012182
-0.0026856856420636
-0.002880279906094
-0.0033759381622076
-0.0041943341493606
-0.0053364662453532
-0.006780594587326
-0.0084765907377004
-0.0103433532640337
-0.0122738312929868
-0.0141463046893477
-0.0158380698412656
-0.017238525673747
-0.018259322270751
-0.0188419856131076
-0.018963299691677
-0.0186358354985713
-0.0179042313247919
-0.0168374348431825
-0.015515761449933
-0.014021105132997
-0.0124364793300628
-0.0108459973707795
-0.0093276277184486
-0.0079418793320655
-0.0067221522331237
-0.0056694997474551
-0.0047528157010674
-0.0039160978049039
-0.0030920307617634
-0.0022163321264088
-0.0012381230480968
-0.0001266039907932
0.0011243689805269
0.0024967829231172
0.0039565041661262
0.0054617165587842
0.0069657135754823
