bvp
0.0263036899268627
0.0293083041906356
0.0321383439004421
0.0347658917307853
0.0371836014091968
0.0393983647227287
0.0414224117994308
0.0432621426880359
0.0449110940098762
0.0463532507419586
0.0475735999643802
0.0485693030059337
0.0493560582399368
0.0499667227268219
0.0504437163472175
0.0508311502635479
0.0511704944074153
0.0514967031776905
0.0518321506679058
0.0521802566945552
0.0525201074779033
0.0528020597994327
0.052945464849472
0.052841693162918
0.0523661188781261
0.0513980165123939
0.0498423427343368
0.04764836281538
0.0448235422372818
0.0414403080940246
0.0376322343945503
0.0335798375308513
0.029490303248167
0.0255747977644205
0.0220262706279754
0.0190012566745281
0.0166065897792577
0.0148902051150798
0.0138383358716964
0.0133813507854938
0.0134067833423614
0.0137764401733875
0.0143454223871231
0.014979725703597
0.0155680272728204
0.0160275101661682
0.016305711120367
0.016379090026021
0.0162498261779546
0.0159415565431118
0.0154938912019133
0.0149560663849115
0.014380395412445
0.0138162178918719
0.0133039597421884
0.0128697780892252
0.0125230373814702
0.0122570432722568
0.0120520275086164
0.0118797570466995
0.0117095168679952
0.0115143936127424
0.0112744057551026
0.0109734535217285
0.0105907507240772
0.0100909760221838
0.0094196181744337
0.0085076047107577
0.0072834570892155
0.005689226090908
0.0036971336230635
0.0013224631547927
-0.0013725999742746
-0.0042857974767684
-0.0072879535146057
-0.0102370763197541
-0.012991770170629
-0.0154227688908576
-0.017421830445528
-0.0189103092998266
-0.0198477543890476
-0.0202372223138809
-0.0201256275177001
-0.0195991080254316
-0.0187724083662033
-0.0177730992436409
-0.0167255420237779
-0.0157392360270023
-0.0149015896022319
-0.0142730809748172
-0.0138836000114679
-0.0137313529849052
-0.0137861901894211
-0.0139957815408706
-0.0142938075587153
-0.0146102076396346
-0.0148798581212759
-0.0150479916483163
-0.0150748817250132
-0.0149410851299762
-0.0146531267091631
-0.0142488609999418
-0.0138000166043639
-0.0134087493643164
-0.0131990043446421
-0.0133074633777141
-0.0138756493106484
-0.0150404972955584
-0.0169186852872371
-0.0195823665708303
-0.023034069687128
-0.0271917283535003
-0.0318884924054145
-0.0368875749409198
-0.041907787322998
-0.0466527789831161
-0.0508392006158828
-0.0542222559452056
-0.0566186048090457
-0.0579232573509216
-0.0581156462430954
-0.0572548322379589
-0.0554670244455337
-0.0529267527163028
-0.0498343482613563
-0.046396005898714
-0.0428084209561347
-0.0392424464225769
-0.0358219780027866
-0.032600961625576
-0.0295337494462728
-0.0264365226030349
-0.0229880027472972
-0.0188196338713169
-0.0136500373482704
-0.0073808720335364
-0.0001266859471797
0.0078097255900502
0.0159983597695827
0.0239581316709518
0.0312290545552968
0.0374300517141819
0.042298749089241
0.0457135140895843
0.0476978756487369
0.0484020374715328
0.0480560138821601
0.0469049327075481
0.0451530441641807
0.0429359748959541
0.0403221845626831
0.037335243076086
0.033985249698162
0.0302966088056564
0.0263225976377725
0.0221449565142393
0.0178642384707927
0.0135904364287853
0.0094430446624755
0.005562930367887
0.0021271193400025
-0.0006527118384838
-0.0025634076446294
-0.0034452937543392
-0.0032381052151322
-0.0019953064620494
0.0001384150236845
0.0029813945293426
0.0063715404830873
0.0101821953430771
0.0142933521419763
0.0185544211417436
0.0227662697434425
0.0266883261501789
0.0300696399062871
0.0326942205429077
0.0344191417098045
0.0351880192756652
0.0350207649171352
0.033994123339653
0.0322267934679985
0.0298760533332824
0.0271423682570457
0.0242648944258689
0.0214945282787084
0.0190509352833032
0.0170824360102415
0.0156427398324012
0.0146839022636413
0.014062725007534
0.0135651705786585
0.0129494564607739
0.0119993025436997
0.0105694215744733
0.0086032329127192
0.0061231581494212
0.0032112002372741
-1.0377727448940275e-05
-0.003396013751626
-0.0067870384082198
-0.0100195026025176
-0.0129424789920449
-0.0154448635876178
-0.017475364729762
-0.0190478190779685
-0.0202312748879194
-0.0211274549365043
-0.0218461323529481
-0.0224917624145746
-0.0231621172279119
-0.0239433087408542
-0.024891909211874
-0.0260149873793125
-0.0272592194378376
-0.0285126455128192
-0.0296244975179433
-0.0304410383105278
-0.0308414921164512
-0.0307606197893619
-0.0301957465708255
-0.0291976984590291
-0.0278466939926147
-0.0262259524315595
-0.024410955607891
-0.0224746763706207
-0.020490825176239
-0.0185248702764511
-0.0166199579834938
-0.014789817854762
-0.0130259599536657
-0.0113213220611214
-0.0097054839134216
-0.0082720164209604
-0.0071772709488868
-0.0066102053970098
-0.0067459135316312
-0.0076970313675701
-0.0094762649387121
-0.011981887742877
-0.0150177469477057
-0.0183425042778253
-0.0217226669192314
-0.0249683111906051
-0.0279408376663923
-0.0305303446948528
-0.0326220542192459
-0.0340889692306518
-0.0348258763551712
-0.034797079861164
-0.0340616330504417
-0.0327617451548576
-0.0310817286372184
-0.0292017143219709
-0.027267487719655
-0.0253750029951334
-0.023557960987091
-0.0217818710952997
-0.0199598688632249
-0.0179900992661714
-0.0157934632152318
-0.0133315324783325
-0.0106034241616725
-0.0076339021325111
-0.0044620260596275
-0.0011349730193614
0.0022919625043869
0.0057576037943363
0.0092083700001239
0.012615393847227
0.0159776750952005
0.0193033050745725
0.0225766897201538
0.02573212236166
0.0286535210907459
0.0312004499137401
0.0332411117851734
0.0346734784543514
0.0354304611682891
0.0354800969362258
0.0348360426723957
0.033577024936676
0.0318540893495082
0.0298746302723884
0.0278751533478498
0.0260942317545413
0.0247463881969451
0.0239993352442979
0.0239609293639659
0.024676363915205
0.0261289533227682
0.0282392706722021
0.030865766108036
0.0338145494461059
0.0368611887097358
0.0397790856659412
0.0423660725355148
0.0444667227566242
0.0459933467209339
0.0469417870044708
0.0473893024027347
0.0474671944975853
0.0473193451762199
0.0470705591142177
0.0468155741691589
0.0466194525361061
0.0465189218521118
0.0465212613344192
0.0466027334332466
0.0467103943228721
0.0467690229415893
0.0466937944293022
0.0464006103575229
0.0458031073212623
0.0448019653558731
0.0432792231440544
0.0411022268235683
0.0381424874067306
0.0343114361166954
0.029597844928503
0.0240858383476734
0.0179472975432872
0.0114194629713892
0.0047801192849874
-0.0016797361895442
-0.0076868841424584
-0.0130118280649185
-0.0174845941364765
-0.0210028141736984
-0.0235336981713771
-0.0251107718795537
-0.025827158242464
-0.0258264448493719
-0.0252895951271057
-0.0244161449372768
-0.023401390761137
-0.0224146414548158
-0.0215835869312286
-0.0209835842251777
-0.0206289682537317
-0.0204705595970153
-0.0204047430306673
-0.0202949084341526
-0.0200022924691438
-0.0194198414683341
-0.0185003131628036
-0.0172689482569694
-0.0158143229782581
-0.0142599307000637
-0.0127316210418939
-0.0113377962261438
-0.0101638026535511
-0.0092707648873329
-0.0086919330060482
-0.0084307398647069
-0.0084715224802494
-0.0088008400052785
-0.0094240978360176
-0.0103688612580299
-0.0116754546761512
-0.0133804883807897
-0.0155008118599653
-0.0180182866752147
-0.0208659581840038
-0.0239250529557466
-0.0270391963422298
-0.0300405845046043
-0.0327754467725753
-0.035117320716381
-0.0369683280587196
-0.038258496671915
-0.0389486253261566
-0.0390333123505115
-0.0385419838130474
-0.0375401377677917
-0.0361298136413097
-0.0344427861273288
-0.0326223261654377
-0.030800336971879
-0.0290797166526317
-0.0275220368057489
-0.0261409282684326
-0.0249070152640342
-0.023762023076415
-0.0226329267024993
-0.02144405990839
-0.0201291628181934
-0.0186396148055791
-0.0169465839862823
-0.0150426384061574
-0.0129456743597984
-0.0106999659910798
-0.0083692409098148
-0.0060233762487769
-0.0037233363837003
-0.0015087565407156
0.0006037168204784
0.0026025716215372
0.0044471397995948
0.0060392264276742
0.007226494140923
0.0078391917049884
0.0077381609007716
0.0068508861586451
0.0051855882629752
0.0028279926627874
-7.011555135250092e-05
-0.0033056694082915
-0.0066422605887055
-0.0098334942013025
-0.0126493964344263
-0.0148946279659867
-0.0164123214781284
-0.0170844662934541
-0.0168417412787675
-0.0156837943941354
-0.013701057061553
-0.0110810054466128
-0.0080855442211031
-0.0050047906115651
-0.0021060181315988
0.000404751393944
0.0024036392569541
0.0038574370555579
0.0048217196017503
0.0054262839257717
0.0058480729348957
0.0062742200680077
0.0068634850904345
0.0077200625091791
0.0088837100192904
0.0103269116953015
0.0119589008390903
0.013648746535182
0.0152658987790346
0.0167181361466646
0.0179715026170015
0.0190512277185916
0.0200287010520696
0.0209947824478149
0.0220177806913852
0.0230976790189743
0.0241375435143709
0.0249469894915819
0.0252795666456222
0.0248916856944561
0.0236043743789196
0.0213492102921009
0.0181863903999328
0.0143055375665426
0.010027845390141
0.0058001088909804
0.0021606106311082
-0.0003169337287545
-0.001080241985619
0.0003532730042934
0.0043454859405756
0.0110613880679011
0.0203662849962711
0.0317428298294544
0.0442912206053733
0.0568302758038044
0.0680608451366424
0.076737605035305
0.0818126872181892
0.0825220346450805
0.0783962979912757
0.0692359432578086
0.0551183968782424
0.0364402420818805
0.013936205767095
-0.011367242783308
-0.038257397711277
-0.0654589384794235
-0.0917321294546127
-0.115934707224369
-0.137066051363945
-0.1543024629354477
-0.1670188158750534
-0.1748050302267074
-0.1774863749742508
-0.1751436442136764
-0.1681282371282577
-0.157063215970993
-0.142810046672821
-0.1263851821422577
-0.1088417842984199
-0.0911548659205436
-0.0741317570209503
-0.0583541244268417
-0.0441591925919055
-0.0316542983055114
-0.0207487866282463
-0.0111982151865959
-0.0026605203747749
0.0052419230341911
0.0128639824688434
0.0204924419522285
0.0283178836107254
0.0364243574440479
0.0447938740253448
0.0533213838934898
0.0618391521275043
0.0701460242271423
0.0780340060591697
0.0853110775351524
0.0918221846222877
0.0974653735756874
0.1021958887577056
0.106018453836441
0.1089768484234809
0.111144870519638
0.112616516649723
0.1134942770004272
0.1138769090175628
0.113850325345993
0.1134826391935348
0.112820878624916
0.1118902415037155
0.1106982380151748
0.1092408746480941
0.107508510351181
0.1054910644888877
0.1031803637742996
0.1005684733390808
0.0976433828473091
0.0943815112113952
0.0907391458749771
0.0866504162549972
0.0820353403687477
0.0768150016665458
0.0709305256605148
0.0643644258379936
0.0571587309241294
0.04942112788558
0.0413176566362381
0.0330576747655868
0.0248745419085025
0.0170015376061201
0.0096486993134021
0.0029883570969104
-0.0028548259288072
-0.0078136771917343
-0.0118825510144233
-0.0151121690869331
-0.0175986178219318
-0.0194702669978141
-0.0208734683692455
-0.0219571739435195
-0.0228592902421951
-0.023697804659605
-0.0245655197650194
-0.0255264677107334
-0.0266147516667842
-0.0278360154479742
-0.0291710775345563
-0.0305806808173656
-0.0320116430521011
-0.0334058552980423
-0.0347094498574733
-0.0358796007931232
-0.0368899330496788
-0.0377330109477043
-0.0384165607392787
-0.0389570817351341
-0.039377361536026
-0.0397046841681003
-0.0399678498506546
-0.0402003973722457
-0.0404506400227546
-0.0407898165285587
-0.0413119792938232
-0.0421232916414737
-0.0433228611946105
-0.0449825599789619
-0.0471315309405326
-0.0497451424598693
-0.0527393966913223
-0.055975429713726
-0.0592738762497901
-0.0624353475868701
-0.0652652308344841
-0.0675961822271347
-0.0693017467856407
-0.070302128791809
-0.0705641284584999
-0.0700980722904205
-0.0689551383256912
-0.0672217905521392
-0.0650092884898185
-0.0624424740672111
-0.0596496537327766
-0.0567536987364292
-0.0538629591464996
-0.0510600432753562
-0.0483920946717262
-0.0458676218986511
-0.0434632077813148
-0.0411416068673133
-0.0388732850551605
-0.0366483367979526
-0.0344740115106105
-0.0323627591133117
-0.0303180087357759
-0.0283218175172805
-0.0263287555426359
-0.0242689736187458
-0.0220521688461303
-0.01956382766366
-0.0166616421192884
-0.0131870862096548
-0.0089950133115053
-0.003987050615251
0.0018703327514231
0.0085493801161646
0.0159784387797117
0.0240673497319221
0.0327308848500251
0.0418876223266124
0.0514325462281703
0.0612094812095165
0.070999376475811
0.0805254057049751
0.0894759446382522
0.0975404009222984
0.1044455543160438
0.1099915653467178
0.1140926554799079
0.1168054416775703
0.118318036198616
0.1188947409391403
0.118798166513443
0.1182228177785873
0.1172654256224632
0.1159331426024437
0.114172950387001
0.1119047701358795
0.1090496480464935
0.1055461466312408
0.1013534367084503
0.0964486896991729
0.0908221080899238
0.0844640210270881
0.0773472338914871
0.0694231912493705
0.0606462135910987
0.051016554236412
0.0406165197491645
0.0296191126108169
0.0182635188102722
0.006805844604969
-0.0045331344008445
-0.0155998617410659
-0.0263123586773872
-0.0366468280553817
-0.0466160476207733
-0.0562428347766399
-0.0655363872647285
-0.0744820237159729
-0.0830435305833816
-0.091169461607933
-0.0987980663776397
-0.105860598385334
-0.1122867465019226
-0.1180132329463958
-0.1229912117123603
-0.1271899938583374
-0.1306006461381912
-0.1332436800003051
-0.1351778656244278
-0.1365023553371429
-0.1373484581708908
-0.1378630399703979
-0.1381861716508865
-0.1384280771017074
-0.1386522054672241
-0.1388669610023498
-0.1390249729156494
-0.139028787612915
-0.1387408375740051
-0.1379969120025634
-0.1366245448589325
-0.134464755654335
-0.1313919574022293
-0.1273293048143386
-0.122259221971035
-0.1162261217832565
-0.1093282923102378
-0.101701334118843
-0.0935000404715538
-0.0848831608891487
-0.076000340282917
-0.0669821575284004
-0.0579371526837348
-0.0489551723003387
-0.0401125773787498
-0.0314785651862621
-0.0231216996908187
-0.0151138789951801
-0.0075329430401325
-0.0004648268222808
0.00599966943264
0.0117777213454246
0.016813687980175
0.0210972912609577
0.0246745310723781
0.0276482515037059
0.0301683992147445
0.0324142649769783
0.0345725417137146
0.036815408617258
0.0392823740839958
0.0420685932040214
0.0452207997441291
0.0487402118742466
0.0525899305939674
0.0567024834454059
0.0609862133860588
0.0653339028358459
0.0696344226598739
0.0737844854593277
0.0776977837085723
0.0813092961907386
0.0845748335123062
0.087470568716526
0.0899959504604339
0.0921768695116043
0.0940635725855827
0.0957220867276191
0.0972204953432083
0.0986134111881256
0.099929466843605
0.1011661142110824
0.1022929549217224
0.1032610014081001
0.1040133237838745
0.1044937372207641
0.1046495735645294
0.1044254153966903
0.1037524119019508
0.1025441437959671
0.1007052585482597
0.0981497839093208
0.0948218777775764
0.0907124504446983
0.0858676731586456
0.0803881511092186
0.0744197964668273
0.0681393146514892
0.0617372430860996
0.0554010719060897
0.0493012927472591
0.0435821861028671
0.0383571162819862
0.0337064452469348
0.0296768322587013
0.0262814220041036
0.0235003661364316
0.0212831739336252
0.0195548180490732
0.0182248745113611
0.0171975214034318
0.0163806565105915
0.0156933423131704
0.0150712355971336
0.0144693441689014
0.013861509039998
0.0132368337363004
0.012594100087881
0.0119351595640182
0.011258858256042
0.0105578126385807
0.0098182568326592
0.0090204896405339
0.008139245212078
0.007146923802793
0.0060201482847332
0.0047452701255679
0.0033197696320712
0.0017491048201918
3.793666837736964e-05
-0.0018231661524623
-0.0038698764983564
-0.0061678560450673
-0.0088033033534884
-0.0118622118607163
-0.0154061680659651
-0.0194515567272901
-0.0239564217627048
-0.0288177952170372
-0.0338790416717529
-0.0389451757073402
-0.0438036322593688
-0.0482461750507354
-0.0520884245634079
-0.0551856458187103
-0.0574446767568588
-0.0588312223553657
-0.0593702793121337
-0.059139434248209
-0.0582581609487533
-0.0568738393485546
-0.0551438070833683
-0.0532164797186851
-0.0512167997658252
-0.049237735569477
-0.0473363287746906
-0.0455342307686805
-0.0438218340277671
-0.0421639792621135
-0.0405077710747718
-0.0387924090027809
-0.036960195749998
-0.0349688082933425
-0.0328005366027355
-0.0304637178778648
-0.0279885046184062
-0.0254208520054817
-0.0228166170418262
-0.0202370062470436
-0.0177449416369199
-0.0154029242694377
-0.0132750971242785
-0.0114328907802701
-0.0099591398611664
-0.0089452899992465
-0.0084800431504845
-0.0086323861032724
-0.0094339624047279
-0.0108652077615261
-0.0128475064411759
-0.0152427293360233
-0.0178620778024196
-0.0204838123172521
-0.0228758454322814
-0.0248189270496368
-0.0261279251426458
-0.0266685280948877
-0.0263670608401298
-0.0252141058444976
-0.0232617408037185
-0.0206141397356987
-0.0174156781286001
-0.0138384364545345
-0.0100661627948284
-0.006275188177824
-0.002617172896862
0.0007927734404802
0.0038822777569293
0.0066234041005373
0.0090311877429485
0.0111579466611146
0.0130810150876641
0.014885414391756
0.0166472569108009
0.0184227712452411
0.0202440582215785
0.0221201218664646
0.0240399166941642
0.0259751975536346
0.0278842188417911
0.0297168046236038
0.0314171388745307
0.0329197496175766
0.0341402888298034
0.0349698364734649
0.0352810770273208
0.0349469557404518
0.0338653624057769
0.031982734799385
0.0293121617287397
0.0259422808885574
0.0220336038619279
0.0178023241460323
0.0134959807619452
0.0093681318685412
0.0056563150137662
0.0025622583925724
0.0002349689602851
-0.0012395959347486
-0.0018423404544591
-0.0016200318932533
-0.0006782468408346
0.0008321981877088
0.0027333796024322
0.0048400191590189
0.0069778161123394
0.0089986594393849
0.0107920337468385
0.0122918840497732
0.0134777128696441
0.0143699804320931
0.0150218186900019
0.0155074978247284
0.0159080158919096
0.0162978693842887
0.0167366676032543
0.0172645989805459
0.0178997404873371
0.0186377894133329
0.0194551981985569
0.0203149244189262
0.0211734697222709
0.0219867527484893
0.0227100308984518
0.023289231583476
0.0236472971737384
0.0236734189093112
0.023224102333188
0.0221415236592292
0.020285464823246
0.0175667200237512
0.0139711704105138
0.0095716323703527
0.0045271604321897
-0.0009311973117291
-0.0065248878672719
-0.0119571425020694
-0.016942873597145
-0.0212348699569702
-0.0246439389884471
-0.0270530506968498
-0.0284244306385517
-0.0287977438420057
-0.0282797887921333
-0.0270284414291381
-0.025233831256628
-0.0230989996343851
-0.0208209846168756
-0.0185727924108505
-0.0164883323013782
-0.0146528230980038
-0.0130996452644467
-0.0118138212710618
-0.0107417525723576
-0.0098052462562918
-0.0089168809354305
-0.0079946052283048
-0.006973628886044
-0.0058134361170232
-0.00449975207448
-0.0030424366705119
-0.0014702156186103
0.0001749349758028
0.0018421933054924
0.0034771263599395
0.0050262035802006
0.0064342077821493
0.0076326113194227
0.0085261752828955
0.0089890584349632
0.0088764792308211
0.0080491658300161
0.0064033400267362
0.0038983207195997
0.0005744621157646
-0.0034427177160978
-0.0079520000144839
-0.0126970503479242
-0.0173942968249321
-0.0217625517398118
-0.0255492590367794
-0.0285510048270225
-0.0306276157498359
-0.0317097157239913
-0.0318003445863723
-0.0309707373380661
-0.0293506160378456
-0.0271132923662662
-0.0244555436074733
-0.0215749479830265
-0.0186496805399656
-0.0158243346959352
-0.013202846981585
-0.010846247896552
-0.0087725464254617
-0.0069597465917468
-0.0053537292405962
-0.0038806067313998
-0.0024615093134343
-0.0010257761459797
0.0004801584873348
0.0020872608292847
0.0038014911115169
0.0056056845933198
0.0074648577719926
0.0093334289267659
0.0111636109650135
0.0129129095003008
0.0145469820126891
0.016034236177802
0.0173321291804313
0.018370397388935
0.0190403275191783
0.0191993080079555
0.0186935998499393
0.0173931382596492
0.0152269294485449
0.0122078768908977
0.0084408689290285
0.0041144881397485
-0.0005196533165872
-0.0051757413893938
-0.0095658898353576
-0.0134290410205721
-0.0165526270866394
-0.0187874026596546
-0.0200562849640846
-0.0203572362661361
-0.0197590570896863
-0.0183890610933303
-0.016415312886238
-0.0140274111181497
-0.0114175453782081
-0.0087626725435256
-0.0062095937319099
-0.0038643756415694
-0.0017861975356936
1.3481825590133669e-05
0.0015641099307686
0.0029222730081528
0.0041568567976355
0.0053376159630715
0.006525763310492
0.007765888236463
0.0090818293392658
0.0104765966534614
0.0119346808642148
0.0134274791926145
0.0149209257215261
0.0163811221718788
0.0177765674889087
0.0190787147730588
0.0202601160854101
0.0212858598679304
0.0220987293869256
0.0226078983396291
0.0226901303976774
0.0222047921270132
0.0210192650556564
0.0190387796610593
0.0162347126752138
0.0126644549891352
0.0084752049297094
0.0038895078469067
-0.0008217415306717
-0.0053710513748228
-0.0094857430085539
-0.0129351243376731
-0.015549948439002
-0.017233669757843
-0.0179676245898008
-0.0178092792630195
-0.0168806165456771
-0.0153491869568824
-0.013406790792942
-0.0112481545656919
-0.0090513601899147
-0.0069618006236851
-0.0050817532464861
-0.0034668715670704
-0.0021277870982885
-0.0010357872815802
-0.0001334067201241
0.0006521439645439
0.0013964406680315
0.0021673715673387
0.0030161838512867
0.0039715296588838
0.0050391880795359
0.0062063536606729
0.0074467808008193
0.0087258936837315
0.010006564669311
0.0112527599558234
0.0124273691326379
0.0134840933606028
0.0143551286309957
0.0149405486881732
0.0151100549846887
0.0147213973104953
0.0136491004377603
0.0118146482855081
0.0092107858508825
0.0059138936921954
0.0020814649760723
-0.0020649079233407
-0.0062670516781508
-0.0102599887177348
-0.0137974899262189
-0.0166734270751476
-0.0187398921698331
-0.0199196431785821
-0.0202099848538637
-0.0196777638047933
-0.018447071313858
-0.0166820213198661
-0.0145672606304287
-0.0122878644615411
-0.0100102145224809
-0.00786660797894
-0.0059460550546646
-0.0042916075326502
-0.0029029746074229
-0.0017443243414163
-0.0007564960978925
0.0001302927266806
0.0009850314818322
0.0018652176950126
0.0028092158026993
0.0038343863561749
0.0049402005970478
0.0061130682006478
0.007329823449254
0.0085598966106772
0.0097685623914003
0.0109220566228032
0.0119925569742918
0.0129595585167407
0.0138033218681812
0.0144885275512933
0.0149457724764943
0.0150648513808846
0.0147067606449127
0.0137301851063966
0.0120235048234462
0.0095336493104696
0.0062850257381796
0.0023850835859775
-0.0019839853048324
-0.0065846419893205
-0.0111492350697517
-0.0154073610901832
-0.0191124211996793
-0.0220644660294055
-0.0241282247006893
-0.0252439994364976
-0.0254288911819458
-0.0247690323740243
-0.0234044268727302
-0.0215096622705459
-0.0192743949592113
-0.016883585602045
-0.0144977737218141
-0.0122383087873458
-0.0101817734539508
-0.0083616450428962
-0.0067731849849224
-0.0053808642551302
-0.0041287820786237
-0.0029524604324251
-0.0017891332972794
-0.0005855482304468
0.000695580500178
0.0020707554649561
0.0035347950179129
0.0050648539327085
0.0066273510456085
0.0081848176196217
0.0097015080973505
0.0111483987420797
0.012506004422903
0.0137605397030711
0.0148918023332953
0.015856135636568
0.016571732237935
0.0169161222875118
0.0167411621659994
0.0159016139805316
0.0142890885472297
0.0118620302528142
0.008663292042911
0.0048228329978883
0.0005470277392305
-0.0039044092409312
-0.0082499925047159
-0.0122183943167328
-0.0155751556158065
-0.018143393099308
-0.0198171269148588
-0.0205656234174966
-0.0204294621944427
-0.019509881734848
-0.0179539062082767
-0.0159374196082353
-0.0136463958770036
-0.0112570561468601
-0.0089181642979383
-0.006739187054336
-0.0047856210730969
-0.0030803689733147
-0.0016098455525934
-0.0003329184837639
0.0008093668147921
0.0018839305266737
0.0029560457915067
0.004080768674612
0.0052964854985475
0.006621295120567
0.0080526694655418
0.0095709599554538
0.0111455954611301
0.0127406734973192
0.0143183544278144
0.0158416796475648
0.0172774903476238
0.0185961108654737
0.0197633691132068
0.0207253843545913
0.0213947296142578
0.0216489601880311
0.0213445201516151
0.020341970026493
0.0185376424342393
0.0158937983214855
0.0124575365334749
0.0083643207326531
0.0038272193633019
-0.0008863534312695
-0.0054863216355443
-0.009692583233118
-0.0132631920278072
-0.0160165559500455
-0.0178455840796232
-0.0187219977378845
-0.0186921115964651
-0.017865665256977
-0.0163990445435047
-0.014475978910923
-0.0122881038114428
-0.0100158276036381
-0.0078111267648637
-0.0057848044671118
-0.0039994716644287
-0.0024693952873349
-0.0011680470779538
-4.148948937654495e-05
0.0009770356118679
0.0019548889249563
0.0029504536651074
0.0040066037327051
0.0051480196416378
0.0063810804858803
0.0076952679082751
0.0090663414448499
0.0104618864133954
0.0118486415594816
0.0131976855918765
0.0144838243722915
0.0156788881868124
0.0167387668043375
0.0175869781523942
0.0181055106222629
0.0181432515382766
0.0175413135439157
0.0161669831722974
0.0139478798955678
0.0108973542228341
0.0071239206008613
0.0028236345387995
-0.0017420267686247
-0.0062778033316135
-0.0104889785870909
-0.0141125041991472
-0.0169412828981876
-0.0188400093466043
-0.0197531916201114
-0.0197065640240907
-0.0188006926327943
-0.017195351421833
-0.0150868110358715
-0.0126822721213102
-0.0101760234683752
-0.0077318320982158
-0.0054726470261812
-0.0034752893261611
-0.0017698006704449
-0.0003442387096583
0.0008469130843877
0.0018718454521149
0.0028080763295292
0.0037289774045348
0.0046927062794566
0.0057357149198651
0.0068725813180208
0.0080998511984944
0.0093995835632085
0.0107425600290298
0.0120933456346392
0.013415852561593
0.0146770691499114
0.0158488377928733
0.0169069301337003
0.0178243592381477
0.0185569245368242
0.0190253555774688
0.0191059429198503
0.0186398141086101
0.0174594558775424
0.0154245970770716
0.012458948418498
0.0085773114114999
0.0038951346650719
-0.0013793702237308
-0.0069663533940911
-0.0125453555956482
-0.0177912674844265
-0.0224085394293069
-0.0261595044285058
-0.0288840681314468
-0.0305087491869926
-0.0310461111366748
-0.0305860042572021
-0.0292796790599823
-0.0273192524909973
-0.0249145664274692
-0.0222700610756874
-0.0195657704025506
-0.0169447809457778
-0.0145060596987605
-0.0123012885451316
-0.0103374822065234
-0.0085860267281532
-0.0069945948198437
-0.0054995627142488
-0.0040373131632804
-0.0025518289767205
-0.0009990900289267
0.0006500221788883
0.0024087738711386
0.004274676553905
0.0062298085540533
0.0082434602081775
0.0102767264470458
0.0122863836586475
0.0142287006601691
0.0160634890198707
0.0177531745284795
0.0192513391375541
0.0204833541065454
0.0213307403028011
0.0216321311891078
0.0212055779993534
0.0198863241821527
0.0175674017518758
0.0142309749498963
0.0099638244137167
0.0049556195735931
-0.0005187094211578
-0.0061294017359614
-0.0115301199257373
-0.0163968726992607
-0.0204601064324378
-0.0235256887972354
-0.0254854913800954
-0.0263194572180509
-0.0260893758386373
-0.0249253269284963
-0.0230063237249851
-0.0205378159880638
-0.0177299939095973
-0.0147785479202866
-0.0118489116430282
-0.009066573344171
-0.0065134242177009
-0.0042274538427591
-0.0022051846608519
-0.0004089148715138
0.0012211031280457
0.0027531557716429
0.0042531713843345
0.0057775345630943
0.0073687359690666
0.0090533550828695
0.0108420643955469
0.0127304019406437
0.0146988052874803
0.016712874174118
0.0187265612185001
0.0206878744065761
0.0225451737642288
0.0242531243711709
0.0257744342088699
0.0270722657442092
0.0280934665352106
0.0287493914365768
0.0289066918194293
0.0283984392881393
0.0270538888871669
0.0247372165322303
0.0213853474706411
0.0170346498489379
0.0118287522345781
0.0060065323486924
-0.0001251199282705
-0.0062266085296869
-0.0119613073766231
-0.0170267894864082
-0.0211797654628753
-0.024252999573946
-0.0261639319360256
-0.0269156564027071
-0.0265899784862995
-0.0253343489021062
-0.023344911634922
-0.0208457503467798
-0.0180656239390373
-0.0152153577655553
-0.0124688101932406
-0.0099502839148044
-0.0077293813228607
-0.0058219525963068
-0.0041961865499615
-0.0027841590344905
-0.0014981881249696
-0.0002475150395184
0.0010487216059118
0.0024522948078811
0.0040007163770496
0.0057057617232203
0.0075543709099292
0.0095126088708639
0.0115323476493358
0.0135577404871582
0.015530427917838
0.0173950716853141
0.0191036462783813
0.0206121541559696
0.0218665953725576
0.0227848105132579
0.0232466850429773
0.0231008566915988
0.0221873875707387
0.0203714035451412
0.0175797846168279
0.0138302035629749
0.0092437379062175
0.0040379548445343
-0.0014964821748435
-0.0070291985757648
-0.0122263878583908
-0.0167842581868171
-0.0204564929008483
-0.0230740904808044
-0.0245562549680471
-0.024912055581808
-0.0242336895316839
-0.022681601345539
-0.0204627811908721
-0.0178066696971654
-0.0149424206465482
-0.012077884748578
-0.009381671436131
-0.0069711385294795
-0.0049071218818426
-0.003194872289896
-0.001791309332475
-0.0006186019163578
0.0004186707083135
0.0014167823828756
0.0024588315282016
0.0036054293159395
0.0048908069729804
0.0063227694481611
0.0078854514285922
0.0095439795404672
0.0112501382827758
0.0129494788125157
0.0145892249420285
0.01612432859838
0.0175177510827779
0.0187303572893142
0.0197025351226329
0.0203383080661296
0.0205006320029497
0.0200218576937913
0.0187311396002769
0.0164930745959281
0.0132452892139554
0.0090239606797695
0.0039716390892863
-0.0016728024929761
-0.0075989486649632
-0.0134596154093742
-0.018909316509962
-0.0236393716186285
-0.0274043548852205
-0.0300404913723468
-0.0314778350293636
-0.0317420922219753
-0.0309431105852127
-0.029254924505949
-0.0268931426107883
-0.024091700091958
-0.0210802536457777
-0.0180631913244724
-0.0152015481144189
-0.012601257301867
-0.0103103080764412
-0.0083242608234286
-0.0065978863276541
-0.0050599039532244
-0.0036274918820708
-0.0022191533353179
-0.0007657899986952
0.000781322363764
0.0024465499445796
0.0042292885482311
0.0061069773510098
0.0080423699691891
0.0099923545494675
0.0119140883907675
0.0137680079787969
0.0155196823179721
0.017141131684184
0.0186103358864784
0.019905611872673
0.0209913589060306
0.0217977613210678
0.0222060605883598
0.0220519229769706
0.0211498998105525
0.0193317420780658
0.0164869520813226
0.0125954188406467
0.0077462019398808
0.0021393839269876
-0.0039312280714511
-0.0101125100627541
-0.0160348024219274
-0.021352931857109
-0.025780089199543
-0.0291124526411294
-0.0312412716448307
-0.0321515388786792
-0.0319128073751926
-0.0306661836802959
-0.0286065209656953
-0.0259605180472135
-0.022963585332036
-0.0198365934193134
-0.0167640633881092
-0.0138784805312752
-0.011254240758717
-0.0089107723906636
-0.0068227341398596
-0.0049337670207023
-0.0031706597656011
-0.0014570306520909
0.0002747527323663
0.0020755329169332
0.0039753019809722
0.0059819016605615
0.0080826599150896
0.0102487169206142
0.0124398954212665
0.0146094094961881
0.0167097188532352
0.0186993069946765
0.0205471068620681
0.0222316794097423
0.0237352456897497
0.0250315386801958
0.0260669458657503
0.0267426408827304
0.026910800486803
0.0263919532299041
0.0250097680836915
0.0226332899183034
0.0192153360694646
0.0148165700957179
0.0096087539568543
0.0038582056295126
-0.0021047773770987
-0.0079240249469876
-0.0132560702040791
-0.0178041085600852
-0.0213448628783226
-0.0237457267940044
-0.024969769641757
-0.0250698439776897
-0.0241746101528406
-0.0224679075181484
-0.0201651938259601
-0.0174905788153409
-0.0146551392972469
-0.0118388291448354
-0.0091780675575137
-0.0067592151463031
-0.0046187532134354
-0.0027491995133459
-0.0011087418533861
0.0003663110546767
0.001747929258272
0.0031045470386743
0.0044935066252946
0.0059567992575466
0.007517653517425
0.0091789104044437
0.010924894362688
0.0127256168052554
0.0145418494939804
0.0163305420428514
0.0180492680519819
0.0196589939296245
0.0211261939257383
0.0224226135760545
0.0235170722007751
0.0243583247065544
0.0248573869466781
0.0248813759535551
0.0242670308798551
0.0228522028774023
0.0205148179084062
0.0172076281160116
0.0129797179251909
0.0079808048903942
0.0024500023573637
-0.0033085129689425
-0.0089596351608634
-0.0141747817397117
-0.0186658538877964
-0.0222116466611623
-0.0246746521443128
-0.0260071624070405
-0.026247315108776
-0.0255076698958873
-0.0239590890705585
-0.021810870617628
-0.0192868057638406
-0.0165997333824634
-0.0139307137578725
-0.0114164212718606
-0.0091433860361576
-0.007147854194045
-0.0054224296472966
-0.0039280615746974
-0.002606262685731
-0.0013886130182072
-0.0002050863113254
0.0010072032455354
0.0022967762779444
0.0036937594413757
0.0052077965810894
0.0068280440755188
0.0085268877446651
0.0102668330073356
0.0120074339210987
0.0137084666639566
0.0153282834216952
0.0168167762458324
0.0181016717106103
0.0190739165991544
0.0195835530757904
0.0194531753659248
0.018509067595005
0.0166215170174837
0.0137400617823004
0.009915136732161
0.005303637124598
0.0001556137576699
-0.0052155088633298
-0.0104701677337288
-0.0152805745601654
-0.019364345818758
-0.0225084628909826
-0.0245829876512289
-0.0255463756620883
-0.0254414454102516
-0.0243826583027839
-0.0225395467132329
-0.0201179590076208
-0.0173371862620115
-0.0144058056175708
-0.0115021709352731
-0.0087624909356236
-0.006276479922235
-0.004088494926691
-0.0022014498244971
-0.0005829405272379
0.0008253928972408
0.0020959717221558
0.0033032924402505
0.0045135337859392
0.0057767238467931
0.0071227112784981
0.0085614118725061
0.0100857308134436
0.0116745783016085
0.0132951186969876
0.0149059947580099
0.0164626594632864
0.017922393977642
0.0192454103380441
0.0203887727111578
0.0212911367416381
0.0218539629131555
0.0219330675899982
0.0213512256741523
0.0199304223060607
0.0175331998616457
0.0141005814075469
0.0096765626221895
0.0044141467660665
-0.0014367825351655
-0.0075566619634628
-0.0135927554219961
-0.0191970169544219
-0.024060795083642
-0.0279440861195325
-0.0306939724832773
-0.0322499871253967
-0.0326396413147449
-0.031966894865036
-0.0303954053670167
-0.0281283296644687
-0.0253867171704769
-0.0223884508013725
-0.0193290319293737
-0.0163664240390062
-0.0136118251830339
-0.0111259631812572
-0.0089205568656325
-0.006965585052967
-0.005201059859246
-0.0035502421669662
-0.0019327052868902
-0.0002761860378086
0.0014743041247129
0.0033503237646073
0.0053570456802845
0.0074748615734279
0.00966552272439
0.0118805896490812
0.0140698300674557
0.0161873362958431
0.0181932225823402
0.0200488865375518
0.0217038244009017
0.0230769533663988
0.0240431912243366
0.0244361385703086
0.0240698829293251
0.0227751173079013
0.0204400327056646
0.0170438811182975
0.012673994526267
0.0075235879048705
0.0018724089022725
-0.0039443220011889
-0.0095719564706087
-0.0146725168451666
-0.0189573336392641
-0.0222125556319952
-0.0243144445121288
-0.0252327173948287
-0.0250236988067626
-0.0238168500363826
-0.0217951945960521
-0.0191705711185932
-0.0161593612283468
-0.0129634635522961
-0.0097562279552221
-0.006671785376966
-0.0037990314885973
-0.0011822832748293
0.0011720145121216
0.0032864129170775
0.0052041504532098
0.0069802924990653
0.0086721871048212
0.0103314695879817
0.0119984643533825
0.0136984325945377
0.015439124777913
0.0172104313969612
0.0189878679811954
0.02073853649199
0.0224264245480299
0.0240161754190921
0.0254746042191982
0.026767011731863
0.0278447978198528
0.0286265984177589
0.0289847124367952
0.0287496540695428
0.0277361590415239
0.0257837884128093
0.0227985996752977
0.0187822300940752
0.0138426385819911
0.0081879077479243
0.0021054584067314
-0.0040700840763747
-0.0099931098520755
-0.0153405191376805
-0.0198402218520641
-0.0232935063540935
-0.0255894996225833
-0.0267098117619752
-0.0267221815884113
-0.0257658064365386
-0.0240318495780229
-0.0217400584369897
-0.0191148743033409
-0.0163649376481771
-0.0136659126728773
-0.011147666722536
-0.0088889021426439
-0.0069189430214464
-0.0052237594500184
-0.0037549177650362
-0.0024413000792264
-0.0012022627051919
3.971357364207506e-05
0.0013481813948601
0.0027648208197206
0.0043060039170086
0.0059643187560141
0.0077134976163506
0.0095141706988215
0.011319076642394
0.0130785098299384
0.0147459413856267
0.0162809174507856
0.017645064741373
0.0187881737947464
0.0196278784424066
0.0200362652540206
0.0198466684669256
0.0188817381858825
0.0169924087822437
0.014095801860094
0.0102040152996778
0.005437662359327
1.983996480703354e-05
-0.0057488023303449
-0.0115269906818866
-0.0169718824326992
-0.0217727832496166
-0.0256768222898244
-0.0285072736442089
-0.0301749892532825
-0.0306811183691024
-0.0301098767668008
-0.0286134388297796
-0.0263919327408075
-0.0236703976988792
-0.0206754207611084
-0.0176145546138286
-0.0146593796089291
-0.0119332745671272
-0.009505933150649
-0.0073941727168858
-0.0055677872151136
-0.0039609568193554
-0.0024884536396712
-0.0010625384747982
0.0003936029970645
0.0019375754054635
0.0036035627126693
0.0054010269232094
0.0073172501288354
0.009322665631771
0.0113758835941553
0.0134285436943173
0.015428771264851
0.0173174068331718
0.0190152470022439
0.0204078219830989
0.0213397815823555
0.0216280091553926
0.0210918523371219
0.0195919536054134
0.017067015171051
0.0135572869330644
0.0092095825821161
0.0042650089599192
-0.0009678865317255
-0.0061493655666708
-0.0109465308487415
-0.0150662548840045
-0.0182797778397798
-0.0204392969608306
-0.0214864984154701
-0.0214519258588552
-0.0204448830336332
-0.0186353586614131
-0.0162317417562007
-0.0134574910625815
-0.0105283958837389
-0.0076323593966662
-0.004914051387459
-0.0024669871199876
-0.0003340470138937
0.0014862483367323
0.0030315611511468
0.0043661682866513
0.0055689075961709
0.0067196739837527
0.0078872218728065
0.0091210091486573
0.0104473438113927
0.0118692647665739
0.0133704412728548
0.0149207171052694
0.016481053084135
0.0180087257176637
0.0194618459790945
0.0207996945828199
0.0219764709472656
0.0229282546788454
0.0235577635467052
0.0237272828817367
0.0232687219977378
0.0220103338360786
0.019811887294054
0.0165998507291078
0.0123952981084585
0.0073257936164736
0.0016166167333722
