bvp
0.2788778245449066
0.2681893408298492
0.2561697959899902
0.2430956959724426
0.2292569130659103
0.2149325013160705
0.2003662437200546
0.1857328116893768
0.1711011528968811
0.1564132422208786
0.1414881646633148
0.126052513718605
0.1097904443740844
0.0924022346735
0.0736640691757202
0.0534829795360565
0.0319370031356811
0.009279727935791
-0.0141055136919021
-0.0377785116434097
-0.0612982809543609
-0.0842509716749191
-0.1062708497047424
-0.1270655691623687
-0.1464297175407409
-0.1642386019229889
-0.1804408431053161
-0.1950603127479553
-0.2081935852766037
-0.219990462064743
-0.2306230664253235
-0.2402572631835937
-0.2490324527025222
-0.2570498287677765
-0.2643664181232452
-0.2709904909133911
-0.2768811285495758
-0.2819572687149048
-0.286115825176239
-0.2892534136772156
-0.2912828624248504
-0.2921419143676758
-0.2917978763580322
-0.2902518510818481
-0.2875444889068603
-0.283759593963623
-0.2790195643901825
-0.2734744250774383
-0.267288863658905
-0.2606276273727417
-0.2536401748657226
-0.2464492619037628
-0.2391473650932312
-0.2318005263805389
-0.2244586050510406
-0.217172771692276
-0.2100141942501068
-0.2030819952487945
-0.1964968740940094
-0.1903839707374572
-0.1848440170288086
-0.1799153983592987
-0.1755460053682327
-0.1715927571058273
-0.1678469777107238
-0.1640703380107879
-0.1600258350372314
-0.1554991006851196
-0.1503159254789352
-0.1443588435649871
-0.1375771462917328
-0.1299857944250106
-0.1216558218002319
-0.1127019375562667
-0.1032699868083
-0.0935245081782341
-0.083635076880455
-0.0737609192728996
-0.0640355348587036
-0.0545534119009971
-0.0453602075576782
-0.0364503823220729
-0.0277768187224864
-0.0192684829235076
-0.0108482865616679
-0.0024495190009474
0.0059709916822612
0.0144283175468444
0.0229115225374698
0.031386375427246
0.0397990904748439
0.0480839014053344
0.0561746954917907
0.0640177652239799
0.0715796202421188
0.0788460820913314
0.0858141779899597
0.0924798846244812
0.0988230109214782
0.1047919392585754
0.1102941185235977
0.1151964515447616
0.1193358749151229
0.1225400492548942
0.1246577873826026
0.1255939304828643
0.1253379136323928
0.1239769384264946
0.1216925755143165
0.118743821978569
0.1154390648007392
0.1121011078357696
0.1090307310223579
0.1064735800027847
0.1045964136719703
0.103477157652378
0.1031075567007064
0.1034057810902595
0.1042365208268165
0.1054343432188034
0.1068266332149505
0.1082524210214614
0.1095729246735572
0.1106741949915885
0.1114677339792251
0.1118917986750602
0.1119113117456436
0.1115154922008514
0.1107133477926254
0.1095278114080429
0.1079912558197975
0.1061449497938156
0.1040414273738861
0.1017454862594604
0.0993310362100601
0.0968740060925483
0.0944418013095855
0.0920816212892532
0.0898129269480705
0.0876259207725524
0.0854831263422966
0.0833203643560409
0.0810462459921836
0.078543521463871
0.0756780430674552
0.0723176822066307
0.068354807794094
0.063724584877491
0.0584197118878364
0.0525008477270603
0.0460967645049095
0.0393940731883049
0.0326201617717742
0.0260191820561885
0.019822547212243
0.0142243914306163
0.009369870647788
0.0053500141948461
0.0021974463015794
-0.0001118518412113
-0.0016478225588798
-0.0025120787322521
-0.0028258804231882
-0.0027204547077417
-0.0023291446268558
-0.0017840526998043
-0.0012147445231676
-0.0007426608353853
-0.0004713670350611
-0.0004770196974277
-0.0008009311277419
-0.0014452602481469
-0.0023729931563138
-0.0035112483892589
-0.0047585219144821
-0.0059997551143169
-0.0071284146979451
-0.008068012073636
-0.0087850457057356
-0.0092902984470129
-0.0096313506364822
-0.0098801646381616
-0.0101178791373968
-0.0104200411587953
-0.0108481161296367
-0.0114512424916028
-0.0122749228030443
-0.0133689874783158
-0.0147896371781826
-0.016596496105194
-0.0188470892608165
-0.0215876065194606
-0.0248399749398231
-0.0285887066274881
-0.0327719040215015
-0.0372791178524494
-0.0419542603194713
-0.0466020219027996
-0.0509998500347137
-0.0549166426062583
-0.0581365525722503
-0.0604845434427261
-0.0618479698896408
-0.0621883496642112
-0.0615427568554878
-0.0600184239447116
-0.0577809363603591
-0.0550349056720733
-0.0519988909363746
-0.0488785058259964
-0.0458430089056491
-0.0430090427398681
-0.0404320880770683
-0.0381086617708206
-0.0359899438917636
-0.0339991450309753
-0.0320480093359947
-0.0300556942820549
-0.0279682595282793
-0.025770254433155
-0.0234828609973192
-0.0211512390524148
-0.0188286881893873
-0.0165631417185068
-0.0143881514668464
-0.0123189687728881
-0.0103526981547474
-0.0084734288975596
-0.006665582768619
-0.0049333646893501
-0.003317967057228
-0.001906213350594
-0.0008277846500277
-0.0002382732927799
-0.0002893134951591
-0.0010942509397864
-0.0026985723525285
-0.0050604492425918
-0.0080449841916561
-0.0114340744912624
-0.0149509999901056
-0.0182955749332904
-0.021183256059885
-0.0233804713934659
-0.0247291922569274
-0.0251586940139532
-0.0246858056634664
-0.0234044324606657
-0.0214657727628946
-0.0190520137548446
-0.0163474101573228
-0.0135132521390914
-0.0106729306280612
-0.007907947525382
-0.0052627888508141
-0.0027544982731342
-0.0003812480717897
0.001870185136795
0.0040163197554647
0.0060713845305144
0.0080462899059057
0.0099500641226768
0.0117910886183381
0.0135774202644824
0.0153175154700875
0.0170218721032142
0.0187036264687776
0.0203760806471109
0.0220474172383546
0.0237148124724626
0.0253593921661376
0.0269409921020269
0.0283927954733371
0.0296196788549423
0.0305027104914188
0.0309100411832332
0.0307159423828125
0.0298247821629047
0.0281915664672851
0.0258352756500244
0.0228437203913927
0.0193667858839035
0.0155986649915575
0.0117542678490281
0.0080457748845219
0.004664281848818
0.0017675338312983
-0.0005282238125801
-0.002151514403522
-0.003073364496231
-0.0033039068803191
-0.0028897356241941
-0.0019093323498964
-0.0004679644480347
0.0013069789856672
0.0032744230702519
0.0052924677729606
0.0072304606437683
0.0089767854660749
0.0104459626600146
0.011589178815484
0.0124025177210569
0.0129253538325428
0.0132309291511774
0.0134137365967035
0.0135738868266344
0.0137992342934012
0.0141505468636751
0.0146543439477682
0.0153025081381201
0.016057152301073
0.0168598778545856
0.0176414661109447
0.018329631537199
0.0188536513596773
0.0191427189856767
0.019121466204524
0.0187098793685436
0.0178286917507648
0.0164102520793676
0.0144132310524582
0.0118348160758614
0.0087172398343682
0.0051492052152752
0.0012632047291845
-0.0027700511272996
-0.0067515410482883
-0.0104700941592454
-0.0137237040325999
-0.0163409374654293
-0.0181968044489622
-0.0192233808338642
-0.0194169338792562
-0.0188389997929334
-0.0176090542227029
-0.0158896781504154
-0.0138668976724147
-0.0117287393659353
-0.0096439495682716
-0.007744500413537
-0.006114955060184
-0.0047880732454359
-0.0037468380760401
-0.0029330214019864
-0.0022612332832068
-0.0016375801060348
-0.0009784700814634
-0.0002249588724225
0.0006483308970928
0.0016319886781275
0.002689242362976
0.0037669981829822
0.0048073818907141
0.0057613993994891
0.0066006467677652
0.0073192482814192
0.007924934849143
0.0084222601726651
0.0087920296937227
0.008974845521152
0.0088681457564234
0.0083402162417769
0.0072553697973489
0.0055023459717631
0.0030222674831748
-0.0001686578616499
-0.0039697554893791
-0.0082009956240654
-0.0126178795471787
-0.01693657040596
-0.0208680946379899
-0.0241535156965255
-0.0265941023826599
-0.0280719455331563
-0.0285578705370426
-0.0281088314950466
-0.0268552638590335
-0.0249767694622278
-0.0226724278181791
-0.0201354809105396
-0.0175346061587333
-0.0150006711483001
-0.0126193016767501
-0.0104300510138273
-0.0084338886663317
-0.0066070668399333
-0.0049148797988891
-0.003323062788695
-0.001807268243283
-0.0003571819979697
0.001026727608405
0.0023392429575324
0.0035737822763621
0.0047241207212209
0.0057879597879946
0.0067702452652156
0.0076821385882794
0.0085366331040859
0.0093432320281863
0.0101012149825692
0.0107904551550745
0.0113617340102791
0.0117322783917188
0.0117917535826563
0.0114199239760637
0.010511883534491
0.009002729319036
0.0068865064531564
0.0042260885238647
0.0011491656769067
-0.0021688740234822
-0.0055276080965995
-0.0087240431457757
-0.0115729309618473
-0.0139220310375094
-0.0156607199460268
-0.0167248360812664
-0.0170985125005245
-0.0168099720031023
-0.0159217994660139
-0.0145203368738293
-0.0127070154994726
-0.0105916485190391
-0.0082872351631522
-0.0059052058495581
-0.0035495380870997
-0.0013104462996125
0.0007400219328701
0.0025513169821351
0.0040989192202687
0.0053878375329077
0.0064510246738791
0.0073431311175227
0.0081325788050889
0.0088927540928125
0.0096923317760229
0.0105856508016586
0.01160379499197
0.0127480011433362
0.0139883533120155
0.0152692208066582
0.016519883647561
0.0176657531410455
0.0186346974223852
0.0193572919815778
0.0197652373462915
0.0197917316108942
0.0193735491484403
0.0184545144438743
0.0169933121651411
0.0149751212447881
0.0124210733920335
0.0093928603455424
0.0059931385330855
0.0023611634969711
-0.0013345844345167
-0.0049044825136661
-0.0081494720652699
-0.0108789252117276
-0.0129316430538892
-0.0141956890001893
-0.0146232824772596
-0.0142380697652697
-0.0131335649639368
-0.0114613901823759
-0.0094107706099748
-0.0071842754259705
-0.004973767325282
-0.0029391385614871
-0.0011919332901015
0.0002142732264474
0.0012845998862758
0.002074034884572
0.0026709772646427
0.0031759771518409
0.0036798161454498
0.004247061908245
0.0049084778875112
0.0056612300686538
0.0064752213656902
0.0073038348928093
0.0080962954089045
0.00880878418684
0.0094124721363186
0.00989546533674
0.0102549437433481
0.0104817207902669
0.0105460528284311
0.0103917308151721
0.0099388621747493
0.0090942326933145
0.0077699911780655
0.0059071932919323
0.0034963423386216
0.0005904780700802
-0.0026911401655524
-0.006171092391014
-0.0096324412152171
-0.0128429774194955
-0.0155814103782176
-0.0176640562713146
-0.0189683027565479
-0.019447810947895
-0.0191368460655212
-0.0181417278945446
-0.0166198294609785
-0.0147522399201989
-0.0127174388617277
-0.0106701347976922
-0.0087263444438576
-0.0069551612250506
-0.0053783757612109
-0.0039780400693416
-0.0027105240151286
-0.0015243932139128
-0.0003773537173401
0.0007529803551733
0.0018667872063815
0.0029465775005519
0.0039663626812398
0.0049028997309505
0.0057440735399723
0.0064919800497591
0.007163138128817
0.0077859768643975
0.0083927446976304
0.0090083545073866
0.009641733020544
0.010279519483447
0.0108796274289488
0.0113668516278266
0.0116355158388614
0.0115612242370843
0.011019118130207
0.0099049946293234
0.0081569943577051
0.0057737724855542
0.0028218924999237
-0.0005704183131456
-0.0042279306799173
-0.0079471990466117
-0.0115190520882606
-0.0147520489990711
-0.0174910780042409
-0.0196265950798988
-0.0210951715707778
-0.0218753311783075
-0.0219812169671058
-0.0214553922414779
-0.0203626211732625
-0.0187854506075382
-0.0168202277272939
-0.0145736653357744
-0.012160524725914
-0.0096996165812015
-0.0073061864823102
-0.0050820121541619
-0.0031045640353113
-0.0014177199918776
-2.730824053287506e-05
0.00109807937406
0.0020216030534356
0.0028277456294745
0.0036072037182748
0.004439478740096
0.0053788945078849
0.0064477520063519
0.0076352916657924
0.0089022377505898
0.0101906545460224
0.0114360265433788
0.0125786308199167
0.013570325449109
0.0143735986202955
0.0149554796516895
0.0152802094817161
0.0153017099946737
0.0149590466171503
0.0141804432496428
0.0128968367353081
0.0110602220520377
0.0086604449898004
0.0057370830327272
0.0023858954664319
-0.0012420166749507
-0.0049500470049679
-0.0085131656378507
-0.0116999791935086
-0.0142977833747863
-0.0161367319524288
-0.0171096622943878
-0.0171848721802234
-0.0164088495075702
-0.014898844063282
-0.0128274485468864
-0.0104008354246616
-0.0078322272747755
-0.0053142481483519
-0.0029956204816699
-0.000965773127973
0.0007502087391912
0.0021837148815393
0.0034042904153466
0.0044984277337789
0.005550917237997
0.0066298032179474
0.007775155827403
0.0089932829141616
0.010258650407195
0.0115243401378393
0.0127376280725002
0.0138543602079153
0.0148486588150262
0.0157169923186302
0.0164750255644321
0.0171485338360071
0.0177620761096477
0.0183254275470972
0.0188174527138471
0.0191735010594129
0.0192849095910787
0.0190134346485137
0.0182162839919328
0.0167749300599098
0.0146223213523626
0.0117633026093244
0.0082831606268882
0.0043426817283034
0.000160900177434
-0.004012060817331
-0.0079263877123594
-0.0113612581044435
-0.0141467237845063
-0.0161773599684238
-0.017416875809431
-0.0178939402103424
-0.0176900029182434
-0.0169204901903867
-0.0157142393290996
-0.0141970664262771
-0.0124817201867699
-0.0106639917939901
-0.0088237430900335
-0.0070280977524816
-0.005333362147212
-0.0037845878396183
-0.0024147871881723
-0.001244155340828
-0.000277189159533
0.0005009908927604
0.0011250898241996
0.0016462603816762
0.0021259170025587
0.0026264514308422
0.0032007386907935
0.0038838642649352
0.0046883411705493
0.0056023658253252
0.0065896902233362
0.007589197717607
0.0085144797340035
0.0092569161206483
0.009695203974843
0.009710818529129
0.0092060146853327
0.0081201698631048
0.0064412825740873
0.0042097335681319
0.0015141079202294
-0.0015175931621342
-0.0047295354306697
-0.0079518277198076
-0.0110142156481742
-0.0137576628476381
-0.0160441808402538
-0.017765125259757
-0.0188467614352703
-0.0192540064454078
-0.0189933069050312
-0.018112439662218
-0.0166959874331951
-0.0148577652871608
-0.0127310883253812
-0.0104580326005816
-0.0081789270043373
-0.0060206982307136
-0.0040836348198354
-0.0024308252613991
-0.0010838733287528
-2.3811007849872112e-05
0.0008042055414989
0.0014803644735366
0.0020940359681844
0.0027273846790194
0.0034421165473759
0.0042704157531261
0.0052127363160252
0.0062423846684396
0.0073133814148604
0.0083703873679041
0.0093609793111681
0.0102465450763702
0.0110056363046169
0.0116270463913679
0.0120949540287256
0.0123729994520545
0.0123954806476831
0.0120700532570481
0.0112914368510246
0.0099616050720214
0.0080113634467124
0.0054210200905799
0.0022361457813531
-0.0014269192470237
-0.0053865457884967
-0.0094110369682312
-0.0132430829107761
-0.0166303254663944
-0.0193560756742954
-0.0212639141827821
-0.0222722776234149
-0.0223793480545282
-0.0216590240597724
-0.0202469136565923
-0.0183183178305625
-0.016063142567873
-0.0136620327830314
-0.0112669430673122
-0.0089876111596822
-0.0068855741992592
-0.0049775736406445
-0.003245600964874
-0.0016503273509442
-0.0001467373222112
0.0013018790632486
0.0027156821452081
0.0040971729904413
0.0054363892413675
0.006719066761434
0.0079345256090164
0.0090813748538494
0.0101698385551571
0.0112205315381288
0.0122598810121417
0.0133122205734252
0.0143888182938098
0.015475945547223
0.01652442663908
0.0174428392201662
0.0180994793772697
0.0183375496417284
0.0180016811937093
0.0169683713465929
0.0151709737256169
0.0126157440245151
0.0093904910609126
0.0056618875823915
0.0016570241423323
-0.0023666487541049
-0.0061549302190542
-0.0094868056476116
-0.0121947322040796
-0.0141730261966586
-0.0153776388615369
-0.0158206671476364
-0.0155597291886806
-0.014683986082673
-0.013300628401339
-0.0115237878635525
-0.0094664664939045
-0.0072362506762146
-0.0049338922835886
-0.0026516402140259
-0.0004706867039203
0.0015410976484417
0.0033325613476336
0.0048743532970547
0.0061632823199033
0.0072238049469888
0.0081054018810391
0.0088756708428263
0.0096093313768506
0.0103751057758927
0.0112249478697776
0.0121864136308431
0.0132574029266834
0.0144062070176005
0.0155770163983106
0.01669760979712
0.0176870003342628
0.0184599310159683
0.0189272873103618
0.018997348845005
0.0185817740857601
0.0176050681620836
0.0160160381346941
0.0137998070567846
0.010986816138029
0.0076552350074052
0.0039257947355508
-4.794867709279061e-05
-0.0040907617658376
-0.0080178715288639
-0.0116465874016284
-0.0148061988875269
-0.0173480734229087
-0.01915661431849
-0.0201599635183811
-0.0203399434685707
-0.0197379570454359
-0.0184520687907934
-0.0166259109973907
-0.0144339920952916
-0.0120640126988291
-0.0096951127052307
-0.0074765761382877
-0.0055135339498519
-0.0038615008816123
-0.0025268329773098
-0.0014706818619742
-0.0006187346298247
0.0001221644924953
0.0008448185399174
0.0016241541597992
0.0025047394447028
0.0034968354739248
0.0045798793435096
0.0057094958610832
0.0068277860991656
0.0078764054924249
0.0088063711300492
0.0095785679295659
0.010154964402318
0.0104874484241008
0.0105133112519979
0.0101592484861612
0.0093504413962364
0.0080242548137903
0.006147232837975
0.0037300214171409
0.000836675055325
-0.0024131420068442
-0.005850818939507
-0.0092727411538362
-0.0124583793804049
-0.0151921706274151
-0.0172869842499494
-0.0186045933514833
-0.0190713424235582
-0.0186881367117166
-0.0175320990383625
-0.0157471355050802
-0.0135234789922833
-0.0110705094411969
-0.0085888924077153
-0.0062468550167977
-0.0041633499786257
-0.002399765420705
-0.0009611145942471
0.0001944756368175
0.0011413387255743
0.0019692832138389
0.0027650161646306
0.0035951603204011
0.0044953450560569
0.0054678530432283
0.0064879767596721
0.007515778299421
0.0085086543112993
0.0094319097697734
0.010266057215631
0.0110106859356164
0.0116816665977239
0.0122972363606095
0.0128570040687918
0.013323325663805
0.0136112514883279
0.0135921174660325
0.0131130144000053
0.0120267430320382
0.0102238589897751
0.0076601793989539
0.0043749129399657
0.0004962137900292
-0.0037671634927392
-0.0081478841602802
-0.0123533103615045
-0.0161031708121299
-0.0191630702465772
-0.021368833258748
-0.0226396061480045
-0.02297930046916
-0.022467752918601
-0.0212428085505962
-0.0194757487624883
-0.0173450354486703
-0.0150138298049569
-0.0126152457669377
-0.0102455643936991
-0.0079634292051196
-0.0057957577519118
-0.0037504609208554
-0.0018297161441296
-3.699702210724354e-05
0.0016226342413574
0.0031451049726456
0.0045296703465282
0.005781234242022
0.0069135753437876
0.0079530281946063
0.0089400559663772
0.0099241435527801
0.0109520722180604
0.0120556959882378
0.0132441706955432
0.0145005388185381
0.0157781057059764
0.0169948153197765
0.0180319566279649
0.0187439583241939
0.0189776271581649
0.0185940116643905
0.0174889154732227
0.0156116876751184
0.0129794776439666
0.009681505151093
0.0058721387758851
0.0017544027650728
-0.0024435659870505
-0.0064930114895105
-0.0101843923330307
-0.013341762125492
-0.0158330183476209
-0.0175754819065332
-0.018535990267992
-0.0187263097614049
-0.0181957855820655
-0.0170237068086862
-0.0153123922646045
-0.0131819676607847
-0.0107670128345489
-0.0082108480855822
-0.0056546069681644
-0.0032234415411949
-0.0010136833880096
0.0009148793760687
0.0025405334308743
0.0038776001892983
0.0049712769687175
0.0058885971084237
0.006707115098834
0.0075029358267784
0.0083392532542347
0.0092576732859015
0.0102735348045825
0.0113745629787445
0.0125240040943026
0.0136694377288222
0.0147535381838679
0.01572154648602
0.0165235754102468
0.017112223431468
0.0174360815435647
0.0174315236508846
0.0170195940881967
0.0161129608750343
0.0146302673965692
0.012513181194663
0.0097441328689455
0.0063624372705817
0.0024735820479691
-0.0017529246397316
-0.0060964017175138
-0.0103062754496932
-0.0141289085149765
-0.0173334386199712
-0.0197334103286266
-0.0212063919752836
-0.0217091366648674
-0.0212817471474409
-0.0200400352478027
-0.01815951988101
-0.0158534031361341
-0.0133467456325888
-0.0108473356813192
-0.0085171116515994
-0.0064556216821074
-0.0047001536004245
-0.0032352495472878
-0.0020057684741914
-0.0009325048886239
6.992253474891186e-05
0.0010747932828962
0.0021287228446453
0.0032445469405502
0.0044031636789441
0.0055629694834351
0.0066734361462295
0.0076887505128979
0.0085771214216947
0.0093235317617654
0.0099262734875082
0.0103872269392013
0.010697541758418
0.0108244642615318
0.0107058817520737
0.0102567877620458
0.0093869902193546
0.0080234799534082
0.0061297290958464
0.0037191663868725
0.0008630836382508
-0.0023098974488675
-0.0056254770606756
-0.0088837901130318
-0.0118824150413274
-0.0144372265785932
-0.0163992643356323
-0.0176681857556104
-0.0182005781680345
-0.0180107094347476
-0.017165083438158
-0.0157716162502765
-0.0139632057398557
-0.0118802711367607
-0.0096566975116729
-0.0074101965874433
-0.0052379490807652
-0.0032140975818037
-0.001386254443787
0.000224421499297
0.0016197094228118
0.0028215195052325
0.0038664743769913
0.0047972025349736
0.0056564812548458
0.0064845806919038
0.0073156636208295
0.0081732720136642
0.0090678390115499
0.0099969496950507
0.0109468586742877
0.0118951527401804
0.012815436348319
0.0136812338605523
0.0144632402807474
0.0151200555264949
0.0155896292999386
0.0157866030931472
0.0156065877526998
0.0149377603083848
0.013679726049304
0.0117663135752081
0.0091843213886022
0.0059826541692018
0.002272680401802
-0.0017785811796784
-0.005962218157947
-0.0100474748760461
-0.0138058513402938
-0.017034862190485
-0.0195770002901554
-0.0213313102722167
-0.0222571156919002
-0.0223714299499988
-0.0217420123517513
-0.0204771310091018
-0.0187132768332958
-0.016601838171482
-0.0142949074506759
-0.0119320880621671
-0.009630823507905
-0.0074803326278924
-0.0055381902493536
-0.0038292477838695
-0.0023478921502828
-0.0010644893627613
6.565544754266739e-05
0.0010924976086243
0.0020625535398721
0.0030142040923237
0.0039766184054315
0.0049693384207785
0.0060016764327883
0.0070733269676566
0.0081758834421634
0.009293645620346
0.0104042394086718
0.0114793647080659
0.0124831292778253
0.0133656784892082
0.0140555957332253
0.0144587932154536
0.0144674610346555
0.0139762554317712
0.0129012055695056
0.0111981071531772
0.0088776247575879
0.0060134311206638
0.0027395414654165
-0.0007637664675712
-0.0042903930880129
-0.0076293405145406
-0.0105845415964722
-0.0129933664575219
-0.0147415846586227
-0.0157712586224079
-0.016079619526863
-0.0157120712101459
-0.0147544043138623
-0.0133239394053816
-0.0115567874163389
-0.0095925088971853
-0.007559513207525
-0.0055642458610236
-0.0036860986147075
-0.0019767533522099
-0.0004615795332938
0.0008573888335376
0.0019967916887253
0.0029861186631023
0.003861631732434
0.0046609416604042
0.0054184701293706
0.0061612091958522
0.0069051790051162
0.0076553113758563
0.008409596979618
0.0091632176190614
0.0099088288843631
0.0106348795816302
0.0113257747143507
0.0119630983099341
0.0125234341248869
0.012970482930541
0.0132462894544005
0.0132702235132455
0.0129471765831112
0.012181463651359
0.0108958994969725
0.0090530263260006
0.0066708135418593
0.0038276729173958
0.0006564236246049
-0.0026709693484008
-0.0059646111913025
-0.0090394262224435
-0.0117364451289176
-0.0139400763437151
-0.0155858527868986
-0.016656145453453
-0.0171708688139915
-0.0171807799488306
-0.0167628768831491
-0.0160145778208971
-0.0150440651923418
-0.0139568708837032
-0.0128429476171731
-0.0117667689919471
-0.0107609676197171
-0.0098264161497354
-0.0089405532926321
-0.0080711711198091
-0.0071900244802236
-0.0062828380614519
-0.0053564542904496
-0.0044429544359445
-0.0035966548603028
-0.0028813097160309
-0.0023521839175373
-0.0020402995869517
-0.0019434341229498
-0.002027403563261
-0.0022376026026904
-0.0025148363783955
-0.0028095608577132
-0.0030933390371501
-0.0033675325103104
-0.0036660474725067
-0.004048247821629
-0.0045833894982934
-0.0053326981142163
-0.0063341232016682
-0.0075913416221737
-0.0090665435418486
-0.0106773059815168
-0.0123008741065859
-0.0137881049886345
-0.0149838617071509
-0.0157492570579051
-0.0159800387918949
-0.0156148690730333
-0.0146352276206016
-0.0130630694329738
-0.0109575185924768
-0.00840974599123
-0.0055358242243528
-0.0024667717516422
0.0006641410291194
0.0037339720875024
0.0066399695351719
0.0093067456036806
0.0116901649162173
0.0137770315632224
0.0155821535736322
0.0171436164528131
0.0185156129300594
0.0197601336985826
0.0209384616464376
0.0221021212637424
0.0232851132750511
0.0245001874864101
0.0257402658462524
0.026984067633748
0.0282019264996051
0.02935884706676
0.03041697666049
0.0313387960195541
0.0320875570178031
0.0326217263936996
0.0328852385282516
0.0328004360198974
0.0322707369923591
0.0311946012079715
0.0294864922761917
0.0270981602370739
0.0240352191030979
0.0203659981489181
0.0162212513387203
0.0117840738967061
0.0072700711898505
0.0029018395580351
-0.0011148990597575
-0.0046079363673925
-0.007448049262166
-0.0095552317798137
-0.0109032876789569
-0.0115205738693475
-0.0114858970046043
-0.0109190810471773
-0.0099640944972634
-0.0087685007601976
-0.0074679413810372
-0.0061772721819579
-0.0049841180443763
-0.0039444472640752
-0.0030821324326097
-0.0023921416141092
-0.0018465877510607
-0.0014020900707691
-0.0010079952189698
-0.0006166201201267
-0.0001917055342346
0.0002894178032875
0.000838114414364
0.0014570914208889
0.0021408398170024
0.0028747357428073
0.003636700566858
0.0044017769396305
0.0051457597874104
0.005846747662872
0.006483853328973
0.0070282253436744
0.0074276346713304
0.0075980070978403
0.0074318600818514
0.0068182554095983
0.0056639211252331
0.003910994157195
0.0015505226328969
-0.0013696709647774
-0.0047449390403926
-0.0084204953163862
-0.0122032212093472
-0.0158805400133132
-0.0192441251128911
-0.022111676633358
-0.0243433974683284
-0.0258530247956514
-0.0266128927469253
-0.0266504734754562
-0.0260367058217525
-0.02487338706851
-0.0232841726392507
-0.0214051827788352
-0.0193721521645784
-0.0173066109418869
-0.0153049789369106
-0.0134324822574853
-0.0117217786610126
-0.0101764593273401
-0.0087787751108407
-0.0074979634955525
-0.0062968349084258
-0.0051376651972532
-0.0039871335029602
-0.0028190691955387
-0.0016160297673195
-0.0003698244690895
0.0009195418097078
0.0022445330396294
0.003590109758079
0.0049354853108525
0.0062572071328759
0.0075312005355954
0.0087327919900417
0.0098335463553667
0.01079330034554
0.0115502104163169
0.0120170665904879
0.0120891295373439
0.0116596054285764
0.01063740439713
0.008966751396656
0.0066455216147005
0.003735804464668
0.0003637159243226
-0.0032918106298893
-0.0070190075784921
-0.0105965761467814
-0.0138151720166206
-0.0164951533079147
-0.018500542268157
-0.0197475254535675
-0.0202079117298126
-0.0199101828038692
-0.0189361628144979
-0.0174110457301139
-0.015487833879888
-0.013327064923942
-0.011076477356255
-0.0088583203032612
-0.0067650061100721
-0.0048573361709713
-0.0031648026779294
-0.0016912585124373
-0.0004214087966829
0.0006758895469829
0.001641982467845
0.0025202634278684
0.0033519065473228
0.0041735768318176
0.0050131133757531
0.00588711630553
0.0068032192066311
0.0077625215053558
0.0087586008012294
0.0097763314843177
0.0107934782281517
0.0117802489548921
0.0126927383244037
0.0134657528251409
0.0140119008719921
0.014228893443942
0.0140131823718547
0.0132751353085041
0.0119541157037019
0.0100349178537726
0.0075624082237482
0.0046471692621707
0.0014563149306923
-0.0018069136422127
-0.004925716202706
-0.0076924129389226
-0.0099298413842916
-0.0115070845931768
-0.0123491222038865
-0.0124401804059743
-0.0118201803416013
-0.0105781322345137
-0.0088436771184206
-0.0067733852192759
-0.004532691091299
-0.0022773467935621
-0.0001371372491121
0.0017951200716197
0.0034678091760724
0.0048684328794479
0.0060153175145387
0.0069447648711502
0.0076988795772194
0.0083168409764766
0.0088294809684157
0.0092599410563707
0.0096291741356253
0.0099594742059707
0.0102745629847049
0.0105986893177032
0.0109556633979082
0.011367717757821
0.0118523053824901
0.0124156512320041
0.0130453594028949
0.0137044666334986
0.0143272597342729
0.0148190911859273
0.0150632737204432
0.0149340443313121
0.0143147809430956
0.013119869865477
0.0113130388781428
0.0089181847870349
0.0060231927782297
0.0027741189114749
-0.0006407974287867
-0.0040126573294401
-0.0071341888979077
-0.0098192244768142
-0.0119201559573411
-0.0133435204625129
-0.0140559840947389
-0.0140788741409778
-0.0134802628308534
-0.0123669113963842
-0.0108711645007133
-0.0091347433626651
-0.0072953389026224
-0.0054753315635025
-0.0037702750414609
-0.0022420585155487
-0.0009211270371451
0.0001867838436737
0.0010952289449051
0.0018336757784709
0.0024440232664346
0.0029754641000181
0.0034779028501361
0.0039946669712662
0.0045564258471131
0.0051790736615657
0.0058660102076828
0.0066121602430939
0.007406004704535
0.0082283308729529
0.0090508069843053
0.0098372213542461
0.0105440188199281
0.0111160771921277
0.0114803649485111
0.0115421544760465
0.0111880935728549
0.0103010050952434
0.0087850484997034
0.0065932143479585
0.0037486646324396
0.0003514792770147
-0.0034323618747293
-0.0073924483731389
-0.011297782883048
-0.014921311289072
-0.0180633161216974
-0.0205694288015365
-0.0223407559096813
-0.0233360212296247
-0.0235683172941207
-0.0230991840362548
-0.0220291819423437
-0.0204845424741506
-0.0186036881059408
-0.0165265630930662
-0.0143839996308088
-0.0122846979647874
-0.0103049147874116
-0.0084867179393768
-0.0068441773764789
-0.0053721191361546
-0.0040520834736526
-0.0028550631832331
-0.0017445918638259
-0.0006821097340434
0.0003670998848974
0.0014295810833573
0.0025214995257556
0.0036490871571004
0.0048103611916303
0.0059945681132376
0.0071796611882746
0.0083330431953072
0.0094187874346971
0.010405758395791
0.0112666497007012
0.011967004276812
0.0124532897025346
0.0126477815210819
0.0124533735215663
0.0117689846083521
0.0105130886659026
0.0086479242891073
0.0061954860575497
0.0032416428439319
-7.07944855093956e-05
-0.003556347452104
-0.0070056421682238
-0.010209041647613
-0.0129802022129297
-0.0151717411354184
-0.0166837312281131
-0.0174683649092912
-0.0175312887877225
-0.0169307589530944
-0.0157702378928661
-0.0141811296343803
-0.0123046049848198
-0.0102791478857398
-0.0082315215840935
-0.0062701334245502
-0.0044803153723478
-0.0029175677336752
-0.0015995616558939
-0.0005061726551502
0.0004087288398295
0.0012022394221276
0.0019316866528242
0.0026468464639037
0.0033853154163807
0.0041740224696695
0.0050321891903877
0.0059709548950195
0.0069916239008307
0.0080842496827244
0.0092283524572849
0.0103948712348937
0.0115435048937797
0.0126148164272308
0.0135238338261842
0.0141611685976386
0.0144044253975152
0.0141397304832935
0.0132859982550144
0.0118117202073335
0.0097433710470795
0.0071684550493955
0.0042298617772758
0.0011097204405814
-0.0019916845485568
-0.0048755663447082
-0.0073605719953775
-0.0092965578660368
-0.0105779003351926
-0.0111550157889723
-0.0110401697456836
-0.0103041538968682
-0.0090632829815149
-0.0074600307270884
-0.0056435214355587
-0.0037546982057392
-0.0019172229804098
-0.0002304371446371
0.0012386667076498
0.0024601309560239
0.0034386778715997
0.0042071253992617
0.0048173083923757
0.005328478757292
0.0057967850007116
0.0062687448225915
0.0067770844325423
0.0073391618207097
0.0079602114856243
0.0086386855691671
0.0093684522435069
0.0101372320204973
0.0109255146235227
0.0117083834484219
0.01245579123497
0.0131267420947551
0.0136609245091676
0.0139737930148839
0.013958916068077
0.0135002862662076
0.012492530979216
0.010862024500966
0.0085826441645622
0.0056854244321584
0.0022635378409177
-0.0015310659073293
-0.0055014258250594
-0.0094239711761474
-0.0130689665675163
-0.0162254869937896
-0.018726484850049
-0.0204647220671176
-0.021396804600954
-0.0215387940406799
-0.0209575481712818
-0.0197598114609718
-0.0180799569934606
-0.016067735850811
-0.013875669799745
-0.0116447238251566
-0.0094906501471996
-0.007495510391891
-0.005706166382879
-0.004138171672821
-0.0027817643713206
-0.0016072441358119
-0.000569715630263
0.000385012011975
0.0013134016189724
0.0022669821046292
0.0032842478249222
0.0043843165040016
0.005567227024585
0.0068175327032804
0.0081056160852313
0.009390621446073
0.0106285791844129
0.0117800515145063
0.0128108076751232
0.0136837922036647
0.014346114359796
0.0147204184904694
0.0147070689126849
0.0141956955194473
0.0130836246535182
0.0112993298098444
0.0088253067806363
0.005712897516787
0.00208465824835
-0.0018758124206215
-0.0059431944973766
-0.0098745375871658
-0.0134363118559122
-0.0164308045059442
-0.0187129005789756
-0.0201938319951295
-0.0208400338888168
-0.0206729285418987
-0.0197653602808713
-0.0182324666529893
-0.0162198543548584
-0.0138884196057915
-0.0113962516188621
-0.0088837267830967
-0.0064650080166757
-0.004223464988172
-0.0022088037803769
-0.0004365579225122
0.0011078286916017
0.0024603847414255
0.003668803256005
0.0047838659957051
0.0058533591218292
0.0069177537225186
0.0080055734142661
0.0091308634728193
0.0102949738502502
0.0114889182150363
0.0126944575458765
0.0138871101662516
0.0150412656366825
0.0161330476403236
0.0171369593590497
0.0180151555687189
0.0187044851481914
0.0191108118742704
0.0191152933984994
0.0185907129198312
0.0174242909997701
0.0155422696843743
0.0129304584115743
0.0096466038376092
0.0058216298930346
0.0016479375772178
-0.0026413458399474
-0.0067953672260046
-0.0105701787397265
-0.0137546602636575
-0.0161907710134983
-0.0177851151674985
-0.0185133498162031
-0.0184161402285099
-0.0175886843353509
-0.0161683559417724
-0.014320014975965
-0.0122171780094504
-0.0100213568657636
-0.0078661162406206
-0.0058504529297351
-0.0040391380898654
-0.0024647526443004
-0.0011289824033156
-5.562091246247292e-06
0.0009515618439763
0.001796657918021
0.0025829779915511
0.0033571645617485
0.0041554979979991
0.005002143792808
0.0059097278863191
0.0068816291168332
0.0079125659540295
0.0089867142960429
0.0100794602185487
0.0111614717170596
0.0121949482709169
0.0131217958405613
0.0138550233095884
0.0142816342413425
0.0142763620242476
0.0137208001688122
0.0125238420441746
0.0106419706717133
0.0080959480255842
0.004977052565664
0.0014405809342861
-0.0023089868482202
-0.0060400287620723
-0.0095215737819671
-0.0125476028770208
-0.0149531429633498
-0.0166259203106164
-0.0175138525664806
-0.0176264718174934
-0.0170311462134122
-0.0158426072448492
-0.0142056122422218
-0.0122775202617049
-0.010212873108685
-0.008147707208991
-0.0061886189505457
-0.0044089248403906
-0.0028480207547545
-0.0015146253863349
-0.0003934488340746
0.0005491495830938
0.0013607968576252
0.0020970918703824
0.0028134272433817
0.0035565993748605
0.0043585989624261
0.0052346601150929
0.0061848340556025
0.0071968715637922
0.0082504888996481
0.0093226572498679
0.0103905694559216
0.0114297159016132
0.0124091431498527
0.0132863912731409
0.0139999696984887
0.0144608113914728
0.0145527236163616
0.0141459386795759
0.0131183564662933
0.011381329037249
0.0089054536074399
0.0057368017733097
0.0019978494383394
-0.0021263784728944
-0.0064101815223693
-0.0106092793866992
-0.0144820287823677
-0.017810832709074
-0.0204224474728107
-0.0222047455608844
-0.023115174844861
-0.0231782495975494
-0.0224759615957736
-0.021134328097105
-0.0193063709884881
-0.0171540901064872
-0.014833990484476
-0.0124877039343118
-0.0102332876995205
-0.0081551130861043
-0.0062986821867525
-0.0046744020655751
-0.0032650709617882
-0.0020320797339081
-0.000922905455809
0.0001195593504235
0.0011497759260237
0.0022136270999908
0.0033433709759265
0.0045559830032289
0.0058525251224637
0.0072172945365309
0.0086201336234807
0.0100210960954427
0.0113745238631963
0.012633484788239
0.0137549266219139
0.0147012546658515
0.0154333719983696
0.0158979762345552
0.016019582748413
0.0157040152698755
0.0148518085479736
0.0133785139769315
0.0112390266731381
0.0084479758515954
0.0050884978845715
0.001309362007305
-0.0026879995130002
-0.0066718691959977
-0.010408092290163
-0.0136864352971315
-0.0163383949548006
-0.0182456783950328
-0.0193450730293989
-0.0196312740445137
-0.01915386877954
-0.0180091448128223
-0.0163286980241537
-0.0142626808956265
-0.0119615634903311
-0.0095645189285278
-0.0071932259015738
-0.0049460288137197
-0.002892623655498
-0.0010713071096688
0.0005096596432849
0.001867129933089
0.0030369514133781
0.00406648311764
0.0050059026107192
0.0059017650783061
0.0067943506874144
0.0077159954234957
0.0086868172511458
0.0097103770822286
0.0107749262824654
0.0118574164807796
0.0129262842237949
0.0139461942017078
0.0148833924904465
0.0157043132930994
0.016366047784686
0.0168057363480329
0.0169374980032444
0.0166593324393033
0.0158672593533992
0.014475000090897
0.0124361561611294
0.0097618009895086
0.0065280105918645
0.0028720421250909
-0.0010209896136075
-0.0049364045262336
-0.0086504183709621
-0.011952456086874
-0.0146658699959516
-0.0166628789156675
-0.0178733151406049
-0.0182879101485013
-0.0179562643170356
-0.0169790126383304
-0.0154937738552689
-0.0136580383405089
-0.0116330478340387
-0.0095687769353389
-0.0075907246209681
-0.0057907691225409
-0.0042222291231155
-0.0028998227789998
-0.00180530839134
-0.0008968918118625
-0.0001191733172163
0.0005878829979337
0.0012803580611944
0.0020026199053972
0.0027830563485622
0.003635961562395
0.0045661199837923
0.0055692167952656
0.0066298735328018
0.007722227834165
0.0088112317025661
0.009851730428636
0.01078462600708
0.0115314833819866
0.0119936410337686
0.0120614366605877
0.011631523258984
0.0106266262009739
0.0090126097202301
0.0068095526657998
0.004097587428987
0.0010152100585401
-0.0022546425461769
-0.0055057336576282
-0.0085301855579018
-0.0111411232501268
-0.0131921833381056
-0.0145869711413979
-0.015281343832612
-0.0152831710875034
-0.0146484803408384
-0.0134743358939886
-0.0118893375620245
-0.0100396173074841
-0.0080709205940365
-0.0061135473661124
-0.0042740697972476
-0.0026278318837285
-0.0012110987445339
-2.135476097464561e-05
0.0009725411655381
0.0018165642395615
0.0025605030823498
0.003252703230828
0.0039377640932798
0.0046532023698091
0.0054248673841357
0.0062634972855448
0.007163765374571
0.0081062410026788
0.0090631218627095
0.01000561658293
0.0109079321846365
0.0117454277351498
0.0124879200011491
0.0130899604409933
0.0134817818179726
0.01356634311378
0.0132261589169502
0.012340934947133
0.0108139831572771
