bvp
0.0339757427573204
0.0341550111770629
0.0335103049874305
0.0317864120006561
0.0287558417767286
0.0242730174213647
0.0183182228356599
0.0110205020755529
0.0026597362011671
-0.0063479598611593
-0.0154889319092035
-0.0242208950221538
-0.0320498719811439
-0.0385856628417968
-0.0435695312917232
-0.0468816086649894
-0.0485335513949394
-0.048650212585926
-0.0474451184272766
-0.0451921001076698
-0.0421939082443714
-0.0387520007789135
-0.0351408943533897
-0.0315875113010406
-0.0282569527626037
-0.0252463389188051
-0.0225869286805391
-0.0202541109174489
-0.0181829668581485
-0.0162861328572034
-0.0144712282344698
-0.0126544460654258
-0.0107687320560216
-0.008768294006586
-0.0066313184797763
-0.0043622013181447
-0.0019923448562622
0.0004237983375787
0.0028185006231069
0.0051233973354101
0.0072792079299688
0.0092353578656911
0.0109365247189998
0.0123076979070901
0.0132584292441606
0.013712765648961
0.0136554725468158
0.0131835900247097
0.0125459264963865
0.0121407993137836
0.0124550405889749
0.013960663229227
0.0170070044696331
0.0217610374093055
0.0282183159142732
0.0362235605716705
0.0454527400434017
0.0554046183824539
0.0654398202896118
0.074829488992691
0.0827631503343582
0.0883108079433441
0.090400144457817
0.0878957733511924
0.0798149779438972
0.0656286850571632
0.0455358773469924
0.020599253475666
-0.0073158517479896
-0.0357962548732757
-0.0622755028307437
-0.0844838768243789
-0.1008436828851699
-0.1106927320361137
-0.1143045201897621
-0.1127572134137153
-0.1076929420232772
-0.1010129526257515
-0.0945753753185272
-0.0899330079555511
-0.0881217718124389
-0.0895171463489532
-0.0937951803207397
-0.1000405699014663
-0.1069924384355545
-0.1133351773023605
-0.1179217249155044
-0.1198882758617401
-0.1187082976102829
-0.1142443716526031
-0.1067869216203689
-0.0970190912485122
-0.0858879759907722
-0.0744324848055839
-0.0636242851614952
-0.0542552582919597
-0.0468998178839683
-0.0419406853616237
-0.0396029651165008
-0.0399719439446926
-0.0430150255560874
-0.0486014708876609
-0.0564761161804199
-0.0661790519952774
-0.0769634693861007
-0.0877775698900222
-0.0973507463932037
-0.104378841817379
-0.1077509671449661
-0.1067354902625083
-0.1010693162679672
-0.0909525156021118
-0.0769878253340721
-0.060085043311119
-0.0413220450282096
-0.0217816829681396
-0.0024225935339927
0.0159880816936492
0.0329155623912811
0.0481147468090057
0.0616751797497272
0.0739709883928299
0.0854981243610382
0.0966816544532775
0.1077401489019393
0.1186383217573165
0.1291185468435287
0.138779729604721
0.1471648514270782
0.1538338512182235
0.1584160923957824
0.1606431603431701
0.1603694558143615
0.157591626048088
0.1524667590856552
0.1453168243169784
0.1366139650344848
0.1269496381282806
0.116974838078022
0.1073072403669357
0.0984413400292396
0.0906983092427253
0.0842218473553657
0.0790034458041191
0.0749168246984481
0.0717556700110435
0.069273442029953
0.067221000790596
0.0653758123517036
0.0635593459010124
0.0616475939750671
0.059576641768217
0.0573401153087616
0.0549820251762867
0.0525872930884361
0.0502618439495563
0.0481013506650924
0.0461656935513019
0.0444722510874271
0.0429992564022541
0.0416837222874164
0.0404174625873565
0.039055697619915
0.037438727915287
0.0354168936610221
0.0328723303973674
0.0297341868281364
0.0259862057864666
0.0216654706746339
0.0168461948633193
0.0116105526685714
0.0060247043147683
0.0001273807138204
-0.0060753859579563
-0.0126043213531374
-0.0194810330867767
-0.026688203215599
-0.0341341644525527
-0.0416370593011379
-0.0489308089017868
-0.0556927435100078
-0.0615881346166133
-0.0663150697946548
-0.0696411728858947
-0.0714348554611206
-0.0716864764690399
-0.0705099180340766
-0.0681223347783088
-0.064808964729309
-0.0608813501894474
-0.0566348955035209
-0.0523135997354984
-0.0480877086520195
-0.0440453365445137
-0.0401975065469741
-0.0364942587912082
-0.0328476056456565
-0.0291543565690517
-0.0253130234777927
-0.0212388969957828
-0.0168754681944847
-0.0121855428442358
-0.0071232840418815
-0.0016167629510164
0.0044190702028572
0.0110497558489441
0.0182913653552532
0.0260939709842205
0.0343346931040287
0.0428137257695198
0.0512550994753837
0.0593181699514389
0.0666231587529182
0.0727920085191726
0.0774981975555419
0.080512948334217
0.0817393437027931
0.0812281966209411
0.0791701525449752
0.0758649706840515
0.0716767832636833
0.0669878274202346
0.0621590130031108
0.0574992410838604
0.0532445944845676
0.0495482683181762
0.0464790277183055
0.0440266095101833
0.0421127192676067
0.0406065955758094
0.0393428094685077
0.0381397455930709
0.0368205606937408
0.0352349802851676
0.0332762822508811
0.0308894589543342
0.0280691385269165
0.0248511210083961
0.0213025361299514
0.017508640885353
0.013557344675064
0.0095293074846267
0.0054932981729507
0.0015012994408607
-0.0024161338806152
-0.00624880194664
-0.0099987462162971
-0.0136722549796104
-0.0172787383198738
-0.0208365246653556
-0.0243843644857406
-0.0279945954680442
-0.0317766666412353
-0.0358635708689689
-0.0403842851519584
-0.0454299375414848
-0.0510246157646179
-0.0571110844612121
-0.0635527819395065
-0.0701469108462333
-0.0766458958387374
-0.0827859789133071
-0.0883159637451171
-0.0930192023515701
-0.0967308729887008
-0.0993536859750747
-0.1008679941296577
-0.1013309136033058
-0.1008658781647682
-0.0996475219726562
-0.0978804528713226
-0.0957724899053573
-0.0935115218162536
-0.0912513881921768
-0.0891045331954956
-0.0871373936533927
-0.0853685438632965
-0.0837736129760742
-0.0822983309626579
-0.0808722525835037
-0.0794157981872558
-0.0778458788990974
-0.0760867893695831
-0.0740818902850151
-0.0718009397387504
-0.0692426264286041
-0.0664321780204773
-0.0634190738201141
-0.0602803528308868
-0.0571262240409851
-0.0540994107723236
-0.05136339366436
-0.0490799769759178
-0.0473805144429206
-0.0463368594646453
-0.0459406226873397
-0.0460983887314796
-0.0466414131224155
-0.0473451092839241
-0.0479584112763404
-0.0482378378510475
-0.0479759499430656
-0.0470212548971176
-0.0452899634838104
-0.0427670963108539
-0.0395000278949737
-0.0355899333953857
-0.031178168952465
-0.0264259632676839
-0.0214951187372207
-0.0165343899279832
-0.0116685479879379
-0.0069901021197438
-0.0025564879179
0.0016078641638159
0.0055070221424102
0.0091682774946093
0.0126367956399917
0.0159700475633144
0.0192311964929103
0.0224812664091587
0.0257725529372692
0.0291456319391727
0.0326289311051368
0.0362390056252479
0.0399788878858089
0.0438309609889984
0.047744546085596
0.0516227632761001
0.0553148984909057
0.0586216673254966
0.061316829174757
0.0631810277700424
0.0640413239598274
0.0638061985373497
0.0624839588999748
0.0601825453341007
0.0570949092507362
0.0534726157784462
0.0495945326983928
0.0457377880811691
0.0421511828899383
0.0390328168869018
0.0365180000662803
0.0346776396036148
0.0335225015878677
0.033011969178915
0.0330666899681091
0.0335834920406341
0.034449964761734
0.0355554372072219
0.0367981940507888
0.0380915328860282
0.0393699817359447
0.0405925661325454
0.0417405590415
0.0428119227290153
0.0438140779733657
0.0447553917765617
0.0456384122371673
0.0464579761028289
0.0472032278776168
0.0478601679205894
0.0484138056635856
0.0488510578870773
0.049162421375513
0.0493395552039146
0.0493684373795986
0.0492191798985004
0.0488381646573543
0.0481487996876239
0.0470608137547969
0.0454859249293804
0.0433577559888362
0.0406508296728134
0.0373929552733898
0.0336667262017726
0.0296004209667444
0.0253531243652105
0.0210966151207685
0.0169955845922231
0.0131917959079146
0.0097945192828774
0.0068742791190743
0.0044624097645282
0.0025582360103726
0.0011356128379702
0.000144681893289
-0.0004862714558839
-0.0008451966568827
-0.0010256683453917
-0.0011133309453725
-0.0011761374771595
-0.0012616924941539
-0.0013975389301776
-0.0015908475033938
-0.0018299627117812
-0.0020907265134155
-0.0023454152978956
-0.0025696218945086
-0.0027457645628601
-0.0028647878207266
-0.0029261829331517
-0.002936347387731
-0.002906272187829
-0.0028486319351941
-0.0027759973891079
-0.0027030149940401
-0.0026527734007686
-0.002665284089744
-0.0028033349663019
-0.0031504998914897
-0.0037996401078999
-0.0048344847746193
-0.0063102417625486
-0.008238629437983
-0.0105799054726958
-0.0132429497316479
-0.0160940121859312
-0.0189736001193523
-0.0217172000557184
-0.0241741072386503
-0.0262214578688144
-0.0277731623500585
-0.0287840329110622
-0.0292488001286983
-0.0291978977620601
-0.0286942943930625
-0.027830196544528
-0.0267172455787658
-0.0254700500518083
-0.0241902861744165
-0.022955160588026
-0.0218102484941482
-0.0207687225192785
-0.0198170840740203
-0.018923383206129
-0.0180461220443248
-0.0171442050486803
-0.0161849781870841
-0.0151493307203054
-0.0140341371297836
-0.0128484601154923
-0.0116061605513095
-0.0103225680068135
-0.0090145263820886
-0.007699767127633
-0.0063958461396396
-0.0051198583096265
-0.003889640327543
-0.0027290619909763
-0.0016781287267804
-0.0008010733872652
-0.0001847418025135
7.434189319610596e-05
-0.0001087682321667
-0.0007864404469728
-0.0019664531573653
-0.0036079082638025
-0.0056215375661849
-0.0078764101490378
-0.0102142989635467
-0.0124686956405639
-0.0144833140075206
-0.016126150265336
-0.0172982923686504
-0.0179391987621784
-0.018030758947134
-0.0175975933670997
-0.0166999343782663
-0.0154221188277006
-0.0138617223128676
-0.0121205793693661
-0.010295963846147
-0.0084723001345992
-0.0067172204144299
-0.0050800759345293
-0.0035883681848645
-0.0022459556348621
-0.0010377324651926
6.146449595689774e-05
0.0010781745659187
0.002034418284893
0.0029457374475896
0.0038234463427215
0.0046784630976617
0.0055238236673176
0.0063752271234989
0.0072482712566852
0.008152394555509
0.0090842060744762
0.0100206602364778
0.0109121669083833
0.0116800628602504
0.0122234942391514
0.0124359959736466
0.0122265145182609
0.0115383043885231
0.0103616341948509
0.0087374811992049
0.0067524993792176
0.004529561381787
0.0022149931173771
-3.844732418656349e-05
-0.0020883963443338
-0.0038145272992551
-0.0051258886232972
-0.0059658247046172
-0.0063147675246
-0.0061907828785479
-0.0056450539268553
-0.0047519910149276
-0.0035988241434097
-0.0022759274579584
-0.0008672690019011
0.0005564833991229
0.0019414694979786
0.0032513737678527
0.004465595819056
0.0055771865881979
0.0065910816192626
0.0075196651741862
0.00837710686028
0.0091771893203258
0.0099332006648182
0.010656414553523
0.0113543448969721
0.0120296468958258
0.0126789016649127
0.0132926674559712
0.0138578629121184
0.0143613247200846
0.0147924860939383
0.0151430182158946
0.015402652323246
0.0155524890869855
0.015557337552309
0.0153596755117177
0.0148817645385861
0.0140396868810057
0.0127627961337566
0.0110106812790036
0.0087857861071825
0.006140012294054
0.0031726164743304
1.964127295650541e-05
-0.003161312546581
-0.0062080868519842
-0.0089716017246246
-0.0113294310867786
-0.0131929768249392
-0.0145115293562412
-0.015273904427886
-0.0155075043439865
-0.015274298377335
-0.0146593200042843
-0.0137538742274045
-0.012644394300878
-0.0114094018936157
-0.0101170036941766
-0.0088211148977279
-0.0075608314946293
-0.0063631613738834
-0.0052446601912379
-0.0042104320600628
-0.0032540604006499
-0.0023606470786035
-0.0015107500366866
-0.0006825923919677
0.0001470865681767
0.0010005717631429
0.0018950591329485
0.0028396900743246
0.0038334827404469
0.0048643527552485
0.0059113670140504
0.0069480999372899
0.007944056764245
0.0088647566735744
0.0096693625673651
0.0103047518059611
0.0107011832296848
0.0107752913609147
0.0104405265301465
0.009621831588447
0.0082712089642882
0.006382280960679
0.0040015066042542
0.0012296163477003
-0.0017915401840582
-0.0048995455726981
-0.0079271979629993
-0.0107133630663156
-0.0131156900897622
-0.0150233022868633
-0.0163634102791547
-0.0171034093946218
-0.0172524843364954
-0.0168594121932983
-0.0160036142915487
-0.0147836580872535
-0.0133065581321716
-0.0116779953241348
-0.0099930018186569
-0.0083291064947843
-0.0067441747523844
-0.0052755894139409
-0.0039385105483233
-0.0027260975912213
-0.001614052336663
-0.0005684006027877
0.0004475372843444
0.0014683338813483
0.0025218841619789
0.0036253067664802
0.0047823367640376
0.0059834560379385
0.0072101266123354
0.0084406975656747
0.0096536520868539
0.0108274025842547
0.0119408080354332
0.0129764536395668
0.0139195695519447
0.014747591689229
0.0154175553470849
0.0158606134355068
0.0159862730652093
0.0156942941248416
0.0148919597268104
0.0135162053629755
0.0115556791424751
0.009060762822628
0.0061370953917503
0.0029317296575754
-0.00038200058043
-0.0036220690235495
-0.0066157351247966
-0.0092138750478625
-0.0113008869811892
-0.0128011554479599
-0.0136813391000032
-0.0139499465003609
-0.0136562939733266
-0.0128840385004878
-0.0117380646988749
-0.0103320125490427
-0.00877729896456
-0.0071700648404657
-0.00558223715052
-0.0040623815730214
-0.0026407395489513
-0.0013328101485967
-0.0001419046893715
0.0009387875907123
0.0019261222332715
0.0028470235411077
0.0037344177253544
0.0046204198151826
0.0055305585265159
0.0064800116233527
0.0074726357124745
0.0085016787052154
0.0095500741153955
0.010591784492135
0.0115950033068656
0.012527534738183
0.0133639927953481
0.0140889976173639
0.0146924378350377
0.0151586197316646
0.0154530759900808
0.015515623614192
0.0152653949335217
0.0146125014871358
0.0134730078279972
0.0117896823212504
0.0095527404919266
0.0068091601133346
0.0036583677865564
0.0002411454916
-0.0032751068938523
-0.0067144855856895
-0.0099080195650458
-0.0127040902152657
-0.0149786220863461
-0.0166441462934017
-0.0176533088088035
-0.0179984234273433
-0.0177122950553894
-0.0168686807155609
-0.0155755188316106
-0.0139623349532485
-0.0121667813509702
-0.0103208124637603
-0.0085372049361467
-0.006898614577949
-0.0054525006562471
-0.0042125955224037
-0.0031634920742362
-0.0022669211030006
-0.0014709013048559
-0.0007217295933514
2.4970824597403407e-05
0.0007996693020686
0.0016214144416153
0.0025025843642652
0.0034500854089856
0.0044613443315029
0.0055210785940289
0.0066040735691785
0.0076804752461612
0.0087193502113223
0.0096922470256686
0.0105778025463223
0.0113625321537256
0.0120331812649965
0.0125626232475042
0.0128960609436035
0.0129471682012081
0.0126109439879655
0.0117875346913933
0.0104055721312761
0.0084398165345191
0.005921131465584
0.0029364130459725
-0.0003802552819252
-0.0038605970330536
-0.0073181651532649
-0.0105677843093872
-0.0134421763941645
-0.0158029999583959
-0.0175521280616521
-0.0186419803649187
-0.0190780460834503
-0.0189135856926441
-0.0182386077940464
-0.0171637870371341
-0.0158047415316104
-0.0142710004001855
-0.012656906619668
-0.0110337901860475
-0.0094481278210878
-0.0079274354502558
-0.0064879604615271
-0.0051375217735767
-0.0038750695530325
-0.0026916647329926
-0.0015735920751467
-0.0005069564213044
0.0005184867186471
0.0015103088226169
0.0024778745137155
0.0034338063560426
0.0043907924555242
0.0053581530228257
0.0063392091542482
0.007328491192311
0.0083120539784431
0.0092710452154278
0.0101835811510682
0.0110220685601234
0.0117460247129201
0.0122936125844717
0.0125775141641497
0.0124900257214903
0.0119196791201829
0.0107752811163663
0.0090094516053795
0.006637301761657
0.0037453165277838
0.0004847289528697
-0.0029478042852133
-0.0063344896771013
-0.0094611356034874
-0.0121398344635963
-0.0142257073894143
-0.0156257264316082
-0.0163022093474864
-0.0162721704691648
-0.0156026631593704
-0.0144029483199119
-0.0128125650808215
-0.0109861716628074
-0.0090752113610506
-0.0072073517367243
-0.0054729138500988
-0.0039239670149981
-0.0025799621362239
-0.0014322497881948
-0.0004469049163162
0.0004275562241673
0.0012451272923499
0.0020492612384259
0.0028695969376713
0.003724890993908
0.0046257488429546
0.0055750329047441
0.0065681231208145
0.0075950259342789
0.0086412820965051
0.0096867876127362
0.0107074156403541
0.0116801848635077
0.0125861652195453
0.0134072415530681
0.0141193903982639
0.0146853439509868
0.0150463748723268
0.0151168396696448
0.0147904306650161
0.0139612387865781
0.0125492420047521
0.0105202747508883
0.0078995935618877
0.0047762067988514
0.0012940326705574
-0.0023670778609812
-0.0060123829171061
-0.0094488682225346
-0.0124972499907016
-0.0150035843253135
-0.0168535653501749
-0.0179849080741405
-0.0183896049857139
-0.0181087031960487
-0.0172274280339479
-0.01586733199656
-0.0141694853082299
-0.0122745158150792
-0.01030935626477
-0.0083809746429324
-0.0065714842639863
-0.0049329940229654
-0.0034860952291637
-0.0022246818989515
-0.0011233582627028
-0.0001439428888261
0.0007595235947519
0.0016363096656277
0.0025315727107226
0.0034783587325364
0.0044954302720725
0.0055883289314806
0.006747331470251
0.0079467119649052
0.0091530727222561
0.0103361159563064
0.0114711150527
0.0125366691499948
0.0135145001113414
0.0143858073279261
0.0151190720498561
0.0156594272702932
0.0159283354878425
0.0158289540559053
0.0152557399123907
0.014112371020019
0.0123362764716148
0.0099218990653753
0.0069312071427702
0.0034864647313952
-0.0002444216515868
-0.0040627494454383
-0.0077595226466655
-0.011138267815113
-0.0140300225466489
-0.0163020882755517
-0.0178652796894311
-0.0186786483973264
-0.0187519583851099
-0.0181456673890352
-0.0169647950679063
-0.0153467953205108
-0.0134457843378186
-0.0114145632833242
-0.0093881245702505
-0.0074711656197905
-0.0057302163913846
-0.0041934503242373
-0.0028584224637597
-0.0017021396197378
-0.0006880932487547
0.0002289686817675
0.0010965887922793
0.0019595930352807
0.0028583901003003
0.0038225906901061
0.0048626074567437
0.0059711774811148
0.0071303406730294
0.0083150519058108
0.0094978231936693
0.0106563791632652
0.011777089908719
0.0128500666469335
0.0138593465089797
0.0147747425362467
0.0155498031526803
0.0161220636218786
0.0164103228598833
0.0163162089884281
0.0157374534755945
0.0145869608968496
0.0128122214227914
0.0104135582223534
0.0074539319612085
0.0040536355227231
0.0003734300844371
-0.003403321141377
-0.0070837307721376
-0.010476840659976
-0.0134084243327379
-0.0157387237995862
-0.0173759795725345
-0.0182807818055152
-0.0184633508324623
-0.0179776977747678
-0.0169169828295707
-0.0154092982411384
-0.0136054567992687
-0.0116582540795207
-0.0097047509625554
-0.0078568067401647
-0.0061941514723002
-0.0047581242397427
-0.0035514852497726
-0.0025453625712543
-0.0016878240276128
-0.0009126765653491
-0.0001518326462246
0.0006500058225356
0.0015254362951964
0.0024838494136929
0.0035162875428795
0.0046009663492441
0.0057099424302577
0.0068150633014738
0.0078915236517786
0.0089209992438554
0.009891802445054
0.010792925953865
0.0116057712584733
0.0122960451990365
0.0128048006445169
0.0130437249317765
0.0129016824066638
0.0122623862698674
0.0110290553420782
0.0091503988951444
0.0066408389247953
0.0035890559665858
0.0001514297910034
-0.0034683118574321
-0.0070451041683554
-0.0103562697768211
-0.0132023505866527
-0.015426536090672
-0.0169303342700004
-0.0176796875894069
-0.0176997110247612
-0.017063234001398
-0.0158769134432077
-0.0142683982849121
-0.0123769454658031
-0.0103421881794929
-0.008289941586554
-0.0063214334659278
-0.0045072534121572
-0.0028852089308202
-0.0014627076452597
-0.0002221572212874
0.000872034986969
0.0018650179263204
0.0028013112023472
0.0037148841656744
0.0046257735230028
0.0055444245226681
0.0064751305617392
0.0074153682217001
0.0083571914583444
0.0092903170734643
0.0102036092430353
0.0110878702253103
0.0119379125535488
0.0127482041716575
0.0135052595287561
0.0141823552548885
0.0147350281476974
0.0150951892137527
0.0151673983782529
0.0148342289030551
0.0139744188636541
0.0124892555177211
0.010327405296266
0.0075008478015661
0.0040923166088759
0.0002549537457525
-0.0038016901817172
-0.0078390697017312
-0.0116200353950262
-0.014935202896595
-0.0176223944872617
-0.019575847312808
-0.0207462795078754
-0.0211374349892139
-0.0208023265004158
-0.0198367554694414
-0.0183676183223724
-0.0165369752794504
-0.0144845740869641
-0.0123359207063913
-0.0102008674293756
-0.0081724692136049
-0.0063164653256535
-0.0046619661152362
-0.003205228364095
-0.0019216572400182
-0.0007765194168314
0.0002695086877793
0.0012585788499563
0.0022344689350575
0.0032396835740655
0.0043082935735583
0.0054562548175454
0.0066767083480954
0.007943982258439
0.009221339598298
0.0104662179946899
0.011635816656053
0.0126966647803783
0.0136299300938844
0.014424736611545
0.0150631722062826
0.0155042642727494
0.0156746096909046
0.0154726319015026
0.0147856138646602
0.0135127268731594
0.0115893613547086
0.0090088527649641
0.005834786221385
0.0021989929955452
-0.0017135181697085
-0.0056868805550038
-0.0094974488019943
-0.0129347769543528
-0.0158193204551935
-0.0180165152996778
-0.0194474663585424
-0.0200910530984401
-0.019976120442152
-0.0191735085099935
-0.017791710793972
-0.0159696917980909
-0.0138635691255331
-0.011630036868155
-0.0094096418470144
-0.0073123667389154
-0.0054090996272861
-0.0037290214095264
-0.0022625427227467
-0.0009729312732815
0.0001877367030829
0.0012674645986407
0.002308975206688
0.0033469800837337
0.0044066752307116
0.005504107568413
0.0066490559838712
0.0078459354117512
0.0090910466387867
0.0103719411417841
0.0116691812872886
0.0129558434709906
0.0141965597867965
0.0153508754447102
0.0163808017969131
0.0172556787729263
0.0179461352527141
0.0184096060693264
0.0185791123658418
0.0183622688055038
0.0176519844681024
0.0163480900228023
0.0143839577212929
0.0117491483688354
0.0084998551756143
0.0047559244558215
0.0006923840846866
-0.0034729146864265
-0.0075038336217403
-0.0111782578751444
-0.014310348778963
-0.0167589038610458
-0.0184315852820873
-0.0192893724888563
-0.0193493925034999
-0.0186843015253543
-0.0174157042056322
-0.015698067843914
-0.013697057031095
-0.0115713728591799
-0.0094599472358822
-0.0074731926433742
-0.0056880027987062
-0.0041440417990088
-0.0028428349178284
-0.001754242228344
-0.0008282740600407
-5.870417226105928e-06
0.0007736867992207
0.0015662976074963
0.0024158023297786
0.0033481982536613
0.0043712062761187
0.0054778726771473
0.006648242007941
0.0078504579141736
0.0090468758717179
0.0102020129561424
0.0112871453166008
0.0122821107506752
0.0131743270903825
0.0139541514217853
0.014607542194426
0.0151079064235091
0.015408856794238
0.0154377967119216
0.0150935091078281
0.0142565052956342
0.0128151979297399
0.0106974206864833
0.0078947367146611
0.0044769658707082
0.0005946233868598
-0.003537934506312
-0.0076752076856791
-0.0115734757855534
-0.0150135122239589
-0.0178161058574914
-0.0198566894978284
-0.0210751481354236
-0.021474415436387
-0.0211136862635612
-0.0201015621423721
-0.0185831189155578
-0.0167194288223981
-0.0146699827164411
-0.0125832734629511
-0.0105866901576519
-0.0087723918259143
-0.0071887169033288
-0.0058416947722435
-0.0047031585127115
-0.0037221384700387
-0.0028369650244712
-0.0019865599460899
-0.0011184280738234
-0.0001904288365039
0.0008275948930531
0.0019471559207886
0.0031576743349432
0.0044307494536042
0.0057283868081867
0.007013380061835
0.0082561681047081
0.0094329649582505
0.0105211064219474
0.011498549953103
0.0123440688475966
0.0130295138806104
0.0135058620944619
0.0136963203549385
0.0135008879005908
0.0128073571249842
0.011511730030179
0.0095497500151395
0.0069253779947757
0.003721778281033
9.529013186693192e-05
-0.0037422124296426
-0.0075490651652216
-0.0110829211771488
-0.0141276363283395
-0.0165134146809577
-0.0181287322193384
-0.0189237855374813
-0.0189075265079736
-0.0181442275643348
-0.0167490132153034
-0.0148761942982673
-0.0127021092921495
-0.0104054352268576
-0.0081445481628179
-0.0060392026789486
-0.0041632656939327
-0.0025451784022152
-0.0011729821562767
-3.096414729952812e-06
0.0010272292420268
0.0019851648248732
0.0029303529299795
0.0039072586223483
0.0049405698664486
0.0060359425842761
0.0071854991838335
0.0083718532696366
0.0095688439905643
0.0107422163709998
0.0118530131876468
0.0128658600151538
0.0137580204755067
0.0145215196534991
0.0151594616472721
0.015681380406022
0.0160957295447587
0.0163981411606073
0.01656049862504
0.0165226329118013
0.0161879751831293
0.0154324974864721
0.0141298687085509
0.0121825458481907
0.0095486147329211
0.0062604816630482
0.0024332907050848
-0.0017425743862986
-0.0060275420546531
-0.0101674608886241
-0.0139235462993383
-0.0170937255024909
-0.0195272359997034
-0.0211335942149162
-0.0218863114714622
-0.0218215081840753
-0.0210295785218477
-0.0196398478001356
-0.0178034845739603
-0.0156796425580978
-0.0134260198101401
-0.0111892158165574
-0.0090890899300575
-0.0072037046775221
-0.0055658873170614
-0.0041683833114802
-0.0029717395082116
-0.001916867098771
-0.0009396858513355
1.8006889149546623e-05
0.0010015437146648
0.0020390106365084
0.0031406413763761
0.004302573390305
0.0055118771269917
0.0067494520917534
0.0079912785440683
0.0092093627899885
0.0103729553520679
0.0114528983831405
0.0124290576204657
0.0132930520921945
0.0140426587313413
0.0146738477051258
0.01517263520509
0.0155038218945264
0.0156004996970295
0.0153624843806028
0.014668365009129
0.0134013788774609
0.0114816492423415
0.008891936391592
0.0056899860501289
0.0020090381149202
-0.001952995895408
-0.005957624875009
-0.0097574777901172
-0.0131245506927371
-0.015871200710535
-0.0178652331233024
-0.0190376639366149
-0.0193844977766275
-0.0189652126282453
-0.0178937669843435
-0.0163204260170459
-0.0144107462838292
-0.0123275658115744
-0.0102180717512965
-0.008202601224184
-0.006364069879055
-0.0047445469535887
-0.0033501146826893
-0.0021590527612715
-0.0011309769470244
-0.0002155825495719
0.0006404736777767
0.0014888017904013
0.0023734765127301
0.0033224222715944
0.0043427608907222
0.0054254536516964
0.0065535795874893
0.0077076070010662
0.0088675357401371
0.0100134359672665
0.011123614385724
0.0121713709086179
0.0131261721253395
0.0139597160741686
0.0146469436585903
0.0151561424136161
0.015435604378581
0.0154070882126688
0.0149696702137589
0.0140143446624279
0.0124491322785615
0.0102297719568014
0.0073832105845212
0.0040131444111466
0.000290063675493
-0.003567848354578
-0.00732156727463
-0.0107408612966537
-0.0136297736316919
-0.0158456750214099
-0.017307823523879
-0.0179950445890426
-0.0179406683892011
-0.0172268375754356
-0.0159733090549707
-0.014322274364531
-0.0124252550303936
-0.0104315234348177
-0.0084747169166803
-0.0066600795835256
-0.0050570871680974
-0.0036979613360017
-0.0025790233630687
-0.0016654161736369
-0.0009005123283714
-0.0002175407717004
0.0004487326950766
0.0011542032007128
0.0019429215462878
0.0028450824320316
0.003872399451211
0.0050127725116908
0.0062317005358636
0.0074828285723924
0.0087181730195879
0.0098922476172447
0.0109640769660472
0.0118987783789634
0.0126623110845685
0.013209874741733
0.0134799676015973
0.0133954165503382
0.0128658581525087
0.011798495426774
0.0101227117702364
0.0078177591785788
0.0049290512688457
0.0015705353580415
-0.0020837052725255
-0.0058176089078187
-0.0093968175351619
-0.0125939510762691
-0.0152144925668835
-0.0171180590987205
-0.0182299446314573
-0.0185420978814363
-0.0181052051484584
-0.0170180294662714
-0.0154158538207411
-0.0134551189839839
-0.0112976962700486
-0.0090973647311329
-0.0069853323511779
-0.00505559053272
-0.0033577540889382
-0.0019021518528461
-0.0006708840373903
0.0003737350925803
0.001283973804675
0.002120685763657
0.0029434007592499
0.0037981199566274
0.0047094849869608
0.0056823855265975
0.0067102643661201
0.0077822739258408
0.0088852392509579
0.0100001469254493
0.0110968528315424
0.0121362544596195
0.0130808344110846
0.0139025598764419
0.0145815154537558
0.0150977689772844
0.0154195288196206
0.0154909202829003
0.0152266127988696
0.0145186837762594
0.0132545260712504
0.0113420467823743
0.0087369531393051
0.0054647922515869
0.0016323598101735
-0.0025739478878676
-0.006904536858201
-0.0110785076394677
-0.0148260304704308
-0.0179262887686491
-0.0202271733433008
-0.0216492488980293
-0.0221840105950832
-0.0218890383839607
-0.0208786204457283
-0.0193070285022258
-0.017345193773508
-0.0151605261489748
-0.0129039119929075
-0.0106986025348305
-0.0086330333724617
-0.006761360913515
-0.0051055219955742
-0.0036556702107191
-0.0023757270537316
-0.0012149463873356
-0.0001187289599329
0.0009646089747548
0.0020806726533919
0.0032648944761604
0.0045357211492955
0.0058921361342072
0.0073156272992491
0.0087726041674613
0.0102196037769317
0.0116086872294545
0.0128918774425983
0.0140297152101993
0.0149991177022457
0.0157910920679569
0.0163995083421468
0.0168067682534456
0.0169688127934932
0.0168052054941654
0.0162052884697914
0.0150525039061903
0.0132546098902821
0.0107716666534543
0.007640091702342
0.0039820978417992
-6.629968993365765e-06
-0.0040845395997166
-0.007997510023415
-0.011508815921843
-0.0144213354215025
-0.0165921971201896
-0.017940454185009
-0.0184486340731382
-0.0181585177779197
-0.0171639323234558
-0.0156023297458887
-0.0136406552046537
-0.0114547042176127
-0.0092094019055366
-0.0070455530658364
-0.0050694290548563
-0.0033418210223317
-0.0018757001962512
-0.0006480866577476
0.0003860699944198
0.0012866556644439
0.0021225195378065
0.0029624493326991
0.0038630657363682
0.004857076331973
0.0059489710256457
0.0071202707476913
0.0083382250741124
0.0095634935423731
0.0107580395415425
0.0118931960314512
0.0129525195807218
0.0139248557388782
0.014794809743762
0.0155401248484849
0.0161297861486673
0.0165169779211282
0.0166330281645059
0.0163873806595802
0.0156780425459146
0.0144155761227011
0.0125553142279386
0.0101230265572667
0.0072181597352027
0.003996692597866
0.0006487895734608
-0.0026224448811262
-0.0056247590109705
-0.0082011502236127
-0.0102450512349605
-0.0117037333548069
-0.0125754512846469
-0.0129013936966657
-0.0127530647441744
-0.0122228153049945
-0.0114203970879316
-0.0104664964601397
-0.0094778556376695
-0.0085505787283182
-0.0077509926632046
-0.0071163326501846
-0.0066567179746925
-0.0063537652604281
-0.0061625745147466
-0.0060196230188012
-0.0058527998626232
-0.0055931662209331
-0.0051886336877942
-0.0046130395494401
-0.0038651279173791
-0.0029627252370119
-0.0019378094002604
-0.0008308528922498
0.0003164976369589
0.0014673797413706
0.0025923743378371
0.0036688614636659
0.0046746404841542
0.0055744918063282
0.0063059227541089
0.0067741167731583
0.0068610329180955
0.0064468653872609
0.005439362488687
0.0038007837720215
0.0015616319142282
-0.0011753744911402
-0.0042374595068395
-0.0073994142003357
-0.0104167331010103
-0.0130603155121207
-0.0151411239057779
-0.0165221616625785
-0.0171234291046857
-0.0169234480708837
-0.0159579366445541
-0.0143165430054068
-0.0121328504756093
-0.0095669655129313
-0.0067898319102823
-0.0039716186001896
-0.0012694760225713
0.0011850487207993
0.0032970544416457
0.0050181439146399
0.0063500171527266
0.0073339943774044
0.0080315815284848
0.0085083534941077
0.0088234804570674
0.0090233189985156
0.0091413427144289
0.0092035373672842
0.0092328805476427
0.0092489309608936
0.0092656295746564
0.0092903403565287
0.0093242870643734
0.0093648731708526
0.0094075910747051
0.0094455452635884
0.0094659915193915
0.0094399135559797
0.0093073155730962
0.0089726634323596
0.0083177210763096
0.0072240997105836
0.0055978652089834
0.0033937254920601
0.0006337079685181
-0.0025866173673421
-0.0061048520728945
-0.0097084883600473
-0.0131594650447368
-0.0162240415811538
-0.0187048409134149
-0.0204638410359621
-0.0214273277670145
-0.021580072119832
-0.0209580846130847
-0.0196439642459154
-0.0177641939371824
-0.0154790757223963
-0.0129598602652549
-0.0103645231574773
-0.0078247264027595
-0.0054405615665018
-0.0032767481170594
-0.001361918170005
0.0003073085099458
0.0017583356238901
0.0030339751392602
0.0041860956698656
0.005268941167742
0.0063301906920969
0.0074040815234184
0.0085102822631597
0.009655313566327
0.0108347302302718
0.0120375361293554
0.0132479090243577
0.0144417993724346
0.0155872656032443
0.0166530609130859
0.0176138617098331
0.0184402018785476
0.0190799031406641
0.0194461084902286
0.0194198451936244
0.0188686344772577
0.0176752023398876
0.0157654825598001
0.0131283653900027
0.0098258005455136
0.0059959958307445
0.0018461731960996
-0.0023710839450359
-0.0063912002369761
-0.0099706333130598
-0.0129152918234467
-0.0150982001796364
-0.0164619293063879
-0.0170112140476703
-0.0168041624128818
-0.0159425251185894
-0.0145575497299432
-0.0127942087128758
-0.0107993939891457
-0.0087144235149025
-0.0066673438996076
-0.0047622015699744
-0.0030705640092492
-0.0016281512798741
-0.0004325392656028
0.0005545787280425
0.001396038220264
0.0021636814344674
0.0029236199334263
0.0037250109016895
0.004596134647727
0.0055472729727625
0.0065756393596529
0.0076685361564159
0.0088009843602776
0.009931806474924
0.0110117252916097
0.0120007898658514
0.0128747019916772
0.013615014962852
0.014193832874298
0.0145600605756044
0.0146318459883332
0.0143008064478635
0.0134525783360004
0.0119965663179755
0.0098902015015482
0.0071547389961779
0.0038831122219562
0.0002351342700421
-0.0035809709224849
-0.0073346262797713
-0.0107980305328965
-0.0137694384902715
-0.0160941965878009
-0.0176761057227849
-0.0184789970517158
-0.0185243226587772
-0.0178854651749134
-0.016678063198924
-0.0150453215464949
-0.0131406094878911
-0.0111139733344316
-0.0091021368280053
-0.0072182808071374
-0.0055421041324734
-0.0041127703152596
-0.0029313194099813
-0.0019712245557457
-0.0011861426755785
-0.0005149772623553
0.0001096717314794
0.0007507487898692
0.0014572947984561
0.0022592842578887
0.0031662513501942
0.0041674487292766
0.0052346684969961
0.0063284952193498
0.0074063250795006
0.0084282048046588
0.0093577243387699
0.010158859193325
0.0107868965715169
0.0111778462305665
0.0112482914701104
0.0109039358794689
0.0100511386990547
0.0086169708520174
0.0065762642771005
0.003972053527832
0.0009186621755361
-0.0024116972927004
-0.0058093755505979
-0.0090505313128232
-0.0119233280420303
-0.0142523972317576
-0.0159159339964389
-0.0168528445065021
-0.017059464007616
-0.0165811106562614
-0.0155060710385441
-0.0139592457562685
-0.0120896287262439
-0.0100532732903957
-0.0079957377165555
-0.0060385926626622
-0.0042702206410467
-0.0027384930290281
-0.0014517337549477
-0.0003892164386343
0.0004897114122286
0.001239112811163
0.0019165963167324
0.0025718400720506
0.0032391895074397
0.0039386181160807
0.0046812104992568
0.0054709264077246
0.0063043143600225
0.0071721905842423
0.0080576008185744
0.0089307017624378
0.0097525985911488
0.0104847531765699
0.0110851181671023
0.0114913051947951
0.0116127496585249
0.0113405287265777
0.0105645833536982
0.0091953640803694
0.0071925721131265
0.0045895148068666
0.0014980954583734
-0.0019028121605515
-0.0053872559219598
-0.0087113548070192
-0.0116469655185937
-0.0140071511268615
-0.0156618021428585
-0.016547592356801
-0.0166693441569805
-0.0160917453467845
-0.0149250188842415
-0.0133082186803221
-0.0113936625421047
-0.0093326596543192
-0.0072625735774636
-0.0052965795621275
-0.0035153713542968
-0.001962749985978
-0.0006472365930676
0.0004539462970569
0.0013881453778594
0.0022134040482342
0.002983232261613
0.0037387805059552
0.0045090001076459
0.0053154090419411
0.0061745457351207
0.0070918616838753
0.0080538168549537
0.0090301278978586
0.0099844112992286
0.0108852023258805
0.0117125594988465
0.0124539360404014
0.0130915660411119
0.0135907167568802
0.0138887846842408
0.0138877434656023
0.0134622510522603
0.0124857760965824
0.0108643257990479
0.008566403761506
0.0056392578408122
0.0022059814073145
-0.0015499407891184
-0.0054031433537602
-0.0091104600578546
-0.012441630475223
-0.0152039993554353
-0.01725585013628
-0.018516905605793
-0.0189761463552713
-0.0186868794262409
-0.0177504904568195
-0.0163012612611055
-0.0144917871803045
-0.0124724935740232
-0.010375041514635
-0.0083084739744663
-0.006360353436321
-0.0045951269567012
-0.0030500078573822
-0.001730864867568
-0.0006134931463748
0.0003482233732938
0.0012147799134254
0.0020542342681437
0.002928374800831
0.0038779478054493
0.0049199545755982
0.0060541285201907
0.007266089785844
0.0085260681807994
0.0097915567457675
0.0110151078552007
0.0121536888182163
0.013175792992115
0.0140575896948575
0.0147670786827802
0.0152491554617881
0.0154215153306722
0.0151810832321643
0.0144174713641405
0.0130325397476553
0.0109686767682433
0.0082398662343621
0.0049461624585092
0.0012631536228582
-0.002583336783573
-0.0063467822037637
-0.0097882244735956
-0.0127011099830269
-0.0149308871477842
-0.0163863506168127
-0.0170423779636621
-0.0169339478015899
-0.0161434542387723
-0.0147884394973516
-0.0130110094323754
-0.0109655922278761
-0.0088066067546606
-0.006676070857793
-0.0046899337321519
-0.0029260516166687
-0.0014176610857248
-0.0001546768471598
0.00090739200823
0.0018322996329516
0.0026856162585318
0.0035223560407757
0.0043828389607369
0.0052937883883714
0.0062698628753423
0.0073129655793309
0.0084125138819217
0.009548551402986
0.0106942569836974
0.0118185337632894
0.0128904059529304
0.0138810444623231
0.0147628244012594
0.0155085213482379
0.0160871967673301
0.0164533462375402
0.0165363904088735
0.0162402261048555
0.0154560860246419
0.014086065813899
0.0120700718834996
0.0094086835160851
0.0061764665879309
0.0025223817210644
-0.0013434566790238
-0.0051764464005827
-0.0087331254035234
-0.0118053238838911
-0.0142420046031475
-0.0159542337059974
-0.0169093236327171
-0.0171251222491264
-0.0166668388992548
-0.0156400278210639
-0.0141779175028204
-0.0124263418838381
-0.0105293979868292
-0.0086186714470386
-0.0068038585595786
-0.0051632449030876
-0.0037401381414383
-0.0025463593192398
-0.0015661905054003
-0.0007589245797134
-6.389092595782131e-05
0.0005883870762772
0.0012631373247131
0.0020114388316869
0.0028604809194803
0.0038083628751337
0.0048306877724826
0.0058922870084643
0.0069552748464047
0.0079832132905721
0.0089442208409309
0.0098147019743919
0.0105812773108482
