bvp
-0.0612794086337089
-0.0647939294576644
-0.0669023618102073
-0.0675281882286071
-0.0667030960321426
-0.0645514279603958
-0.0612668767571449
-0.0570893958210945
-0.0522849075496196
-0.0471251644194126
-0.041866447776556
-0.0367300100624561
-0.0318879075348377
-0.027455449104309
-0.0234907008707523
-0.0199999548494815
-0.0169460400938987
-0.0142588792368769
-0.0118502210825681
-0.0096311559900641
-0.0075286189094185
-0.0054970625787973
-0.003521604463458
-0.0016137044876813
0.0001963376998901
0.0018709134310483
0.0033831596374511
0.0047377832233905
0.0059874299913644
0.0072375051677227
0.0086334366351366
0.010333327576518
0.0124813672155141
0.0151933282613754
0.0185485109686851
0.0225784629583358
0.0272510945796966
0.0324552953243255
0.0379923097789287
0.0435763970017433
0.0488477572798728
0.0534006543457508
0.0568215139210224
0.0587323270738124
0.0588416196405887
0.0569988712668418
0.0532329343259334
0.0477540045976638
0.0409185513854026
0.0331751890480518
0.0250079985707998
0.0168854109942913
0.009220078587532
0.0023412443697452
-0.0035243369638919
-0.0082642547786235
-0.0118793826550245
-0.0144671313464641
-0.0161943174898624
-0.017261641100049
-0.0178605504333972
-0.018138226121664
-0.0181888490915298
-0.0180653110146522
-0.0177915096282959
-0.0173716507852077
-0.0168029423803091
-0.0160849094390869
-0.0152229098603129
-0.0142361214384436
-0.0131664713844656
-0.0120787154883146
-0.0110543137416243
-0.0101807387545704
-0.0095346691086888
-0.009167262353003
-0.0091029517352581
-0.0093533545732498
-0.0099378060549497
-0.0108981085941195
-0.0122948214411735
-0.0141815263777971
-0.016572730615735
-0.0194274857640266
-0.0226530749350786
-0.0261138547211885
-0.0296338200569152
-0.0330003276467323
-0.035983383655548
-0.0383724272251129
-0.0400138944387435
-0.0408255532383918
-0.0407805293798446
-0.0398806035518646
-0.0381458364427089
-0.0356295779347419
-0.0324425660073757
-0.0287603754550218
-0.0248027201741933
-0.0207946114242076
-0.0169246215373277
-0.0133080147206783
-0.0099625997245311
-0.0068114167079329
-0.0037175873294472
-0.0005401857197284
0.0028064250946044
0.006315401289612
0.0098926061764359
0.0133916344493627
0.0166492201387882
0.0195049457252025
0.0218140352517366
0.0234848968684673
0.0245511531829834
0.0252307653427124
0.0259206593036651
0.0271241869777441
0.0293394885957241
0.0329434238374233
0.0381038710474967
0.0447374321520328
0.0525117442011833
0.0608853846788406
0.0691779181361198
0.0766607001423835
0.0826535075902938
0.0866065174341201
0.0881498679518699
0.0871065557003021
0.0834805965423584
0.0774376541376113
0.0692842602729797
0.0594387501478195
0.0483845919370651
0.0366095453500747
0.0245533809065818
0.0125855077058076
0.0010091252624988
-0.009927824139595
-0.0200246814638376
-0.0291210822761058
-0.0370922982692718
-0.0438509173691272
-0.0493519231677055
-0.0535924211144447
-0.056602369993925
-0.0584293790161609
-0.0591204613447189
-0.0587035007774829
-0.0571754463016986
-0.0545025020837783
-0.0506249628961086
-0.0454577207565307
-0.0388938672840595
-0.0308312028646469
-0.0212350934743881
-0.0102114947512745
0.0019606905989348
0.0148366885259747
0.0278200730681419
0.0402222387492656
0.0514157675206661
0.0609873495995998
0.0687580406665802
0.074685014784336
0.0787194743752479
0.0807220190763473
0.0806542858481407
0.0792216882109642
0.0787319615483284
0.0834687203168869
0.0990649461746215
0.1311457008123397
0.1838574409484863
0.2585130333900451
0.352676510810852
0.4607430100440979
0.576194703578949
0.6936558485031128
0.8091225028038025
0.9190216064453124
1.0198105573654177
1.1085249185562134
1.1827473640441897
1.238800048828125
1.2695378065109253
1.264359474182129
1.212271213531494
1.1061700582504272
0.9456283450126648
0.7371103167533875
0.4927148818969726
0.2287138104438781
-0.0359928607940673
-0.2820627689361572
-0.4929518103599548
-0.6585522294044495
-0.777452290058136
-0.856568455696106
-0.9084511995315552
-0.947536826133728
-0.986875057220459
-1.036281704902649
-1.101703643798828
-1.1850796937942505
-1.284372091293335
-1.3938781023025513
-1.5050296783447266
-1.6077189445495603
-1.691883206367493
-1.7490620613098145
-1.773756980895996
-1.7640254497528076
-1.7206300497055054
-1.645089626312256
-1.5379524230957031
-1.398271083831787
-1.2242472171783447
-1.014454364776611
-0.7691558599472046
-0.4916733503341675
-0.1897920221090316
0.1234651803970336
0.430580586194992
0.7120612263679504
0.9502291679382324
1.1330095529556274
1.2559833526611328
1.3217157125473022
1.337045192718506
1.309777855873108
1.2456152439117432
1.146029710769653
1.008365035057068
0.8284265995025635
0.6038318872451782
0.3364613950252533
0.0338175594806671
-0.2905933260917663
-0.617900013923645
-0.9248925447463988
-1.1849819421768188
-1.3704599142074585
-1.4572135210037231
-1.43025004863739
-1.2875694036483765
-1.0411550998687744
-0.7148700952529907
-0.3402913212776184
0.0478976517915725
0.4163115322589874
0.7374032735824585
0.9942641258239746
1.1843690872192385
1.319690465927124
1.4218714237213137
1.514412760734558
1.6154403686523438
1.733201503753662
1.8645753860473635
1.996393084526062
2.1091432571411133
2.182077169418335
2.1984405517578125
2.149508476257324
2.036337375640869
1.8690730333328247
1.66448712348938
1.4425179958343506
1.222468376159668
1.0196783542633057
0.8435500264167786
0.6972311735153198
0.5784828662872314
0.4809976816177368
0.3957200646400451
0.3122016787528991
0.2202478647232055
0.1117262840270996
-0.0180274248123168
-0.1696671247482299
-0.340129554271698
-0.5233007669448853
-0.7107429504394531
-0.89276123046875
-1.0601541996002195
-1.2064685821533203
-1.330068826675415
-1.4349315166473389
-1.5291119813919067
-1.6210389137268066
-1.7153794765472412
-1.8101656436920168
-1.895634412765503
-1.9550052881240845
-1.9676673412323
-1.914369821548462
-1.782989263534546
-1.5734541416168213
-1.3006393909454346
-0.9941071271896362
-0.694624662399292
-0.4490820169448852
-0.3060895204544067
-0.3131093084812164
-0.5127257704734802
-0.935680329799652
-1.591569185256958
-2.4591493606567383
-3.481869697570801
-4.575894355773926
-5.647756576538086
-6.611507415771484
-7.399050235748291
-7.962963581085205
-8.275096893310547
-8.324734687805176
-8.117352485656738
-7.673256397247314
-7.025411605834961
-6.2162394523620605
-5.293618679046631
-4.306555271148682
-3.301083564758301
-2.3169023990631104
-1.3850796222686768
-0.5269744396209717
0.2456793785095214
0.9297478199005128
1.5289998054504397
2.052034378051758
2.510124683380127
2.9152374267578125
3.2784252166748047
3.60871171951294
3.912513971328736
4.193563461303711
4.453215599060059
4.691020965576172
4.9054107666015625
5.09437894821167
5.25606632232666
5.389185905456543
5.493269443511963
5.568737506866455
5.616826057434082
5.639410972595215
5.638776779174805
5.617375373840332
5.577606678009033
5.521646976470947
5.451333045959473
5.368113517761231
5.273060321807861
5.166915416717529
5.050165176391602
4.923133373260498
4.786083221435547
4.63931131362915
4.483217716217041
4.318347930908203
4.145409107208252
3.9652633666992174
3.778900623321533
3.587392807006836
3.391838550567627
3.193312168121338
2.9928226470947266
2.791282415390014
2.5894851684570312
2.388092041015625
2.187631368637085
1.98850679397583
1.7910122871398926
1.595348238945007
1.401630997657776
1.2099015712738037
1.0201425552368164
0.8323091268539429
0.6463741660118103
0.4623788595199585
0.2804783582687378
0.1009690761566162
-0.075708270072937
-0.2489908933639526
-0.4182338714599609
-0.5827606916427612
-0.7419172525405884
-0.8951202630996704
-1.0418920516967771
-1.1818814277648926
-1.3148672580718994
-1.4407516717910769
-1.5595455169677734
-1.67134690284729
-1.7763159275054932
-1.8746501207351685
-1.966559171676636
-2.052241802215576
-2.131865739822388
-2.205556154251098
-2.2733912467956543
-2.33540678024292
-2.391607999801636
-2.441983938217163
-2.4865219593048096
-2.525220394134521
-2.5580997467041016
-2.5852127075195312
-2.606650352478028
-2.6225435733795166
-2.633057117462158
-2.638381004333496
-2.638720750808716
-2.634288787841797
-2.6252927780151367
-2.6119260787963867
-2.594367027282715
-2.572796106338501
-2.54742431640625
-2.518516778945923
-2.486398696899414
-2.4514389038085938
-2.414012908935547
-2.374457836151123
-2.333028078079224
-2.2898616790771484
-2.244960308074951
-2.1981866359710693
-2.149285793304444
-2.097929716110229
-2.043773651123047
-1.9865179061889648
-1.9259616136550903
-1.862039566040039
-1.7948386669158936
-1.7245906591415403
-1.65165114402771
-1.57646906375885
-1.4995486736297607
-1.4214097261428833
-1.3425498008728027
-1.2634121179580688
-1.184362292289734
-1.1056785583496094
-1.0275533199310305
-0.9501022100448608
-0.8733789920806885
-0.7973949909210205
-0.7221398949623108
-0.6475991606712341
-0.5737684965133667
-0.5006662011146545
-0.428339421749115
-0.356862872838974
-0.286333680152893
-0.216865599155426
-0.1485827416181564
-0.0816118344664573
-0.0160741880536079
0.047919824719429
0.110273078083992
0.1709010601043701
0.2297278493642807
0.2866756618022918
0.3416479229927063
0.3945141732692718
0.4451071619987488
0.4932361841201782
0.5387156009674072
0.5814011096954346
0.6212230920791626
0.6582094430923462
0.6924924850463867
0.7242990136146545
0.7539225816726685
0.7816849946975708
0.8078974485397339
0.8328291773796082
0.8566843867301941
0.8795877695083618
0.9015798568725586
0.9226221442222596
0.9426091909408568
0.9613856077194214
0.9787649512290956
0.9945456981658936
1.0085225105285645
1.0204969644546509
1.0302952527999878
1.037790298461914
1.0429198741912842
1.045696258544922
1.0462056398391724
1.04459810256958
1.0410696268081665
1.0358397960662842
1.0291290283203125
1.021139144897461
1.0120372772216797
1.0019428730010986
0.990923285484314
0.9789999127388
0.9661648273468018
0.9524020552635192
0.9377062916755676
0.9220951199531556
0.9056128263473512
0.8883247375488281
0.8703029751777649
0.851604163646698
0.8322417736053467
0.8121642470359802
0.7912535071372986
0.7693483829498291
0.7462840676307678
0.7219350934028625
0.6962500810623169
0.6692716479301453
0.641139566898346
0.6120776534080505
0.5823678374290466
0.55231773853302
0.5222284197807312
0.4923674166202545
0.4629499018192291
0.434126615524292
0.4059784114360809
0.3785200119018554
0.3517103493213653
0.3254668712615967
0.2996829748153686
0.2742461860179901
0.2490552365779876
0.2240339964628219
0.199139654636383
0.1743658185005188
0.1497412323951721
0.1253244876861572
0.1011957079172134
0.0774475485086441
0.0541769117116928
0.0314774103462696
0.0094329724088311
-0.0118875792250037
-0.032436117529869
-0.0521895587444305
-0.0711495280265808
-0.08933687210083
-0.1067837476730346
-0.1235267594456672
-0.1396034657955169
-0.1550510823726654
-0.1699053943157196
-0.1842022389173507
-0.1979836374521255
-0.2113064527511596
-0.2242499142885208
-0.2369164377450943
-0.2494204938411712
-0.2618666291236877
-0.2743231654167175
-0.2867988049983978
-0.2992289364337921
-0.3114754855632782
-0.3233377337455749
-0.3345717191696167
-0.3449159264564514
-0.3541205525398254
-0.3619753420352936
-0.3683320879936218
-0.3731189370155334
-0.3763449490070343
-0.3780937790870666
-0.3785101771354675
-0.3777820169925689
-0.3761182427406311
-0.3737257122993469
-0.37079057097435
-0.3674660325050354
-0.363865315914154
-0.3600583374500274
-0.3560718297958374
-0.3518928289413452
-0.3474768698215484
-0.3427604734897613
-0.3376751840114593
-0.3321587145328522
-0.3261605501174927
-0.319643884897232
-0.312589019536972
-0.3049991130828857
-0.2969034910202026
-0.2883560359477997
-0.2794299721717834
-0.2702115774154663
-0.2607931196689605
-0.2512646317481994
-0.2417053580284118
-0.2321770936250686
-0.2227215766906738
-0.2133640050888061
-0.2041247487068176
-0.195036306977272
-0.1861565113067627
-0.1775685995817184
-0.1693670153617859
-0.1616355776786804
-0.1544263362884521
-0.1477431207895279
-0.1415321677923202
-0.1356827467679977
-0.130038172006607
-0.1244131922721862
-0.1186141297221183
-0.1124602332711219
-0.1058030799031257
-0.0985415875911712
-0.0906314328312873
-0.0820873230695724
-0.0729783251881599
-0.063418447971344
-0.0535541921854019
-0.0435495749115943
-0.0335697010159492
-0.0237656719982624
-0.0142620773985981
-0.005147352349013
0.0035315686836838
0.0117684910073876
0.019591124728322
0.0270505212247371
0.0342092886567115
0.0411308258771896
0.0478709451854229
0.0544717088341712
0.060958132147789
0.0673380345106124
0.0736034065485
0.0797328352928161
0.0856948420405387
0.0914510712027549
0.0969608798623085
0.1021876856684684
0.1071033477783203
0.1116884797811508
0.1159277483820915
0.119797483086586
0.1232484057545661
0.1261942982673645
0.1285154670476913
0.1300771385431289
0.13075752556324
0.1304786503314972
0.1292321532964706
0.1270929276943206
0.124217964708805
0.1208317354321479
0.1172009035944938
0.1136036738753318
0.1103002354502677
0.1075071766972541
0.1053776144981384
0.1039902418851852
0.1033481806516647
0.103385291993618
0.1039778143167495
0.1049611568450927
0.1061516180634498
0.107368603348732
0.1084529608488082
0.1092799380421638
0.1097647845745086
0.1098600998520851
0.1095488965511322
0.108837105333805
0.1077464893460273
0.1063091456890106
0.1045650690793991
0.1025619804859161
0.1003532707691192
0.0979920253157615
0.0955258086323738
0.0929950699210167
0.0904316380620002
0.0878561362624168
0.0852775797247886
0.082696795463562
0.0801143497228622
0.0775412991642952
0.0750058740377426
0.0725486129522323
0.0702031329274177
0.0679675266146659
0.0657782480120658
0.0634988248348236
0.0609300285577774
0.0578393563628196
0.0540024638175964
0.049248494207859
0.043499618768692
0.0367947965860366
0.0292918942868709
0.0212492682039737
0.0129923932254314
0.0048719840124249
-0.0027793636545538
-0.0096846483647823
-0.015648053959012
-0.0205651689320802
-0.0244196616113185
-0.0272731352597475
-0.0292516928166151
-0.0305275917053222
-0.0312970392405986
-0.0317591316998004
-0.0320982336997985
-0.0324683897197246
-0.0329814217984676
-0.0337018556892871
-0.0346467196941375
-0.0357889719307422
-0.0370663031935691
-0.0383936837315559
-0.039676159620285
-0.0408204570412635
-0.0417455509305
-0.0423923656344413
-0.0427303686738014
-0.0427576452493667
-0.0424945279955863
-0.0419750437140464
-0.0412408262491226
-0.0403382778167724
-0.0393159911036491
-0.0382206663489341
-0.0370929837226867
-0.0359654128551483
-0.0348659791052341
-0.0338311344385147
-0.0329226292669773
-0.0322370156645774
-0.0319004543125629
-0.032049398869276
-0.0328025370836257
-0.034232810139656
-0.0363467261195182
-0.0390726216137409
-0.0422592423856258
-0.0456877872347831
-0.0490964725613594
-0.052211046218872
-0.0547747984528541
-0.0565741509199142
-0.0574574247002601
-0.0573459193110466
-0.0562377274036407
-0.0542044006288051
-0.0513803027570247
-0.0479459464550018
-0.0441077724099159
-0.0400762669742107
-0.0360443368554115
-0.0321684628725051
-0.028556190431118
-0.0252619180828332
-0.0222894456237554
-0.0196004398167133
-0.0171286985278129
-0.0147959217429161
-0.0125240087509155
-0.0102434866130352
-0.0079000787809491
-0.0054596657864749
-0.0029103385750204
-0.000261194538325
0.0024607321247458
0.0052148541435599
0.0079535171389579
0.0106290914118289
0.0131991244852542
0.015629032626748
0.0178932920098304
0.0199755355715751
0.0218640640377998
0.0235379301011562
0.0249468423426151
0.0259963832795619
0.0265481881797313
0.0264384262263774
0.0255110561847686
0.0236550867557525
0.0208342298865318
0.0171043016016483
0.0126180313527584
0.0076159164309501
0.0024024317972362
-0.0026890118606388
-0.007334891706705
-0.0112550472840666
-0.0142357358708977
-0.0161436516791582
-0.0169331971555948
-0.0166458636522293
-0.0154003044590353
-0.0133744878694415
-0.0107821449637413
-0.0078462967649102
-0.0047739539295434
-0.0017343852669
0.0011578286066651
0.0038505289703607
0.0063485754653811
0.0086984047666192
0.01096897944808
0.0132325626909732
0.015546572394669
0.0179392080754041
0.0204030331224203
0.0228983201086521
0.0253629498183727
0.0277229435741901
0.029900923371315
0.031824454665184
0.0334347486495971
0.0346922725439071
0.0355773754417896
0.0360883101820945
0.036239705979824
0.0360610783100128
0.0355914309620857
0.0348663702607154
0.0338986739516258
0.0326594300568103
0.0310701206326484
0.0290121473371982
0.0263508204370737
0.0229668989777565
0.0187897514551877
0.0138249471783638
0.0081693036481738
0.0020104055292904
-0.0043886131606996
-0.0107160927727818
-0.0166463479399681
-0.0218759179115295
-0.0261551160365343
-0.0293100625276565
-0.0312537625432014
-0.0319873616099357
-0.0315932445228099
-0.0302211493253707
-0.0280690044164657
-0.0253613591194152
-0.0223275423049926
-0.0191801339387893
-0.0160957369953393
-0.0132021345198154
-0.0105733266100287
-0.0082317981868982
-0.0061573297716677
-0.0042996457777917
-0.0025916972663253
-0.0009624928934499
0.0006510865641757
0.0022955036256462
0.0039972062222659
0.0057639824226498
0.0075878854840993
0.0094484565779566
0.0113161038607358
0.0131556093692779
0.0149298524484038
0.0166019108146429
0.0181349348276853
0.0194925088435411
0.0206405334174633
0.0215466096997261
0.0221721641719341
0.0224584937095642
0.0223154500126838
0.0216243490576744
0.0202584564685821
0.0181108601391315
0.015119319781661
0.011286349967122
0.0066916840150952
0.0014889817684888
-0.0041098156943917
-0.0098412223160266
-0.0153799755498766
-0.0203343778848648
-0.0242677628993988
-0.0267424397170543
-0.0273752156645059
-0.0258975848555564
-0.0222067981958389
-0.0163856297731399
-0.0086836125701665
0.0005215071141719
0.0107630342245101
0.0215247720479965
0.0322844125330448
0.0425545461475849
0.0519142746925354
0.0600360929965972
0.0667131543159484
0.0718767866492271
0.0755880400538444
0.0780008882284164
0.0793130248785018
0.079727791249752
0.0794396251440048
0.0786361396312713
0.077504925429821
0.0762384384870529
0.0750274360179901
0.0740335136651992
0.0733393505215644
0.0728824883699417
0.0723834484815597
0.071295827627182
0.0688413754105568
0.0641840621829032
0.0567004531621933
0.0462123230099678
0.0330699309706687
0.0180790200829505
0.0023315772414207
-0.0130002498626708
-0.0268622860312461
-0.0384739264845848
-0.0474196337163448
-0.0536675006151199
-0.0575213730335235
-0.0595262087881565
-0.0603502951562404
-0.0606674700975418
-0.0610599033534526
-0.0619555860757827
-0.0636037588119506
-0.0660827085375785
-0.069333866238594
-0.0732165575027465
-0.0775628089904785
-0.0822060331702232
-0.0869849547743797
-0.0917435735464096
-0.0963373631238937
-0.100643053650856
-0.1045655384659767
-0.1080376580357551
-0.1110138222575187
-0.1134622544050216
-0.1153596341609954
-0.1166890934109687
-0.1174400895833969
-0.1176071465015411
-0.117186352610588
-0.1161722242832183
-0.1145596802234649
-0.112353891134262
-0.1095823571085929
-0.10629802942276
-0.1025710999965667
-0.0984789207577705
-0.0941031724214553
-0.0895341038703918
-0.0848730653524398
-0.0802261903882026
-0.0756919682025909
-0.0713487192988395
-0.0672434866428375
-0.0633846074342727
-0.0597432740032672
-0.0562658570706844
-0.0528923496603965
-0.0495710149407386
-0.0462607890367507
-0.0429233610630035
-0.0395200289785862
-0.0360304787755012
-0.0324890911579132
-0.0290102306753397
-0.0257787685841321
-0.0230103321373462
-0.020904291421175
-0.0196065492928028
-0.0191881246864795
-0.0196421965956687
-0.0208984836935997
-0.0228482894599437
-0.0253745466470718
-0.0283907651901245
-0.0318923518061637
-0.0359845533967018
-0.0408225581049919
-0.0464669838547706
-0.0527455657720565
-0.0592081174254417
-0.0652031525969505
-0.0700289607048034
-0.0730687528848648
-0.0738410130143165
-0.0719373226165771
-0.0668894797563552
-0.0581004470586776
-0.0448410063982009
-0.0259985625743865
0.0004923939704895
0.0380341410636901
0.0911031514406204
0.1642014384269714
0.2601508498191833
0.378411054611206
0.5143656730651855
0.6598161458969116
0.8041365146636963
0.9356219172477722
1.0429470539093018
1.1166911125183103
1.150638222694397
1.142422795295715
1.0934090614318848
1.008088231086731
0.89329594373703
0.7574464082717896
0.6099230647087097
0.4606137871742248
0.3193518817424774
0.195090651512146
0.094961792230606
0.0234784483909606
-0.017965942621231
-0.0311497449874877
-0.0205044448375701
0.0077697336673736
0.0465011000633239
0.08808034658432
0.1249251365661621
0.1499947905540466
0.157270073890686
0.1421639323234558
0.1019468903541565
0.0362240076065063
-0.0526681542396545
-0.1595858037471771
-0.2770183384418487
-0.3960844278335571
-0.5078780055046082
-0.6047391891479492
-0.6811527609825134
-0.7342939376831055
-0.7642908692359924
-0.7741491198539734
-0.7692757248878479
-0.7565913796424866
-0.7432653307914734
-0.7353047728538513
-0.7365093231201172
-0.7482028603553772
-0.7696720361709595
-0.7988713979721069
-0.832955002784729
-0.8684794902801514
-0.901440978050232
-0.927420139312744
-0.9420146942138672
-0.9415328502655028
-0.9237595796585084
-0.8885248899459839
-0.8377279043197632
-0.7746489644050598
-0.7029404640197754
-0.6259549260139465
-0.5465971827507019
-0.4673750102519989
-0.3903146982192993
-0.3166314959526062
-0.2463100552558899
-0.1779541075229644
-0.1091537997126579
-0.0372892692685127
0.0395470559597015
0.1218722760677337
0.2086338400840759
0.2975814938545227
0.3860005140304565
0.4714278876781463
0.5520404577255249
0.6267281174659729
0.6950617432594299
0.7572600245475769
0.8140804171562195
0.8665269613265991
0.9154226779937744
0.9610170722007751
1.002724051475525
1.0390417575836182
1.0677640438079834
1.0864605903625488
1.0929679870605469
1.0856740474700928
1.0636521577835083
1.0268219709396362
0.976177453994751
0.9139508008956908
0.8434975147247314
0.7687939405441284
0.6937044858932495
0.6213005781173706
0.5534206628799438
0.4905963838100433
0.4323854148387909
0.3779156506061554
0.3263240754604339
0.2769612073898315
0.2294577360153198
0.1837791800498962
0.1403271853923797
0.1000346541404724
0.0642952322959899
0.0346306562423706
0.0121727585792541
-0.0028334259986877
-0.0112678408622741
-0.0150373578071594
-0.0167728662490844
-0.0194145441055297
-0.0256716609001159
-0.0374490022659301
-0.055445909500122
-0.0790274143218994
-0.1063080430030822
-0.1345383524894714
-0.161102294921875
-0.1849011778831482
-0.2072078585624694
-0.2314751744270324
-0.2623777985572815
-0.3045586347579956
-0.3614636957645416
-0.4345555901527405
-0.5230387449264526
-0.6240657567977905
-0.7332868576049805
-0.8455355763435364
-0.9554588794708252
-1.0580135583877563
-1.1488523483276367
-1.2246378660202026
-1.2833105325698853
-1.3244168758392334
-1.3496272563934326
-1.3629982471466064
-1.3700847625732422
-1.3760284185409546
-1.38398015499115
-1.3946505784988403
-1.406602144241333
-1.4168297052383425
-1.4215079545974731
-1.4167217016220093
-1.399059176445007
-1.3661326169967651
-1.316972017288208
-1.252139925956726
-1.173589110374451
-1.0843607187271118
-0.9881480932235718
-0.8887976408004761
-0.7898675799369812
-0.6942824721336365
-0.6040745973587036
-0.5202295184135437
-0.442659318447113
-0.3703204393386841
-0.3014764785766601
-0.2340630888938903
-0.1660974025726318
-0.0960707664489746
-0.0232237577438354
0.0524196028709411
0.1302888989448547
0.2096185684204101
0.289700984954834
0.3699701428413391
0.4498987197875976
0.5287056565284729
0.6050648093223572
0.6770889759063721
0.7426565885543823
0.7999024391174316
0.8476080894470215
0.8853441476821899
0.9134079217910768
0.9326876401901244
0.9445254802703856
0.9505701065063475
0.9525994658470154
0.9523067474365234
0.9510525465011596
0.949663519859314
0.9484196305274964
0.9472821354866028
0.9462318420410156
0.9454892873764038
0.9454917311668396
0.9467012882232666
0.9493860006332396
0.953414499759674
0.9580786228179932
0.9620611667633056
0.9636438488960266
0.9610822200775146
0.9529837369918824
0.9385851621627808
0.9179076552391052
0.8917943835258484
0.8618466854095459
0.8302440643310547
0.7994021773338318
0.7714875936508179
0.7479308843612671
0.7291208505630493
0.7143898010253906
0.7022555470466614
0.6907677054405212
0.6777832508087158
0.6611143350601196
0.6386756300926208
0.6087825298309326
0.5705873966217041
0.5245023965835571
0.4724254012107849
0.4176050126552582
0.3640720844268799
0.3157477974891662
0.2755058407783508
0.2445170432329177
0.2220842242240905
0.2059210389852523
0.1926730126142501
0.1785394996404647
0.1599336266517639
0.1341255903244018
0.0998076796531677
0.0574754774570465
0.0095005929470062
-0.0401814132928848
-0.0868068039417266
-0.1258662939071655
-0.1542165279388427
-0.1707881391048431
-0.1766343563795089
-0.1744265407323837
-0.1677507162094116
-0.1604645401239395
-0.1561415940523147
-0.1575523018836975
-0.1661849319934845
-0.1818918585777282
-0.2028171420097351
-0.225729614496231
-0.2467217445373535
-0.2620683312416076
-0.2690293490886688
-0.2664562463760376
-0.255038321018219
-0.2370857149362564
-0.2160090506076812
-0.1957398951053619
-0.1801521480083465
-0.1724618673324585
-0.1746737658977508
-0.187209665775299
-0.2088063508272171
-0.236671969294548
-0.2668737769126892
-0.2949788570404053
-0.3169187307357788
-0.32987841963768
-0.3328984081745147
-0.3269721865653991
-0.3146621286869049
-0.2994465827941894
-0.285034716129303
-0.2747513949871063
-0.2709592282772064
-0.2745300829410553
-0.284519612789154
-0.2982268035411834
-0.311700701713562
-0.3206024467945099
-0.3212241530418396
-0.3113994300365448
-0.2910445630550384
-0.2621910870075226
-0.2285306900739669
-0.1946325600147247
-0.1650727689266204
-0.1436662822961807
-0.1328758001327514
-0.1334010362625122
-0.1439680010080337
-0.1614225059747696
-0.1812277436256408
-0.1983091235160827
-0.208066701889038
-0.2073493599891662
-0.1951184123754501
-0.1725721955299377
-0.1428351253271103
-0.1104567795991897
-0.0807256400585174
-0.0587768256664276
-0.048677384853363
-0.0526914149522781
-0.0708314776420593
-0.1007570773363113
-0.1380809992551803
-0.1771149486303329
-0.2119557559490203
-0.2376624047756195
-0.2512174546718597
-0.2520302236080169
-0.2418778836727142
-0.2243542075157165
-0.2040430158376693
-0.1856311112642288
-0.1730677783489227
-0.1688429713249206
-0.1734862774610519
-0.1853952556848526
-0.2010702937841415
-0.2157755345106125
-0.2245722115039825
-0.2235303968191146
-0.210750937461853
-0.186829537153244
-0.1546264588832855
-0.1184941232204437
-0.0832902640104293
-0.0534729622304439
-0.0323978066444397
-0.0218061208724975
-0.0215214192867279
-0.0294478759169578
-0.041924275457859
-0.0543801560997962
-0.0621929168701171
-0.0616230107843875
-0.0506401509046554
-0.0294267274439334
-0.0004216693341732
0.0321261584758758
0.0630159601569175
0.0871551558375358
0.1005483567714691
0.1010086014866828
0.0885145962238311
0.0652236342430114
0.0351639464497566
0.0036116521805524
-0.0238221660256385
-0.0422584004700183
-0.0485138073563575
-0.0416866205632686
-0.0231989622116088
0.0036598145961761
0.034468088299036
0.0644585713744163
0.0892416387796402
0.1054528653621673
0.1113198101520538
0.1070492789149284
0.0948733538389206
0.0786584392189979
0.0631240010261535
0.0528540685772895
0.05134067684412
0.0602756030857563
0.0792613849043846
0.1060010939836502
0.1368606984615326
0.1676134169101715
0.1941967010498047
0.2133767902851104
0.223259150981903
0.2235741317272186
0.2156787812709808
0.2022756338119506
0.1868799328804016
0.1730859577655792
0.1637718379497528
0.1604533195495605
0.1629335582256317
0.1693146526813507
0.1764092296361923
0.1804903894662857
0.1781766861677169
0.1672002375125885
0.1468730866909027
0.1182134598493576
0.0838052183389663
0.047459565103054
0.0136904045939445
-0.0129987522959709
-0.0289494805037975
-0.0321325361728668
-0.0226293504238128
-0.0026081837713718
0.0241759456694126
0.0531314872205257
0.0796008333563804
0.0995172262191772
0.1099333018064498
0.1094615161418914
0.0985725596547126
0.0795814841985702
0.05621138215065
0.0328340157866478
0.0136179272085428
0.0017709154635667
-0.0010057026520371
0.0052438098937273
0.0188377816230058
0.0368620194494724
0.055744394659996
0.0718727931380271
0.0821814090013504
0.0846234858036041
0.078437216579914
0.064209446310997
0.0438299812376499
0.0203169044107198
-0.0026341527700424
-0.0213676746934652
-0.0330465734004974
-0.0363057926297187
-0.031619343906641
-0.0212003588676452
-0.0083985105156898
0.0031838156282901
0.0104930512607097
0.0114944800734519
0.0053491853177547
-0.0075185187160968
-0.0254099555313587
-0.0455237030982971
-0.0644413158297538
-0.0788626447319984
-0.0863359868526458
-0.0857526510953903
-0.0775260776281356
-0.0634709298610687
-0.0464198514819145
-0.0296595282852649
-0.0163322202861309
-0.0089278668165206
-0.0089219138026237
-0.016595259308815
-0.0310459472239017
-0.0503327064216136
-0.0717021450400352
-0.0919540598988533
-0.1080030798912048
-0.1175397187471389
-0.1195595487952232
-0.1145532727241516
-0.1042941063642501
-0.0913343355059623
-0.0784318894147872
-0.0680895149707794
-0.0622514896094799
-0.0620801672339439
-0.0677103847265243
-0.0780045986175537
-0.0904978662729263
-0.1017186045646667
-0.1079139113426208
-0.1060293465852737
-0.0946392267942428
-0.074481576681137
-0.0483753308653831
-0.0205418169498443
0.004382986575365
0.0222772695124149
0.030184831470251
0.0266822353005409
0.0120762400329113
-0.011510357260704
-0.040261223912239
-0.069161020219326
-0.0929083749651908
-0.1070385575294494
-0.1088809594511985
-0.0980581194162368
-0.076445460319519
-0.0476841405034065
-0.0164151638746261
0.0125779444351792
0.0351432338356971
0.04836006462574
0.0509581379592418
0.0435253493487834
0.0284314882010221
0.0094374539330601
-0.0089575089514255
-0.022323228418827
-0.0271371379494667
-0.021500140428543
-0.0055356780067086
0.0186670534312725
0.0475314036011695
0.0767015814781189
0.1017799004912376
0.1190074011683464
0.125882938504219
0.121656410396099
0.1075487732887268
0.0865660086274147
0.0628577843308448
0.0407374687492847
0.0236619021743536
0.0134972017258405
0.0102655291557312
0.0123756434768438
0.0171773005276918
0.0216318480670452
0.0229396782815456
0.0190227646380662
0.0088331047445535
-0.0074616251513361
-0.0284069683402776
-0.0514068491756916
-0.0731441676616668
-0.0902100279927253
-0.0998167544603347
-0.1004303246736526
-0.0921307504177093
-0.0765631347894668
-0.0564942955970764
-0.0351623184978961
-0.0156745892018079
-0.0006172750145196
0.0081575717777013
0.0097240228205919
0.0043258443474769
-0.0064463131129741
-0.0197535492479801
-0.031992319971323
-0.0395619235932827
-0.0396770723164081
-0.0309869199991226
-0.0138290524482727
0.00992027297616
0.0372767858207225
0.0646965056657791
0.0886613428592681
0.1062641143798828
0.1157188117504119
0.1167163103818893
0.1105509847402572
0.099896028637886
0.0881659910082817
0.0786396190524101
0.0736686289310455
0.0742080360651016
0.0797070637345314
0.0882938355207443
0.0971841663122177
0.1032413095235824
0.1035960838198661
0.0962317064404487
0.0804511532187461
0.0571595691144466
0.0288733951747417
-0.0006161797791719
-0.0268947575241327
-0.0457828007638454
-0.0542458221316337
-0.0511194877326488
-0.0373906940221786
-0.0159215088933706
0.0092348139733076
0.0336198769509792
0.0530477315187454
0.0641448870301246
0.0648024752736091
0.0545567646622657
0.0348139926791191
0.0087755927816033
-0.0190235637128353
-0.0435295477509498
-0.0601746663451194
-0.0658203065395355
-0.0593761280179023
-0.0419349893927574
-0.0164437666535377
0.0129305319860577
0.0415722951292991
0.0652002021670341
0.0805382207036018
0.0857969000935554
0.0809431672096252
0.0676729753613472
0.0490044504404068
0.0286022238433361
0.0100462809205055
-0.0038316510617733
-0.0114893652498722
-0.0129914097487926
-0.0099671520292758
-0.0051736831665039
-0.0018001534044742
-0.0027361437678337
-0.0099645145237445
-0.0241409726440906
-0.0444056317210197
-0.0684761852025985
-0.093010701239109
-0.1141732931137085
-0.1283420324325561
-0.1328699588775634
-0.1267277151346206
-0.110817015171051
-0.0878154933452606
-0.0616070963442325
-0.0365302301943302
-0.0166597869247198
-0.0052041970193386
-0.0040145963430404
-0.0132165420800447
-0.0310500711202621
-0.0540328323841095
-0.0774990767240524
-0.096475176513195
-0.1067395284771919
-0.1057853400707244
-0.0933617502450943
-0.0714257657527923
-0.0435952767729759
-0.0143311033025383
0.0119257131591439
0.0314868874847888
0.0419482626020908
0.0425415709614753
0.0342766195535659
0.0197522602975368
0.0026108147576451
-0.0132077280431985
-0.0242223069071769
-0.0280730258673429
-0.0240146983414888
-0.0131146628409624
0.0019709207117557
0.0176229234784841
0.0300780180841684
0.0361774899065494
0.0339070782065391
0.0227279644459486
0.0037221293896436
-0.0204683449119329
-0.0459637492895126
-0.0682764053344726
-0.0831906795501709
-0.0876854509115219
-0.0806050598621368
-0.06284761428833
-0.0370608307421207
-0.0070546306669712
0.0228504948318004
0.0484675094485282
0.0663725733757019
0.0744673907756805
0.072399616241455
0.061750553548336
0.0458593815565109
0.0291977431625127
0.0163903795182704
0.0111703732982277
0.0155862122774124
0.0296349748969078
0.0513330698013305
0.0771751850843429
0.1028938516974449
0.124335765838623
0.1382515132427215
0.1428756266832351
0.13821542263031
0.1259631961584091
0.1090119630098342
0.090717576444149
0.0741514712572097
0.0615154653787612
0.0537732057273387
0.0505386441946029
0.050273448228836
0.0507524237036705
0.0496350489556789
0.044974397867918
0.0355921611189842
0.0213189646601676
0.0030865855515003
-0.0171598270535469
-0.0367619134485721
-0.0528751239180564
-0.0631095319986343
-0.066059224307537
-0.0615985617041587
-0.0509314462542533
-0.036347210407257
-0.0207144655287265
-0.0069215297698974
0.0025499649345874
0.0059297494590282
0.0024279803037643
-0.0075567215681076
-0.0223917011171579
-0.0394028089940547
-0.0553473196923732
-0.0671059116721153
-0.0723796784877777
-0.0701720640063285
-0.0609679743647575
-0.0466426201164722
-0.0301563218235969
-0.0150414053350687
-0.0047163106501102
-0.0017830431461334
-0.0074978470802307
-0.0215317904949188
-0.0420550405979156
-0.0661035925149917
-0.090134784579277
-0.1106795072555542
-0.1250151395797729
-0.1317315548658371
-0.130999207496643
-0.1244193613529205
-0.1145293191075325
-0.1041776984930038
-0.0959613397717475
-0.0918132588267326
-0.0927564427256584
-0.0987788587808609
-0.1087880134582519
-0.1206926554441452
-0.1317048072814941
-0.1388803869485855
-0.1397729814052581
-0.1329898983240127
-0.1184916868805885
-0.0975769907236099
-0.0725917518138885
-0.0465024635195732
-0.0224554240703582
-0.0033259540796279
0.0087519064545631
0.012782335281372
0.00908974558115
-0.0007600337266921
-0.0142163708806037
-0.0280952006578445
-0.0390214622020721
-0.0439522340893745
-0.0406863167881965
-0.0282284766435623
-0.0069248676300048
0.0216331258416175
0.0548976808786392
0.0897878110408783
0.1231719329953193
0.1523320972919464
0.1752960234880447
0.1909422874450683
0.1989358067512512
0.1996230483055114
0.1939261257648468
0.1831911206245422
0.168959304690361
0.1527178287506103
0.1357534378767013
0.1191510260105133
0.1038373261690139
0.0905731841921806
0.0799117162823677
0.0721835792064666
0.0675230100750923
0.0658970922231674
0.0670860260725021
0.0706155896186828
0.0757260546088218
0.0814578756690025
0.0868505164980888
0.0911712795495987
0.0940533578395843
0.0954767540097236
0.0956522673368454
0.0949222221970558
0.0937199890613555
0.0925547331571579
0.0919722467660904
0.092459961771965
0.0943204015493393
0.097585842013359
0.1020052582025528
0.1070777922868728
0.1121316701173782
0.1164524555206298
0.1194097474217414
0.1205536723136901
0.1196982562541961
0.116956315934658
0.112687312066555
0.1073987707495689
0.1016153395175933
0.0956805124878883
0.0895667895674705
0.0828552097082138
0.0749189928174018
0.0651712864637374
0.0532279312610626
0.0389621630311012
0.0225099548697471
0.0042664036154747
-0.0151411592960357
-0.0349371172487735
-0.0543204620480537
-0.0725694596767425
-0.0891008824110031
-0.1034852191805839
-0.1154394820332527
-0.1248346790671348
-0.1317202001810073
-0.1363331228494644
-0.1390661895275116
-0.1403894126415252
-0.140764832496643
-0.1406034529209137
-0.1402508616447448
-0.1399566829204559
-0.1398206055164337
-0.1397521644830703
-0.1394867599010467
-0.1386573314666748
-0.1368850320577621
-0.1338652074337005
-0.1294374763965606
-0.1236171200871467
-0.1165778115391731
-0.1086129546165466
-0.1001086980104446
-0.0915260463953018
-0.0833573564887046
-0.0760502517223358
-0.0699380785226821
-0.0651925057172775
-0.0617894381284713
-0.0595215186476707
-0.0580834411084651
-0.0571759082376956
-0.0565589591860771
-0.0560662187635898
-0.0556380078196525
-0.0553682334721088
-0.0555012710392475
-0.05635242536664
-0.0581778101623058
-0.0610371604561805
-0.0647026598453521
-0.0686553940176963
-0.0721856653690338
-0.0745818018913269
-0.0753400474786758
-0.0743086412549018
-0.071713700890541
-0.0680493116378784
-0.0638638064265251
-0.0595643520355224
-0.0553720816969871
-0.0514114573597908
-0.0477999225258827
-0.0446584858000278
-0.0420553311705589
-0.0399302542209625
-0.0380563214421272
-0.0360555574297905
-0.0334361717104911
-0.0296404305845499
-0.0241329744458198
-0.0165362842381
-0.0067598819732666
0.004945982247591
0.0180333349853754
0.0317708849906921
0.0454033911228179
0.0583325885236263
0.0702530145645141
0.0811480358242988
0.0911461412906646
0.1003440245985984
0.1086594760417938
0.1157445311546325
0.1210522353649139
0.1240697056055069
0.1245516166090965
0.1225955039262771
0.1185378730297088
0.1127436235547065
0.1054261997342109
0.0966348052024841
0.0864171609282493
0.0750399902462959
0.0631333440542221
0.0516648329794406
0.0417317226529121
0.0342770330607891
