bvp
0.0012059579603374
0.0045893210917711
0.0071462960913777
0.0088797118514776
0.0098707331344485
0.0102637549862265
0.010239778086543
0.0099846748635172
0.0096663124859333
0.0094229849055409
0.0093557061627507
0.0095228105783462
0.0099398884922266
0.0105851609259843
0.0114091299474239
0.0123442709445953
0.0133114531636238
0.0142223052680492
0.0149726849049329
0.0154277868568897
0.0154131576418876
0.0147220063954591
0.0131380464881658
0.0104728937149047
0.0066120661795139
0.0015566535294055
-0.004549590870738
-0.0114159360527992
-0.018628429621458
-0.0256981402635574
-0.0321218930184841
-0.0374420881271362
-0.0412978678941726
-0.0434634014964103
-0.0438683964312076
-0.042596660554409
-0.0398653596639633
-0.0359933786094188
-0.0313622020184993
-0.0263708028942346
-0.0213928408920764
-0.0167453363537788
-0.0126690939068794
-0.0093168150633573
-0.0067496057599782
-0.0049436558037996
-0.0038044694811105
-0.0031853206455707
-0.0029094945639371
-0.002796059474349
-0.0026836171746253
-0.0024459529668092
-0.0019997749477624
-0.0013065487146377
-0.0003682672977447
0.0007826704531908
0.0020954646170139
0.0035107191652059
0.004966439679265
0.0063999705016613
0.0077449586242437
0.0089185908436775
0.009801872074604
0.0102302245795726
0.0100056640803813
0.0089256726205348
0.0068211443722248
0.0035971328616142
-0.0007327310740947
-0.006027465686202
-0.0120209939777851
-0.018344797194004
-0.0245656073093414
-0.0302334669977426
-0.0349332205951213
-0.0383287966251373
-0.0401960536837577
-0.040446076542139
-0.039133857935667
-0.0364447832107543
-0.0326642245054245
-0.0281415674835443
-0.0232518855482339
-0.0183549504727125
-0.0137590812519192
-0.0096984049305319
-0.0063207587227225
-0.0036820266395807
-0.0017498470842838
-0.0004177764058113
0.0004731956869363
0.0011073797941207
0.0016633830964565
0.0022874139249324
0.0030781365931034
0.0040807239711284
0.0052872449159622
0.006645256653428
0.008071944117546
0.0094693517312407
0.0107404245063662
0.0118045229464769
0.0126077672466635
0.0131241483613848
0.0133468899875879
0.0132733592763543
0.0128881847485899
0.0121493991464376
0.0109847607091069
0.0093042887747287
0.0070254383608698
0.0041023446246981
0.0005531525239348
-0.0035228319466114
-0.007944555953145
-0.0124620143324136
-0.016778802499175
-0.0205851513892412
-0.0235959254205226
-0.0255828592926263
-0.0263973399996757
-0.0259838849306106
-0.0243826992809772
-0.0217223539948463
-0.0182042252272367
-0.0140791032463312
-0.0096199642866849
-0.0050950851291418
-0.0007431202102452
0.0032442105002701
0.0067297015339136
0.009636546485126
0.0119532085955142
0.0137277822941541
0.0150505397468805
0.0160338599234819
0.0167963728308677
0.0174504145979881
0.0180905554443597
0.0187835525721311
0.0195602271705865
0.020408384501934
0.0212664306163787
0.0220216922461986
0.0225167628377676
0.0225584134459495
0.0219272337853908
0.0203999355435371
0.017792897298932
0.0140186864882707
0.0091380327939987
0.0033886358141899
-0.0028234370984137
-0.0089694848284125
-0.014468278735876
-0.0187683496624231
-0.0214303620159626
-0.0221936386078596
-0.0210137870162725
-0.0180669408291578
-0.0137220490723848
-0.0084850238636136
-0.0029208043124526
0.0024336392525583
0.0071446634829044
0.0109294056892395
0.0136735374107956
0.01542186178267
0.0163408014923334
0.0166604835540056
0.0166143029928207
0.0163915082812309
0.0161125939339399
0.0158302374184131
0.0155479693785309
0.0152433970943093
0.0148871168494224
0.0144537575542926
0.0139248929917812
0.0132896704599261
0.0125505859032273
0.0117308385670185
0.0108750592917203
0.0100428350269794
0.009295031428337
0.0086731631308794
0.0081797000020742
0.0077669001184403
0.0073362342081964
0.0067508504725992
0.0058615109883248
0.0045385165140032
0.0026986659504473
0.000323605723679
-0.0025271112099289
-0.0057138535194098
-0.0090363472700119
-0.0122685367241501
-0.0151901571080088
-0.0176076274365186
-0.0193703435361385
-0.0203831158578395
-0.02061203494668
-0.0200873464345932
-0.0189021248370409
-0.0172030366957187
-0.0151733569800853
-0.0130069833248853
-0.0108815543353557
-0.0089425472542643
-0.0072938241064548
-0.0059896847233176
-0.0050335610285401
-0.0043835723772645
-0.0039634490385651
-0.0036786897107958
-0.003431346733123
-0.0031286638695746
-0.0026904735714197
-0.0020589113701134
-0.0012062592431902
-0.0001380986650474
0.0011064277496188
0.0024580317549407
0.0038264831528067
0.0051101790741086
0.0062000006437301
0.0069835167378187
0.0073574604466557
0.0072462786920368
0.0066203135065734
0.0055069387890398
0.0039877332746982
0.0021836198866367
0.0002406049170531
-0.0016799345612525
-0.0034155345056205
-0.0048236194998025
-0.0057988287881016
-0.0062807165086269
-0.0062569119036197
-0.0057628769427537
-0.0048736543394625
-0.003689524019137
-0.0023208779748529
-0.0008751475252211
0.0005518579855561
0.0018804292194545
0.0030506474431604
0.0040262984111905
0.0047960407100617
0.005369281861931
0.0057696793228387
0.0060309250839054
0.0061942413449287
0.0063048494048416
0.0064068464562296
0.0065382961183786
0.006728068459779
0.0069957030937075
0.0073545686900615
0.0078113600611686
0.0083579663187265
0.0089616924524307
0.0095553267747163
0.0100289843976497
0.010236301459372
0.0100194057449698
0.0092408182099461
0.0078140972182154
0.0057296007871627
0.0030649779364466
-2.435514761600644e-05
-0.0033287783153355
-0.0066153239458799
-0.0096562085673213
-0.0122479237616062
-0.0142259923741221
-0.0154799772426486
-0.0159639790654182
-0.0156987030059099
-0.0147646740078926
-0.0132873887196183
-0.0114186815917491
-0.0093173142522573
-0.0071316547691822
-0.0049898666329681
-0.00299640186131
-0.001230526715517
0.0002543716691434
0.0014335201121866
0.0023145696613937
0.002936705481261
0.0033637378364801
0.0036721208598464
0.0039358856156468
0.0042153992690145
0.0045535112731158
0.0049750604666769
0.0054877623915672
0.0060850391164422
0.006745999213308
0.0074294083751738
0.0080678015947341
0.0085669932886958
0.0088113872334361
0.008677078410983
0.0080512212589383
0.0068514570593833
0.0050451043061912
0.0026672440581023
-0.0001723526511341
-0.0032983860000967
-0.0064895050600171
-0.0095049170777201
-0.0121158380061388
-0.0141322212293744
-0.0154201220721006
-0.015914499759674
-0.0156258791685104
-0.0146317593753337
-0.013054072856903
-0.0110370814800262
-0.0087332967668771
-0.0062942304648458
-0.0038626440800726
-0.0015633348375558
0.0005072928033769
0.0022864802740514
0.0037440555170178
0.0048823188990354
0.0057358806952834
0.0063642552122473
0.0068391351960599
0.0072316527366638
0.0076031615026295
0.0080013861879706
0.0084584522992372
0.0089893145486712
0.0095944199711084
0.0102642476558685
0.0109780738130211
0.0116946175694465
0.0123400380834937
0.012805676087737
0.012961165048182
0.0126723814755678
0.0118188774213194
0.0103169102221727
0.0081441421061754
0.005353229586035
0.0020673705730587
-0.0015374980866909
-0.0052511161193251
-0.0088433725759387
-0.0120806619524955
-0.0147460093721747
-0.0166623629629611
-0.0177179742604494
-0.0178829152137041
-0.0172068141400814
-0.0158037450164556
-0.0138335917145013
-0.0114802494645118
-0.0089284274727106
-0.0063468404114246
-0.003878747113049
-0.0016356082633137
0.0003070523962378
0.0019115530885756
0.0031765224412083
0.004132314119488
0.0048360843211412
0.0053646569140255
0.0058032004162669
0.006231976673007
0.0067144809290766
0.007290287874639
0.0079720532521605
0.0087477816268801
0.0095908399671316
0.0104695744812488
0.0113502582535147
0.0121955061331391
0.012958601117134
0.0135767050087451
0.0139647489413619
0.0140101145952939
0.0135768465697765
0.0125247668474912
0.0107380077242851
0.0081551065668463
0.0047930777072906
0.0007610397879034
-0.0037393332459032
-0.0084294211119413
-0.0129855116829276
-0.0170819442719221
-0.0204314477741718
-0.0228129960596561
-0.0240927059203386
-0.0242374129593372
-0.023311449214816
-0.021458214148879
-0.018875503912568
-0.0157897807657718
-0.0124329291284084
-0.0090233897790312
-0.0057498309761285
-0.0027564298361539
-0.0001341542229056
0.0020779315382242
0.0038856286555528
0.0053347488865256
0.0065066847018897
0.0075047854334115
0.0084336781874299
0.0093810595571994
0.0104037383571267
0.0115231731906533
0.0127340983599424
0.0140139181166887
0.015326608903706
0.0166291818022727
0.0178793277591466
0.0190371070057153
0.0200671441853046
0.0209441222250461
0.0216462481766939
0.0221333634108304
0.02232894487679
0.0221194215118885
0.0213685967028141
0.0199395567178726
0.0177208147943019
0.0146570652723312
0.010779270902276
0.0062210434116423
0.0012121595209464
-0.0039469026960432
-0.0089228767901659
-0.0133909052237868
-0.0170656461268663
-0.0197233092039823
-0.0212212819606065
-0.0215105153620243
-0.0206387229263782
-0.018744483590126
-0.0160371549427509
-0.0127684380859136
-0.0092066014185547
-0.0056122760288417
-0.0022140440996736
0.0008098579710349
0.0033410678151994
0.0053242431022226
0.0067628868855535
0.00770976068452
0.0082562770694494
0.0085186185315251
0.0086215650662779
0.008684204891324
0.0088052097707986
0.0090507920831441
0.0094536654651165
0.0100184334442019
0.0107245193794369
0.0115297771990299
0.0123788435012102
0.0132124368101358
0.0139755355194211
0.014625109732151
0.0151315908879041
0.015464418567717
0.0155663816258311
0.0153398979455232
0.0146574042737483
0.0133801298215985
0.0113744968548417
0.0085387714207172
0.0048410100862383
0.0003474103286862
-0.0047688940539956
-0.0102349454537034
-0.0157058872282505
-0.0208158958703279
-0.0252297706902027
-0.0286742150783538
-0.0309565309435129
-0.031980887055397
-0.0317547172307968
-0.0303797908127307
-0.0280328709632158
-0.0249442011117935
-0.021377433091402
-0.017604723572731
-0.0138785885646939
-0.01041204854846
-0.0073648337274789
-0.0048313485458493
-0.0028392560780048
-0.0013591209426522
-0.0003152163699269
0.0004013329744338
0.0009105158969759
0.00132108759135
0.0017216242849826
0.0021815262734889
0.0027512870728969
0.0034593967720866
0.0043087359517812
0.0052772806957364
0.0063249999657273
0.0074030496180057
0.0084599843248724
0.0094464235007762
0.0103216059505939
0.0110556036233901
0.0116201341152191
0.0119712781161069
0.0120367184281349
0.0117181902751326
0.0109040504321455
0.0094852307811379
0.007375638000667
0.0045330999419093
0.0009786002337932
-0.0031877281144261
-0.0077845100313425
-0.0125650810077786
-0.0172444283962249
-0.0215297006070613
-0.0251469835638999
-0.0278630051761865
-0.0295086875557899
-0.0300023257732391
-0.0293594151735305
-0.0276857279241085
-0.0251608081161975
-0.0220148768275976
-0.0185003317892551
-0.014864545315504
-0.0113271446898579
-0.00806200876832
-0.0051886811852455
-0.0027711584698408
-0.0008187945932149
0.0007067318074405
0.0018763421103358
0.0027752025052905
0.0034869471564888
0.004086370114237
0.0046409042552113
0.0052123037166893
0.0058513660915195
0.0065909116528928
0.007443203125149
0.0083995228633284
0.0094325738027691
0.0105025572702288
0.0115630337968468
0.0125668626278638
0.0134739335626363
0.0142573164775967
0.0149005819112062
0.015382969751954
0.0156603306531906
0.0156536512076854
0.0152509696781635
0.0143226385116577
0.0127472402527928
0.0104426369071006
0.0073923175223171
0.003659313544631
-0.0006119986064732
-0.0052031567320227
-0.0098397973924875
-0.0142230987548828
-0.0180662479251623
-0.0211244914680719
-0.0232173111289739
-0.0242430716753005
-0.0241844169795513
-0.0231061428785324
-0.0211452562361955
-0.0184925012290477
-0.0153688499704003
-0.012001940049231
-0.0086079752072691
-0.0053788525983691
-0.0024701533839106
1.0331976227462292e-05
0.0020129557233303
0.0035512843169271
0.0046928897500038
0.0055372598581016
0.0061926222406327
0.0067576705478131
0.0073091513477265
0.0078977430239319
0.0085517074912786
0.0092823132872581
0.0100857224315404
0.0109428334981203
0.0118215344846248
0.0126850493252277
0.0135033344849944
0.0142551064491271
0.0149209741503
0.0154814906418323
0.0159198306500911
0.0162188168615102
0.0163500662893056
0.0162614919245243
0.0158711988478899
0.0150726130232214
0.0137497754767537
0.011799075640738
0.0091573540121316
0.0058312714099884
0.0019135335460305
-0.002418209798634
-0.0069142798893153
-0.0112790567800402
-0.0152098201215267
-0.0184384360909461
-0.0207625813782215
-0.0220589768141508
-0.0222870744764804
-0.021492600440979
-0.0198034215718507
-0.0174116753041744
-0.0145489098504185
-0.0114575792104005
-0.0083596454933285
-0.0054326727986335
-0.0028024218045175
-0.0005459480453282
0.0013051535934209
0.0027605486102402
0.0038621905259788
0.0046732202172279
0.0052679665386676
0.0057256845757365
0.0061265937983989
0.0065431324765086
0.0070268525741994
0.0076005151495337
0.0082611227408051
0.0089897001162171
0.0097592351958155
0.0105395652353763
0.0113041903823614
0.0120357731357216
0.0127220600843429
0.013345867395401
0.0138792563229799
0.0142816891893744
0.014495694078505
0.0144407469779253
0.0140128023922443
0.0130947837606072
0.011578538455069
0.0093912752345204
0.0065156491473317
0.0030038079712539
-0.0010133883915841
-0.0053332163952291
-0.0097068306058645
-0.0138699021190404
-0.0175670217722654
-0.0205724686384201
-0.0227131657302379
-0.0238874889910221
-0.0240696333348751
-0.0233037732541561
-0.0216980185359716
-0.0194162912666797
-0.0166617631912231
-0.0136544639244675
-0.0106090530753135
-0.0077155795879662
-0.0051243146881461
-0.0029331652913242
-0.0011792802251875
0.0001570668537169
0.0011374088935554
0.0018480594735592
0.0023839948698878
0.0028351307846605
0.0032770880497992
0.0037669499870389
0.0043434668332338
0.0050267223268747
0.0058161308988928
0.0066923452541232
0.007623741403222
0.0085730254650115
0.009501589462161
0.0103723816573619
0.0111520430073142
0.0118105206638574
0.012316545471549
0.0126290740445256
0.0126869603991508
0.0124050984159111
0.0116819832473993
0.0104152075946331
0.0085249030962586
0.005982918664813
0.0028350211214274
-0.00079271098366
-0.0047018020413815
-0.0086401384323835
-0.0123310349881649
-0.0155107695609331
-0.0179617591202259
-0.019529128447175
-0.0201269332319498
-0.019743125885725
-0.018441068008542
-0.016353566199541
-0.0136684710159897
-0.0106064062565565
-0.0073947799392044
-0.004246630705893
-0.0013467487879097
0.0011610304936766
0.003185887588188
0.0046982462517917
0.0057317586615681
0.0063747772946953
0.0067514772526919
0.0069986595772206
0.0072443936951458
0.0075898463837802
0.0080968271940946
0.0087869986891746
0.0096482532098889
0.0106413383036851
0.0117096742615103
0.0127917062491178
0.0138303954154253
0.0147782275453209
0.0155942346900701
0.0162316970527172
0.0166262742131948
0.0166933741420507
0.0163336396217346
0.0154428286477923
0.0139258466660976
0.0117171918973326
0.0088049052283167
0.0052500464953482
0.0011952624190598
-0.0031429878436028
-0.0074988575652241
-0.0115886079147458
-0.0151405539363622
-0.0179236251860857
-0.0197726506739854
-0.0206029061228036
-0.020412553101778
-0.0192766655236482
-0.0173353385180234
-0.0147785888984799
-0.0118291955441236
-0.0087216757237911
-0.0056766932830214
-0.002876040758565
-0.0004457721952348
0.0015502532478421
0.0031079754699021
0.0042718187905848
0.0051169334910809
0.0057324785739183
0.0062081203795969
0.0066215880215168
0.0070305936969816
0.0074719879776239
0.0079648671671748
0.0085145253688097
0.0091163329780101
0.0097572635859251
0.0104155018925666
0.0110636549070477
0.0116762546822428
0.0122346654534339
0.0127234878018498
0.0131171615794301
0.013361900113523
0.0133641567081213
0.0129941869527101
0.0121058970689773
0.0105677498504519
0.0082931881770491
0.0052608689293265
0.0015238188207149
-0.0027902531437575
-0.007485766429454
-0.0123113114386796
-0.0169771164655685
-0.0211801156401634
-0.0246373396366834
-0.0271232258528471
-0.0284994002431631
-0.0287266261875629
-0.0278609618544578
-0.0260412283241748
-0.023469379171729
-0.020384119823575
-0.0170318521559238
-0.0136410230770707
-0.0104038072749972
-0.0074652330949902
-0.004916962236166
-0.0027934515383094
-0.0010748181957751
0.0003004781901836
0.0014176971744745
0.0023670545779168
0.0032306560315191
0.0040784156881272
0.0049654622562229
0.005927812308073
0.0069808354601264
0.0081214178353548
0.009332163259387
0.0105868745595216
0.0118544027209281
0.0130988769233226
0.0142803248018026
0.0153579330071806
0.0162892080843448
0.0170198865234851
0.0174728259444236
0.0175454467535018
0.0171140320599079
0.0160469114780426
0.014231295324862
0.0116025088354945
0.0081641497090458
0.0040026325732469
-0.000705266080331
-0.0057025426067411
-0.0106790587306022
-0.0153044741600751
-0.0192641597241163
-0.0222970377653837
-0.0242251865565776
-0.0249680206179618
-0.0245429892092943
-0.0230571441352367
-0.0206892229616642
-0.0176620557904243
-0.014216081239283
-0.01059116050601
-0.0070106731727719
-0.0036641526967287
-0.0006913789547979
0.0018255822360515
0.0038596685044467
0.0054325270466506
0.0066077620722353
0.0074785365723073
0.0081495465710759
0.0087209409102797
0.0092793544754385
0.0098922122269868
0.0106015056371688
0.0114225447177886
0.0123497890308499
0.0133609352633357
0.0144174434244632
0.0154702775180339
0.0164700746536254
0.0173740126192569
0.0181504264473915
0.0187796801328659
0.0192424040287733
0.0194983314722776
0.0194709654897451
0.0190479345619678
0.0180947296321392
0.0164762735366821
0.0140871629118919
0.0108863338828086
0.0069207232445478
0.0023290321696549
-0.0026682051829993
-0.007785765454173
-0.0127015355974435
-0.0170960873365402
-0.0206943210214376
-0.0232958532869815
-0.0247870497405529
-0.0251409839838743
-0.024415548890829
-0.0227476526051759
-0.0203347224742174
-0.0174073092639446
-0.0142059763893485
-0.0109628466889262
-0.0078804874792695
-0.005111422855407
-0.002746399026364
-0.0008151044603437
0.0007024069782346
0.0018598397728055
0.002730450592935
0.0033974873367697
0.003947983495891
0.0044647245667874
0.0050159324891865
0.005648698657751
0.0063875378109514
0.0072348010726273
0.0081722158938646
0.0091653922572731
0.0101718809455633
0.0111482813954353
0.0120535725727677
0.0128521947190165
0.0135166058316826
0.0140262907370924
0.0143629489466547
0.0145009187981486
0.0143964122980833
0.0139820147305727
0.0131680034101009
0.0118512380868196
0.0099337752908468
0.0073514902032911
0.0041042044758796
0.0002722749486565
-0.003985752351582
-0.0084485933184623
-0.0128550045192241
-0.0169326476752758
-0.0204298794269561
-0.0231415275484323
-0.0249246060848236
-0.0257082134485244
-0.0255000405013561
-0.0243845991790294
-0.0225084107369184
-0.0200582332909107
-0.0172417014837265
-0.0142707461491227
-0.0113429864868521
-0.0086212428286671
-0.0062192203477025
-0.0041980892419815
-0.0025695217773318
-0.0013019531033933
-0.0003305997233837
0.0004300319124013
0.0010716911638155
0.0016785565530881
0.0023206060286611
0.0030516076367348
0.003904968034476
0.0048890546895563
0.0059853405691683
0.0071523445658385
0.0083367209881544
0.0094870310276746
0.0105625633150339
0.0115321893244981
0.0123701216652989
0.0130589446052908
0.0135930199176073
0.0139701161533594
0.0141752958297729
0.0141678154468536
0.0138759985566139
0.0132027231156826
0.0120421396568417
0.0103026200085878
0.0079307612031698
0.0049337400123476
0.0013949428685009
-0.0025265044532716
-0.0066162878647446
-0.0106338048353791
-0.0143376812338829
-0.017507804557681
-0.0199640300124883
-0.0215821173042058
-0.0223067123442888
-0.0221548546105623
-0.0212082266807556
-0.0195990372449159
-0.0174927525222301
-0.0150714330375194
-0.012518404982984
-0.0100007327273488
-0.007654070854187
-0.0055766701698303
-0.0038281395100057
-0.0024275453761219
-0.0013540706131607
-0.0005539221456274
4.877708852291107e-05
0.0005404992261901
0.0010068691335618
0.001521760248579
0.0021381857804954
0.0028817802667617
0.0037494171410799
0.0047147441655397
0.0057376353070139
0.0067740222439169
0.0077838082797825
0.0087337540462613
0.0095957890152931
0.0103465607389807
0.0109690921381115
0.0114507963880896
0.0117759257555007
0.0119153941050171
0.0118193281814455
0.0114181898534297
0.0106336204335093
0.0093956002965569
0.0076601863838732
0.0054234606213867
0.0027322340756654
-0.0003099860623478
-0.0035470924340188
-0.006785696838051
-0.0098181320354342
-0.0124483108520507
-0.0145146297290921
-0.0159047525376081
-0.0165619794279336
-0.0164860542863607
-0.0157292112708091
-0.0143876262009143
-0.0125902574509382
-0.0104875955730676
-0.0082396268844604
-0.0059992028400301
-0.0038938922807574
-0.0020151981152594
-0.0004155030474066
0.0008911280892789
0.0019234302453696
0.0027247313410043
0.0033559359144419
0.0038877811748534
0.0043898853473365
0.0049208090640604
0.005524106323719
0.0062272660434246
0.0070395986549556
0.0079517606645822
0.0089385947212576
0.0099631957709789
0.0109822023659944
0.0119535196572542
0.0128429271280765
0.0136231994256377
0.014266213402152
0.0147345289587974
0.0149769354611635
0.0149290654808282
0.0145183578133583
0.0136729339137673
0.0123346131294965
0.010475218296051
0.0081134550273418
0.0053257527761161
0.0022440932225435
-0.0009580790065228
-0.0040851617231965
-0.0069416332989931
-0.0093547878786921
-0.0111904079094529
-0.0123607423156499
-0.0128308720886707
-0.0126217314973473
-0.0118037117645144
-0.0104826195165514
-0.0087855849415063
-0.0068519352935254
-0.0048246546648442
-0.0028347808402031
-0.0009845932945609
0.0006584275979548
0.0020571090281009
0.0031976841855794
0.004086600150913
0.0047505358234047
0.0052330694161355
0.0055867144837975
0.005865846760571
0.0061226645484566
0.0064035775139927
0.006744161248207
0.0071643805131316
0.0076677119359374
0.0082453303039073
0.0088807586580514
0.0095501812174916
0.0102216182276606
0.0108569087460637
0.0114128738641738
0.0118397232145071
0.0120802335441112
0.0120694693177938
0.0117327757179737
0.0109868459403514
0.0097515881061553
0.0079694911837577
0.0056216125376522
0.0027381097897887
-0.0005931057967245
-0.004224075935781
-0.0079596973955631
-0.0115825925022363
-0.0148769142106175
-0.0176488645374774
-0.0197486542165279
-0.0210879985243082
-0.0216451734304428
-0.0214603021740913
-0.020624965429306
-0.0192647241055965
-0.0175194703042507
-0.0155303413048386
-0.0134297031909227
-0.0113309975713491
-0.00932536739856
-0.0074825976043939
-0.0058486498892307
-0.00444294558838
-0.0032597531098872
-0.0022720622364431
-0.0014359254855662
-0.0006965126958675
1.4980323612689972e-06
0.0007015283335931
0.0014295951696112
0.0021989988163113
0.0030165207572281
0.0038854430895298
0.0048074563965201
0.0057816822081804
0.0067999698221683
0.0078417127951979
0.008873357437551
0.0098527893424034
0.0107309138402342
0.011448604054749
0.0119345374405384
0.0121063143014907
0.0118740545585751
0.0111480262130498
0.0098545029759407
0.0079571083188056
0.005473752040416
0.0024836731608957
-0.0008758404292166
-0.0044214855879545
-0.0079422974959015
-0.0112222004681825
-0.0140623813495039
-0.0162999276071786
-0.0178219527006149
-0.0185737125575542
-0.018559668213129
-0.0178368352353572
-0.0165040455758571
-0.0146937416866421
-0.0125626400113105
-0.0102749625220894
-0.0079812295734882
-0.0057986499741673
-0.0038017309270799
-0.0020282610785216
-0.0004902095533907
0.0008205089252442
0.0019269884796813
0.0028612713795155
0.0036605671048164
0.0043638260103762
0.0050085876137018
0.005629972089082
0.0062595447525382
0.0069229966029524
0.0076383328996598
0.0084143746644258
0.0092498194426298
0.0101340683177113
0.0110474899411201
0.0119593692943453
0.0128280464559793
0.0136064467951655
0.0142458323389291
0.0146909449249506
0.0148728303611278
0.0147080346941947
0.0141059197485446
0.0129831070080399
0.0112825892865657
0.0089929215610027
0.0061603793874382
0.0028908313252031
-0.0006560512119904
-0.0042801992967724
-0.0077621079981327
-0.0108860861510038
-0.0134617937728762
-0.015343333594501
-0.0164439603686332
-0.0167434513568878
-0.0162851940840482
-0.0151648325845599
-0.0135178174823522
-0.0115086231380701
-0.0093166213482618
-0.0071146860718727
-0.0050471741706132
-0.0032170116901397
-0.001682513160631
-0.0004590705502778
0.0004772819811478
0.0011822141241282
0.0017291465774178
0.0021934453397989
0.002639717888087
0.0031137689948081
0.0036417059600353
0.00423677964136
0.004906368907541
0.0056524653919041
0.0064706951379776
0.0073514264076948
0.0082777710631489
0.0092214345932006
0.0101438723504543
0.0110034244135022
0.0117619130760431
0.0123860714957118
0.0128442840650677
0.0131007330492138
0.0131096988916397
0.0128125352784991
0.0121383937075734
0.0110117308795452
0.0093706063926219
0.0071905674412846
0.0045006065629422
0.0013860664330422
-0.0020160363055765
-0.0055271349847316
-0.0089443586766719
-0.012062688358128
-0.0146966222673654
-0.01669785939157
-0.0179688148200511
-0.0184711497277021
-0.0182283855974674
-0.0173219069838523
-0.0158783067017793
-0.0140497321262955
-0.0119935348629951
-0.0098565910011529
-0.0077655552886426
-0.0058211856521666
-0.0040938821621239
-0.0026206832844763
-0.0014067740412428
-0.0004312468226999
0.0003452277160249
0.0009727686410769
0.0015074072871357
0.0020088590681552
0.0025353636592626
0.0031331065110862
0.0038281548768281
0.0046260035596787
0.0055127833038568
0.0064571262337267
0.0074170683510601
0.0083472644910216
0.0092030884698033
0.0099468696862459
0.0105554340407252
0.0110224783420562
0.0113516971468925
0.0115402629598975
0.0115627292543649
0.0113670341670513
0.0108812246471643
0.0100245922803878
0.0087196938693523
0.0069068912416696
0.0045650829561054
0.0017321091145277
-0.0014873002655804
-0.0049305972643196
-0.0083984415978193
-0.0116778910160064
-0.0145635195076465
-0.0168784502893686
-0.0184927061200141
-0.0193348247557878
-0.0193969793617725
-0.0187330171465873
-0.0174494832754135
-0.0156910140067338
-0.0136212445795536
-0.0114035857841372
-0.0091863349080085
-0.0070934267714619
-0.0052188877016305
-0.0036213041748851
-0.0023207399062812
-0.0013031986309215
-0.0005279652541503
6.623705849051476e-05
0.0005509144393727
0.0009941713651642
0.0014525519218295
0.0019696727395057
0.0025754629168659
0.0032828541006892
0.0040847677737474
0.0049569932743906
0.0058665592223405
0.0067785875871777
0.0076604471541941
0.0084845088422298
0.0092282714322209
0.0098748486489057
0.0104139475151896
0.0108377505093812
0.01112936809659
0.0112486267462372
0.0111266337335109
0.0106745390221476
0.0098011251538991
0.0084355799481272
0.0065505681559443
0.00417449651286
0.0013911605346947
-0.0016643679700791
-0.0048135677352547
-0.0078529547899961
-0.0105803525075316
-0.0128186931833624
-0.014431070536375
-0.0153297754004597
-0.0154857784509658
-0.0149349952116608
-0.0137734655290842
-0.01214290689677
-0.010208137333393
-0.0081299999728798
-0.0060476996004581
-0.0040737758390605
-0.0022887238301336
-0.000733776949346
0.0005866684950888
0.0016938124317675
0.0026237999554723
0.0034190863370895
0.0041202451102435
0.0047613908536732
0.0053711677901446
0.0059744655154645
0.0065920567139983
0.0072405096143484
0.0079318080097436
0.0086712539196014
0.0094561912119388
0.0102765131741762
0.0111144017428159
0.0119441654533147
0.0127338757738471
0.0134447710588574
0.0140263577923178
0.0144119076430797
0.0145181873813271
0.0142512517049908
0.0135206170380115
0.0122580425813794
0.0104333506897091
0.0080668898299336
0.0052399742417037
0.0020964229479432
-0.0011724052019417
-0.0043548527173697
-0.0072472104802727
-0.0096775414422154
-0.0115218944847583
-0.0127087635919451
-0.0132163502275943
-0.0130694592371582
-0.012333907186985
-0.0111070051789283
-0.0095081310719251
-0.0076704644598066
-0.0057315053418278
-0.003821182064712
-0.0020487960427999
-0.0004926669644191
0.0008025059942156
0.0018219182966277
0.0025787043850868
0.0031133976299315
0.0034864477347582
0.0037656174972653
0.0040149809792637
0.004285829141736
0.0046112709678709
0.0050067421980202
0.005472925491631
0.0059981402009725
0.0065618674270808
0.0071404417976737
0.0077118957415223
0.0082569494843482
0.0087567269802093
0.0091901617124676
0.0095331706106662
0.009757705964148
0.009826710447669
0.0096865091472864
0.0092629930004477
0.0084656653925776
0.0072033922187983
0.0054104630835354
0.0030703204683959
0.0002294415608048
-0.0029992144554853
-0.0064486349001526
-0.0099214157089591
-0.013211403042078
-0.016122592613101
-0.0184886921197175
-0.0201915558427572
-0.0211740564554929
-0.0214416198432445
-0.0210539288818836
-0.0201129205524921
-0.0187464691698551
-0.0170883145183324
-0.0152623131871223
-0.0133744981139898
-0.0115096317604184
-0.0097299050539731
-0.0080756656825542
-0.0065686404705047
-0.0052153710275888
-0.0040089376270771
-0.00293162278831
-0.0019596589263528
-0.0010673924116417
-0.0002284428919665
0.0005843062535859
0.0013953251764178
0.002221236238256
0.003069361206144
0.0039395503699779
0.0048259138129651
0.0057183876633644
0.0066045429557561
0.0074714282527565
0.0083063952624797
0.0090931635349988
0.0098026022315025
0.0103847309947013
0.0107684973627328
0.0108679477125406
0.0105915199965238
0.0098569011315703
0.0086084995418787
0.0068305451422929
0.0045555429533123
0.001868387684226
-0.0010965084657073
-0.0041674906387925
-0.0071543660014867
-0.0098672322928905
-0.0121351238340139
-0.0138253336772322
-0.0148594267666339
-0.0152202453464269
-0.0149464281275868
-0.0141182597726583
-0.0128429373726248
-0.0112419985234737
-0.0094385147094726
-0.0075457426719367
-0.0056622480042278
-0.0038695514667779
-0.0022262765560299
-0.0007645792793482
0.0005077440291643
0.001603354816325
0.0025477039162069
0.0033683183137327
0.0040899398736655
0.0047388612292706
0.0053486968390643
0.0059579601511359
0.0066003301180899
0.0072964751161634
0.0080521609634161
0.0088597191497683
0.0096997395157814
0.0105449203401803
0.0113638425245881
0.0121202394366264
0.0127724846825003
0.0132776349782943
0.0135968942195177
0.0136975049972534
0.0135485483333468
0.0131146386265754
0.0123539213091135
0.011221507564187
0.0096780378371477
0.0077059026807546
0.0053284703753888
0.0026190532371401
-0.0003035725094377
-0.0032867116387933
-0.006160273682326
-0.0087549611926078
-0.0109171718358993
-0.0125241940841078
-0.0135025810450315
-0.0138390213251113
-0.0135751143097877
-0.0127941230311989
-0.0116073600947856
-0.0101392203941941
-0.0085133016109466
-0.0068427110090851
-0.0052228881977498
-0.0037269527092576
-0.0024034294765442
-0.0012741250684484
-0.0003349144244566
0.0004384779604151
0.001083341310732
0.0016421988839283
0.0021541367750614
0.0026497906073927
0.003150911303237
0.0036695441231131
0.0042081475257873
0.0047654593363404
0.0053431401029229
0.0059461575001478
0.0065771848894655
0.0072291535325348
0.0078834695741534
0.0085156913846731
0.0091001112014055
0.0096087399870157
0.0100074280053377
0.0102516543120145
0.0102841975167393
0.0100378636270761
0.009444173425436
0.0084454547613859
0.0070077329874038
0.0051313135772943
0.0028563728556036
0.0002652094699442
-0.0025191288441419
-0.005343610420823
-0.0080453073605895
-0.0104714594781398
-0.0124929975718259
-0.0140135781839489
-0.0149770639836788
-0.0153716746717691
-0.0152282211929559
-0.0146122658625245
-0.0136129045858979
-0.0123328091576695
-0.0108798509463667
-0.0093578686937689
-0.0078579727560281
-0.0064529096707701
-0.0051954435184597
-0.0041181878186762
-0.003231156617403
-0.0025199258234351
-0.0019487151876091
-0.0014676407445222
-0.001023409422487
-0.0005713265854865
-8.219177834689617e-05
0.0004576612263917
0.0010499273194
0.0016913341823965
0.0023798807524144
0.003113470505923
0.0038851844146847
0.0046820305287837
0.0054849768057465
0.0062676165252923
0.0069966968148946
0.0076355617493391
0.0081461640074849
0.0084882453083992
0.0086179990321397
0.0084879947826266
0.0080507081001997
0.007265209686011
0.0061051249504089
0.0045692329294979
0.0026919734664261
0.0005476066726259
-0.0017540490953251
-0.0040797931142151
-0.0062888185493648
-0.0082459077239036
-0.0098317330703139
-0.0109528424218297
-0.0115502960979938
-0.0116040576249361
-0.0111338719725608
-0.010198701173067
-0.0088915964588522
-0.0073282616212964
-0.0056334850378334
-0.0039270129054784
-0.0023101330734789
-0.0008571194484829
0.0003885859623551
0.0014137362595647
0.0022304721642285
0.0028714051004499
0.0033837005030363
0.0038205042947083
0.0042339828796684
0.0046706371940672
0.005166137125343
0.0057420651428401
0.0064062713645398
0.0071538789197802
0.007969269528985
0.0088294930756092
0.0097058191895484
0.0105649903416633
0.0113717513158917
0.012087432667613
0.0126649010926485
0.0130470395088195
0.0131700728088617
0.0129687367007136
0.0123823722824454
0.0113610615953803
0.0098732821643352
0.0079191131517291
0.0055454820394515
0.0028530748095363
-1.1475029168650508e-05
-0.0028745699673891
-0.0055570397526025
-0.0078942943364381
-0.0097543746232986
-0.0110506583005189
-0.0117470975965261
-0.0118547482416033
-0.0114221107214689
-0.0105255581438541
-0.0092609226703643
-0.0077353161759674
-0.006060098297894
-0.0043435664847493
-0.0026837971527129
-0.0011625044280663
0.0001624587457627
0.0012624080991372
0.0021355831995606
0.0028025845531374
0.0033042980358004
0.0036970232613384
0.0040419101715087
0.0043939240276813
0.0047945724800229
0.0052668177522718
0.0058115026913583
0.0064097638241946
0.0070320907980203
0.0076476647518575
0.0082304449751973
0.0087614944204688
0.0092251151800155
0.0096013685688376
0.0098606031388044
0.0099584804847836
0.0098323421552777
0.0094056390225887
0.0085994750261306
0.0073465285822749
0.0056055318564176
0.0033732685260474
0.0006918706931173
-0.0023485575802624
-0.0056134080514311
-0.0089354738593101
-0.0121310297399759
-0.0150134917348623
-0.0174094811081886
-0.019180679693818
-0.0202405415475368
-0.0205598268657922
-0.0201653074473142
-0.0191328004002571
-0.0175765845924615
-0.0156385824084281
-0.0134750921279191
-0.0112404795363545
-0.0090710613876581
-0.0070714158937335
-0.0053068562410771
-0.0038052748423069
-0.0025642421096563
-0.0015570388641208
-0.0007383267511613
-5.176282502361573e-05
0.0005631271051242
0.0011662812903523
0.0018107900395989
0.0025329531636089
0.0033449339680373
0.0042368061840534
0.0051861135289072
0.0061686406843364
0.007163826841861
0.0081524001434445
0.0091119389981031
0.0100128650665283
0.0108121680095791
0.0114477314054965
0.0118375662714242
0.0118844751268625
0.0114861074835062
0.0105486661195755
0.0090031158179044
0.0068257087841629
0.0040575675666332
0.0008117761462926
-0.0027356359641999
-0.0063664996996521
-0.0098475571721792
-0.0129582304507493
-0.0155133493244647
-0.0173773411661386
-0.0184719879180192
-0.018779307603836
-0.0183380544185638
-0.0172360874712467
-0.0156001858413219
-0.0135816344991326
-0.0113394809886813
-0.0090253818780183
-0.0067714918404817
-0.0046809688210487
-0.0028221430256962
-0.0012274014297872
0.0001055372413247
0.0012094848789274
0.0021370116155594
0.0029475179035216
0.0036992779932916
0.0044435034506022
0.0052174814045429
0.0060413479804992
0.0069206478074193
0.0078507382422685
0.0088200075551867
0.009811732918024
0.0108041372150182
0.0117710977792739
0.0126860067248344
0.0135243237018585
0.014260740019381
0.0148627962917089
0.0152821475639939
0.0154474144801497
0.0152680445462465
0.0146486889570951
0.0135057941079139
0.0117831388488411
0.0094659710302948
0.0065956674516201
0.0032805115915834
-0.0003092194674536
-0.0039612054824829
-0.0074461139738559
-0.0105445487424731
-0.0130719933658838
-0.0148940375074744
-0.0159327238798141
-0.0161698162555694
-0.0156465042382478
-0.0144569911062717
-0.0127372592687606
-0.0106497816741466
-0.0083639817312359
-0.0060379384085536
-0.0038064399268478
-0.0017734826542437
-7.970025762915611e-06
0.0014574321685358
0.0026241932064294
0.0035210594069212
0.0041952561587095
0.0047043026424944
0.0051081385463476
0.0054644919000566
0.0058261575177311
0.0062354551628232
0.0067207254469394
0.0072984378784894
0.0079723643139004
0.0087275393307209
0.0095302956178784
0.0103384489193558
0.0111111793667078
0.011811695061624
0.0124066052958369
0.012863015756011
0.0131398290395736
0.0131779396906495
0.0128999417647719
0.0122215589508414
0.0110670812427997
0.0093828979879617
0.0071505019441246
0.0044014188461005
0.0012289937585592
-0.0022118450142443
-0.0057199830189347
-0.0090766567736864
-0.0120779499411582
-0.0145578635856509
-0.0164003148674964
-0.0175455082207918
-0.0179890841245651
-0.0177745539695024
-0.0169855821877717
-0.0157374665141105
-0.0141641814261674
-0.0124050360172986
-0.0105924718081951
-0.0088401017710566
-0.0072353743016719
-0.0058351238258183
-0.0046612722799181
-0.0037029839586466
-0.0029251486994326
-0.0022782331798225
-0.0017099679680541
-0.001174816628918
-0.0006370350602082
-7.040383934509009e-05
0.0005437439540401
0.0012181521160528
0.0019593157339841
0.0027676848694682
0.0036364491097629
0.004548626486212
0.0054775634780526
0.0063897087238729
0.0072471434250473
0.0080087250098586
0.0086251888424158
0.009031324647367
0.0091461278498172
0.0088838022202253
0.0081714810803532
0.0069683576002717
0.0052786068990826
0.0031554268207401
0.0006998078897595
-0.0019463982898741
-0.0046167364344
-0.0071411039680242
-0.0093606142327189
-0.0111362366005778
-0.0123585276305675
-0.0129582565277814
-0.0129146669059991
-0.012257314287126
-0.0110596939921379
-0.0094304317608475
-0.0075043304823338
-0.0054299389012157
-0.0033530481159687
-0.00140125839971
0.0003252499154768
0.0017609687056392
0.0028826892375946
0.0037088592071086
0.004287957213819
0.0046854992397129
0.0049749254249036
0.0052287243306636
0.0055100005120038
0.0058669401332736
0.0063279648311436
0.0068979207426309
0.0075595988892018
0.0082807829603552
0.0090233143419027
0.0097501808777451
0.0104259774088859
0.0110109960660338
