bvp
-0.3298172354698181
-0.3185663521289825
-0.3061539232730865
-0.2926879525184631
-0.2782841026782989
-0.2630667686462402
-0.2471654117107391
-0.2307108789682388
-0.2138370275497436
-0.1966854333877563
-0.1794057488441467
-0.1621477901935577
-0.1450490653514862
-0.1282224804162979
-0.1117475628852844
-0.0956689715385437
-0.0800045281648635
-0.0647585168480873
-0.0499334260821342
-0.0355388149619102
-0.0215977057814598
-0.0081478506326675
0.0047626178711652
0.0170802492648363
0.0287480074912309
0.0397054851055145
0.0498929843306541
0.0592621639370918
0.0677889510989189
0.0754822865128517
0.0823863372206687
0.0885766148567199
0.0941510573029518
0.0992190763354301
0.1038921475410461
0.1082762777805328
0.112464427947998
0.1165293604135513
0.1205189600586891
0.1244538873434066
0.1283269375562667
0.1321044117212295
0.135731890797615
0.1391454339027404
0.1422846019268036
0.145102709531784
0.1475729644298553
0.1496910899877548
0.1514741778373718
0.1529565751552581
0.1541862785816192
0.1552223414182663
0.1561286747455597
0.156963437795639
0.1577695608139038
0.1585696339607238
0.1593626737594604
0.1601190567016601
0.1607745438814163
0.1612297892570495
0.1613560169935226
0.1610005795955658
0.1599919497966766
0.1581515669822693
0.1553140133619308
0.1513467580080032
0.1461605429649353
0.1397064626216888
0.1319615840911865
0.1229164376854896
0.1125866472721099
0.1010627895593643
0.0885716527700424
0.0754913091659545
0.0623003169894218
0.0494975671172142
0.0375292301177978
0.0267367362976074
0.0173320025205612
0.0093979015946388
0.0029041320085525
-0.0022685229778289
-0.0062971115112304
-0.0093821212649345
-0.0117170289158821
-0.0134677588939666
-0.0147637352347373
-0.0156980007886886
-0.0163316056132316
-0.0166980326175689
-0.0168070644140243
-0.0166497603058815
-0.0162034630775451
-0.0154363214969635
-0.0143143311142921
-0.0128120854496955
-0.010925143957138
-0.0086830556392669
-0.0061649456620216
-0.003513365983963
-0.0009313523769378
0.0013486966490745
0.0031176060438156
0.0042425543069839
0.0046999007463455
0.0045783668756484
0.0040559768676757
0.0033618882298469
0.0027360096573829
0.0023965910077095
0.0025202184915542
0.0032315179705619
0.0045970603823661
0.0066226869821548
0.0092566981911659
0.0123990699648857
0.015912726521492
0.0196330323815345
0.0233753025531768
0.026942141354084
0.0301329307258129
0.0327608622610569
0.0346840992569923
0.0358462184667587
0.0363051071763038
0.0362304076552391
0.0358664579689502
0.0354760214686393
0.035288318991661
0.0354681089520454
0.0361074730753898
0.0372318029403686
0.0388106852769851
0.0407690145075321
0.042997021228075
0.0453612618148326
0.0477177128195762
0.0499237440526485
0.0518488027155399
0.0533856749534606
0.0544587150216102
0.0550253540277481
0.0550729185342788
0.0546130649745464
0.0536744892597198
0.0522962212562561
0.0505239889025688
0.0484084784984588
0.04600265994668
0.0433584079146385
0.0405245460569858
0.03754573315382
0.0344602428376674
0.0312956534326076
0.0280649401247501
0.0247659850865602
0.0213823541998863
0.0178824607282876
0.0142196752130985
0.0103375241160392
0.0061802007257938
0.0017054677009582
-0.0031025223433971
-0.0082232244312763
-0.0135961733758449
-0.019124936312437
-0.0246873348951339
-0.0301503017544746
-0.0353857725858688
-0.0402837768197059
-0.0447613969445228
-0.048767551779747
-0.0522841177880764
-0.0553252249956131
-0.0579377934336662
-0.0602079667150974
-0.0622771792113781
-0.0643620565533638
-0.0667577683925628
-0.0698072537779808
-0.0738419145345687
-0.0791133567690849
-0.0857326239347457
-0.0936301201581955
-0.1025460436940193
-0.1120520830154419
-0.1215980648994445
-0.1305755674839019
-0.1383887827396392
-0.144520491361618
-0.1485833376646042
-0.1503520756959915
-0.1497753709554672
-0.1469667702913284
-0.1421756148338318
-0.1357424855232238
-0.1280487179756164
-0.1194704845547676
-0.1103434264659881
-0.100939854979515
-0.0914586037397384
-0.0820255652070045
-0.0727020800113678
-0.0634994208812713
-0.0543980486690998
-0.0453687347471714
-0.0363909937441349
-0.0274662300944328
-0.0186252631247043
-0.0099285766482353
-0.0014582071453332
0.0066951923072338
0.0144446324557065
0.0217151716351509
0.0284471716731786
0.0345943309366703
0.0401177071034908
0.0449790693819522
0.0491389259696006
0.0525617897510528
0.0552244484424591
0.0571241527795791
0.0582883730530738
0.0587843060493469
0.0587216913700103
0.0582461953163147
0.0575258880853652
0.0567327365279197
0.056020151823759
0.0555010922253131
0.0552330017089843
0.055213563144207
0.0553873851895332
0.0556602478027343
0.0559189431369304
0.0560546815395355
0.0559832714498043
0.055656112730503
0.0550625026226043
0.0542239658534526
0.053181380033493
0.0519803687930107
0.0506600216031074
0.0492460653185844
0.0477496720850467
0.0461707636713981
0.0445013791322708
0.0427287817001342
0.0408408269286155
0.0388309657573699
0.0366980358958244
0.0344366207718849
0.0320138186216354
0.029337927699089
0.0262373480945825
0.0224670693278312
0.0177471917122602
0.0118239345028996
0.0045361928641796
-0.0041290111839771
-0.0140051525086164
-0.0247470494359731
-0.0358648858964443
-0.0467815734446048
-0.0568971708416938
-0.0656513422727584
-0.0725791901350021
-0.0773524045944213
-0.0798024535179138
-0.0799272581934928
-0.077880322933197
-0.0739429369568824
-0.068484216928482
-0.0619163960218429
-0.0546512901782989
-0.0470597073435783
-0.0394372157752513
-0.0319836735725402
-0.0248011425137519
-0.0179068017750978
-0.0112548787146806
-0.0047642160207033
0.0016531739383935
0.0080693271011114
0.0145265273749828
0.0210308544337749
0.0275510307401418
0.0340227372944355
0.0403569564223289
0.046447716653347
0.0521765798330307
0.0574134662747383
0.0620109438896179
0.0657906457781791
0.0685320049524307
0.0699807927012443
0.069885142147541
0.0680510550737381
0.0643999129533767
0.0590104386210441
0.0521342083811759
0.0441813617944717
0.035678893327713
0.0272102747112512
0.0193491503596305
0.0125980619341135
0.0073380973190069
0.0037951492704451
0.0020290806423872
0.0019464811775833
0.0033316588960587
0.0058882478624582
0.0092826429754495
0.0131815196946263
0.0172799210995435
0.0213208496570587
0.0251072142273187
0.0285049900412559
0.031437449157238
0.0338728167116642
0.0358099117875099
0.0372638963162899
0.0382529348134994
0.0387900546193122
0.038881991058588
0.0385311096906662
0.0377387255430221
0.0365093126893043
0.0348502770066261
0.0327604599297046
0.0302026383578777
0.0270633473992347
0.0231226049363613
0.0180626921355724
0.0115232206881046
0.0031851828098297
-0.0071401745080947
-0.0194407887756824
-0.0334697067737579
-0.0487537309527397
-0.0646391436457634
-0.0803624987602233
-0.0951326787471771
-0.1082135215401649
-0.118998572230339
-0.1270672976970672
-0.1322138905525207
-0.1344472467899322
-0.1339646875858307
-0.1311065554618835
-0.1263056695461273
-0.1200405955314636
-0.1127906590700149
-0.1049926280975341
-0.0970053374767303
-0.0890864580869674
-0.0813837945461273
-0.0739431232213974
-0.0667303502559661
-0.0596612840890884
-0.0526308268308639
-0.0455344803631305
-0.0382828898727893
-0.0308144502341747
-0.0231050066649913
-0.0151694361120462
-0.0070549771189689
0.0011661071330308
0.009394621476531
0.0174884106963872
0.0252381917089223
0.0323524475097656
0.0384692288935184
0.0431991294026374
0.0461896061897277
0.0471940860152244
0.0461255088448524
0.0430803932249546
0.0383349955081939
0.0323212631046772
0.0255857594311237
0.0187331847846508
0.0123600512742996
0.006988488137722
0.0030125603079795
0.0006685145199298
3.2786279916763306e-05
0.0010399892926216
0.003508910536766
0.0071703717112541
0.0116980671882629
0.0167444162070751
0.0219783205538988
0.027117270976305
0.0319465696811676
0.0363241024315357
0.0401749648153781
0.0434825867414474
0.0462808646261692
0.0486465096473693
0.050688412040472
0.0525330938398838
0.054308108985424
0.0561272762715816
0.05808025598526
0.0602253302931785
0.0625845864415168
0.0651430413126945
0.067851148545742
0.0706247389316558
0.073336511850357
0.0758010670542717
0.0777652338147163
0.0789178982377052
0.0789256170392036
0.0774883702397346
0.0744010508060455
0.0696033611893653
0.0632032081484794
0.0554689466953277
0.0467976965010166
0.037670899182558
0.0286065153777599
0.0201113894581794
0.0126348044723272
0.0065278550609946
0.0020137950778007
-0.0008267499506473
-0.0020535448566079
-0.0018497854471206
-0.000494822859764
0.0016708243638277
0.0042849797755479
0.0070014465600252
0.0095210410654544
0.0116180516779422
0.0131625477224588
0.0141289345920085
0.0145823992788791
0.0146490782499313
0.0144823230803012
0.0142316557466983
0.0140170194208621
0.0139119327068328
0.0139361694455146
0.0140550397336483
0.0141840688884258
0.014201384037733
0.0139665678143501
0.0133363083004951
0.0121671110391616
0.0103077441453933
0.007595956325531
0.0038710311055183
-0.0009984150528907
-0.0070795118808746
-0.0143448002636432
-0.0226564109325408
-0.0317669957876205
-0.0413371063768863
-0.0509695522487163
-0.0602568350732326
-0.068832166492939
-0.0764104127883911
-0.0828077793121337
-0.0879407301545143
-0.0918154120445251
-0.0945237278938293
-0.0962537974119186
-0.0973004177212715
-0.0980512350797653
-0.0989346429705619
-0.1003353148698806
-0.1025056540966034
-0.1055023074150085
-0.1091603338718414
-0.1131107360124588
-0.1168399900197982
-0.1197770610451698
-0.1213856637477874
-0.1212430000305175
-0.1190934404730796
-0.1148709058761596
-0.1086897850036621
-0.100810632109642
-0.0915918722748756
-0.0814382284879684
-0.070752277970314
-0.0598950013518333
-0.0491605252027511
-0.0387703627347946
-0.0288900211453437
-0.0196585841476917
-0.0112154344096779
-0.0037137949839234
0.0026830844581127
0.0078227762132883
0.011595201678574
0.0139647992327809
0.0149960396811366
0.0148691749200224
0.013880955055356
0.0124213248491287
0.0109267421066761
0.0098250266164541
0.0094865411520004
0.0101888589560985
0.0120939239859581
0.0152361970394849
0.0195290371775627
0.0247920975089073
0.0307880714535713
0.0372543931007385
0.0439263805747032
0.0505560263991355
0.056927639991045
0.0628708079457283
0.0682703480124473
0.0730678141117096
0.0772527307271957
0.0808505788445472
0.0839123725891113
0.0865030586719513
0.0886901319026947
0.0905358865857124
0.0920893251895904
0.0933767110109329
0.0943976938724517
0.0951319634914398
0.0955534726381301
0.0956428796052932
0.0953913033008575
0.0947941690683364
0.0938346087932586
0.0924622789025306
0.0905804857611656
0.0880500376224517
0.0847108662128448
0.0804162621498107
0.0750702247023582
0.0686590149998664
0.0612703897058963
0.0530977435410022
0.0444284155964851
0.0356156788766384
0.0270380396395921
0.0190574713051319
0.0119862146675586
0.0060597630217671
0.0014136843383312
-0.0019290838390588
-0.0040592765435576
-0.005178733728826
-0.0055950060486793
-0.0057010017335414
-0.0059287948533892
-0.0066838897764682
-0.0082812309265136
-0.0109037160873413
-0.0145924864336848
-0.0192628242075443
-0.0247295033186674
-0.0307328961789608
-0.0369710214436054
-0.043137103319168
-0.0489499121904373
-0.0541717112064361
-0.0586179085075855
-0.0621580556035041
-0.0647089332342147
-0.0662271231412887
-0.0667050778865814
-0.0661674886941909
-0.0646679177880287
-0.0622937828302383
-0.0591822974383831
-0.0555356219410896
-0.0516178756952285
-0.0477261878550052
-0.0441451855003833
-0.0411025285720825
-0.038735669106245
-0.0370725356042385
-0.0360295437276363
-0.0354311056435108
-0.0350454933941364
-0.0346220880746841
-0.0339223220944404
-0.0327460095286369
-0.030950404703617
-0.0284580215811729
-0.0252567213028669
-0.0213969070464372
-0.016985461115837
-0.0121737103909254
-0.0071395230479538
-0.0020667735952883
0.0028740740381181
0.0075410683639347
0.0118285277858376
0.0156675968319177
0.0190250743180513
0.0219029653817415
0.0243335478007793
0.0263678450137376
0.0280625019222497
0.0294692907482385
0.0306287501007318
0.0315682142972946
0.0323026031255722
0.0328364968299865
0.0331684201955795
0.0332970060408115
0.0332253016531467
0.0329632833600044
0.0325288027524948
0.0319391340017318
0.0311900153756141
0.0302345864474773
0.028976397588849
0.027280107140541
0.0249962601810693
0.0219923015683889
0.0181829370558261
0.0135548310354352
0.0081797642633318
0.0022146925330162
-0.0041099218651652
-0.0105132684111595
-0.0166939534246921
-0.0223586559295654
-0.0272468477487564
-0.0311514213681221
-0.033935397863388
-0.0355439707636833
-0.0360079854726791
-0.0354361273348331
-0.0339970216155052
-0.031895238906145
-0.029347501695156
-0.026562999933958
-0.0237261727452278
-0.0209810603410005
-0.018422458320856
-0.0160975866019725
-0.0140126254409551
-0.0121397450566291
-0.0104278130456805
-0.0088157998397946
-0.0072434041649103
-0.0056582572869956
-0.0040226005949079
-0.0023195380344986
-0.0005543598672375
0.0012514262925833
0.0030675118323415
0.0048558353446424
0.0065630190074443
0.0081078931689262
0.0093743875622749
0.0102198850363492
0.0104975178837776
0.0100837294012308
0.0089042074978351
0.0069542145356535
0.0043111536651849
0.0011353822192177
-0.0023446083068847
-0.0058593642897903
-0.0091308336704969
-0.01190304197371
-0.0139650600031018
-0.0151659864932298
-0.0154257016256451
-0.0147423082962632
-0.0131922550499439
-0.0109186992049217
-0.0081092063337564
-0.0049685598351061
-0.0016937390901148
0.0015435880050063
0.0046055046841502
0.0073914718814194
0.0098434342071414
0.0119497627019882
0.0137390308082103
0.0152648901566863
0.0165918730199337
0.0177841763943433
0.0188955813646316
0.0199641585350036
0.0210121013224124
0.0220462866127491
0.0230593681335449
0.0240330677479505
0.0249431058764457
0.0257625430822372
0.0264577306807041
0.0269768945872783
0.0272393710911273
0.0271324999630451
0.0265187602490186
0.0252535846084356
0.0232111420482397
0.0203122049570083
0.0165479891002178
0.0119945555925369
0.0068149510771036
0.0012487103231251
-0.0044113858602941
-0.0098521513864398
-0.0147743895649909
-0.018920948728919
-0.0220968760550022
-0.024183114990592
-0.0251439716666936
-0.0250274315476417
-0.0239551365375518
-0.0221036300063133
-0.0196840111166238
-0.0169215556234121
-0.0140334703028202
-0.0112063512206077
-0.0085778087377548
-0.006228070706129
-0.004183355718851
-0.0024278061464428
-0.0009183814981952
0.0004024971276521
0.001596835674718
0.0027228379622101
0.0038300636224448
0.0049577001482248
0.0061338981613516
0.0073747974820435
0.0086838044226169
0.0100507345050573
0.0114491945132613
0.0128330597653985
0.0141315991058945
0.0152424611151218
0.0160288084298372
0.0163271259516477
0.0159656815230846
0.0147920195013284
0.0127040771767497
0.0096745211631059
0.0057628429494798
0.0011172834783792
-0.0040320036932826
-0.0093918535858392
-0.0146363228559494
-0.0194391421973705
-0.0235039014369249
-0.0265940371900796
-0.0285570006817579
-0.0293340478092432
-0.0289568789303302
-0.0275367423892021
-0.0252487305551767
-0.0223109759390354
-0.0189593434333801
-0.0154225239530205
-0.0119026098400354
-0.0085612861439585
-0.0055097737349569
-0.0028042406775057
-0.0004509368445724
0.0015798051608726
0.0033388026058673
0.0048883729614317
0.0062951780855655
0.0076229330152273
0.0089265536516904
0.0102469567209482
0.0116056026890873
0.0130027551203966
0.0144215188920497
0.0158333629369735
0.017201229929924
0.0184784438461065
0.0196002013981342
0.0204701460897922
0.0209537968039512
0.0208883192390203
0.020107626914978
0.0184730980545282
0.0159006770700216
0.0123826153576374
0.008003169670701
0.0029436605982482
-0.0025289421901106
-0.0080903144553303
-0.0133953429758548
-0.0181141309440135
-0.0219638217240571
-0.0247345529496669
-0.0263075102120637
-0.0266616232693195
-0.025866862386465
-0.0240686107426881
-0.021469596773386
-0.0183094423264265
-0.014839231967926
-0.0112938163802027
-0.0078681837767362
-0.0047024860978126
-0.0018778655212372
0.0005777096375823
0.0026788813993334
0.004472576547414
0.0060278223827481
0.0074238218367099
0.0087365871295332
0.010028276592493
0.0113419834524393
0.0126990936696529
0.014098591171205
0.0155211118981242
0.0169359128922224
0.0183063503354787
0.019594345241785
0.0207638405263423
0.0217762179672718
0.0225760638713836
0.0230775419622659
0.0231595784425735
0.0226728525012731
0.0214618053287267
0.0193981062620878
0.0164133459329605
0.0125230904668569
0.0078402645885944
0.0025729737244546
-0.0029965066350996
-0.0085442261770367
-0.0137385688722133
-0.018272366374731
-0.0218916311860084
-0.0244195107370615
-0.0257715210318565
-0.0259564071893692
-0.0250660590827465
-0.0232613086700439
-0.0207532960921525
-0.0177802648395299
-0.0145831424742937
-0.0113820303231477
-0.0083571029826998
-0.0056375483982264
-0.0032970479223877
-0.0013542055385187
0.0002203302574343
0.0014897106448188
0.0025332316290587
0.0034327420871704
0.0042666154913604
0.0051043769344687
0.0059987716376781
0.0069820280186831
0.0080673303455114
0.0092492150142788
0.0105036348104476
0.0117914071306586
0.0130579806864261
0.0142224496230483
0.0151653131470084
0.0157292988151311
0.0157368425279855
0.015018967911601
0.0134465983137488
0.0109584452584385
0.0075828256085515
0.0034463419578969
-0.0012350776232779
-0.0061796037480235
-0.0110718086361885
-0.0155963450670242
-0.0194670148193836
-0.0224512331187725
-0.0243909675627946
-0.0252161268144845
-0.0249465033411979
-0.0236841775476932
-0.0215971935540437
-0.018895223736763
-0.0158041547983884
-0.0125451581552624
-0.009317422285676
-0.0062832743860781
-0.0035560044925659
-0.0011931343469768
0.0007990113226696
0.0024509674403816
0.003817293792963
0.00496959220618
0.0059886588715016
0.0069529204629361
0.0079274782910943
0.0089564342051744
0.0100599015131592
0.0112368855625391
0.0124706290662288
0.0137313352897763
0.0149776004254817
0.016159888356924
0.0172204859554767
0.0180835146456956
0.0186424516141414
0.0187595300376415
0.0182816050946712
0.0170660503208637
0.0150077426806092
0.0120621882379055
0.0082654971629381
0.0037463204935193
-0.001281090080738
-0.0065399459563195
-0.0117193013429641
-0.016505841165781
-0.0206171907484531
-0.0238289330154657
-0.0259905382990837
-0.0270321276038885
-0.0269656348973512
-0.0258808173239231
-0.0239337682723999
-0.0213270634412765
-0.0182852521538734
-0.0150300245732069
-0.0117582809180021
-0.0086282342672348
-0.0057543669827282
-0.0032056006602942
-0.0010050367563962
0.0008648098446428
0.0024509928189218
0.0038178414106369
0.0050364467315375
0.0061760116368532
0.0072963992133736
0.0084414733573794
0.0096342591568827
0.0108758248388767
0.012148231267929
0.013421487994492
0.0146627901121974
0.0158410295844078
0.0169200133532285
0.0178426057100296
0.0185164101421833
0.0188117641955614
0.0185748394578695
0.0176518876105546
0.0159193389117717
0.013313403353095
0.0098509471863508
0.0056360755115747
0.0008544402662664
-0.0042407289147377
-0.0093517005443573
-0.014168344438076
-0.0184011682868003
-0.0218075960874557
-0.0242125354707241
-0.025522843003273
-0.0257325284183025
-0.0249200873076915
-0.0232357755303382
-0.0208757221698761
-0.0180516447871923
-0.0149689493700861
-0.0118145700544118
-0.0087462561205029
-0.0058812173083424
-0.0032907994464039
-0.001003323122859
0.000988038489595
0.002714795526117
0.0042241108603775
0.0055729448795318
0.0068211555480957
0.0080225821584463
0.009219067171216
0.0104389917105436
0.0116974199190735
0.0129966232925653
0.014327248558402
0.0156694054603576
0.0169947147369384
0.0182694774121046
0.0194520018994808
0.0204795990139246
0.021255312487483
0.0216479133814573
0.0215060748159885
0.0206809695810079
0.019053429365158
0.0165608283132314
0.0132185006514191
0.0091308569535613
0.0044868942350149
-0.000460366718471
-0.0054229823872447
-0.0101054022088646
-0.0142269311472773
-0.017546534538269
-0.0198909789323806
-0.0211732704192399
-0.0213939286768436
-0.0206306185573339
-0.0190224852412939
-0.0167523864656686
-0.0140285361558198
-0.0110651468858122
-0.0080632576718926
-0.0051940325647592
-0.0025854848790913
-0.0003151007695123
0.0015890954528003
0.0031416993588209
0.0043907770887017
0.0054056635126471
0.0062634367495775
0.0070378556847572
0.0077888472005724
0.0085527570918202
0.0093417055904865
0.0101536363363265
0.0109817236661911
0.0118162920698523
0.0126443533226847
0.0134506104514002
0.0142167564481496
0.0149164916947484
0.0155082894489169
0.0159276779741048
0.0160819254815578
0.0158538371324539
0.0151167996227741
0.0137563282623887
0.0116932904347777
0.0089046033099293
0.0054367771372199
0.0014097113162279
-0.0029901075176894
-0.0075271902605891
-0.0119413519278168
-0.0159737430512905
-0.019393254071474
-0.022019688040018
-0.0237393826246261
-0.0245119854807853
-0.0243696682155132
-0.0234128646552562
-0.0217998269945383
-0.0197230037301778
-0.0173793826252222
-0.0149491894990205
-0.0125844422727823
-0.0103998808190226
-0.0084651643410325
-0.006803975906223
-0.0054011563770473
-0.0042134979739785
-0.0031813932582736
-0.0022410012315958
-0.0013353782705962
-0.000420983065851
0.0005318436305969
0.0015415740199387
0.0026171500794589
0.0037567212712019
0.0049463026225566
0.0061623658984899
0.0073774843476712
0.0085617452859878
0.0096728289499878
0.0106412414461374
0.0113647263497114
0.0117159597575664
0.0115617606788873
0.0107890022918581
0.0093270577490329
0.0071627493016421
0.0043507828377187
0.001017871312797
-0.0026440871879458
-0.00639617908746
-0.0099802855402231
-0.0131523180752992
-0.0157112497836351
-0.0175159834325313
-0.0184922274202108
-0.0186345409601926
-0.0180019065737724
-0.0167055614292621
-0.014893521554768
-0.0127334902063012
-0.0103933541104197
-0.0080233104526996
-0.0057443999685347
-0.0036437555681914
-0.0017735678702592
-0.0001513783354312
0.001237857970409
0.002435506787151
0.0034974154550582
0.00447987485677
0.0054290504194796
0.0063770585693418
0.0073425276204943
0.0083316303789615
0.0093414708971977
0.0103653389960527
0.0113931521773338
0.0124088544398546
0.0133908521384
0.0143135664984583
0.0151482131332159
0.0158623810857534
0.0164141207933425
0.0167410671710968
0.0167532749474048
0.0163388215005397
0.0153842028230428
0.0138001888990402
0.0115416962653398
0.0086199073120951
0.0051082735881209
0.0011417001951485
-0.003091279650107
-0.0073646260425448
-0.0114386174827814
-0.0150847909972071
-0.0181070491671562
-0.0203585848212242
-0.0217536073178052
-0.0222724061459302
-0.0219594817608594
-0.0209144316613674
-0.0192757043987512
-0.0172010716050863
-0.0148510998114943
-0.0123766912147402
-0.0099077653139829
-0.0075444490648806
-0.0053531904704868
-0.0033651259727776
-0.0015768776647746
4.0432438254356384e-05
0.0015263324603438
0.002919738413766
0.0042526884935796
0.0055464510805904
0.0068120090290904
0.0080544799566268
0.0092760594561696
0.0104753393679857
0.0116473268717527
0.0127862570807337
0.0138858817517757
0.0149369370192289
0.0159273575991392
0.0168417003005743
0.0176523476839065
0.0183056201785802
0.018713716417551
0.0187596660107374
0.0183144863694906
0.017262477427721
0.0155272828415036
0.0130888642743229
0.0099906325340271
0.0063420515507459
0.0023145538289099
-0.0018734786426648
-0.0059798015281558
-0.0097639728337526
-0.0130120869725942
-0.0155569287016987
-0.0172906760126352
-0.0181707330048084
-0.0182194095104932
-0.0175162069499492
-0.016182666644454
-0.0143641391769051
-0.0122151728719472
-0.0098899807780981
-0.0075328527018427
-0.0052654296159744
-0.0031751806382089
-0.0013116828631609
0.0003084454219788
0.0016938984626904
0.0028734076768159
0.003889744868502
0.0047909626737236
0.0056241955608129
0.006432550959289
0.0072510382160544
0.0081021189689636
0.0089931525290012
0.0099166566506028
0.0108520556241273
0.0117685012519359
0.0126317031681537
0.0134124644100666
0.0140906814485788
0.0146513506770133
0.0150730498135089
0.015316080302
0.0153172248974442
0.0149915423244237
0.0142416451126337
0.0129752662032842
0.011127270758152
0.0086796209216117
0.0056727826595306
0.0022052833810448
-0.0015744413249194
-0.0054799080826342
-0.0093042738735675
-0.0128430426120758
-0.0159141756594181
-0.0183716043829917
-0.0201157424598932
-0.0211020708084106
-0.0213444307446479
-0.020911319181323
-0.0199139639735221
-0.0184890665113925
-0.0167832635343074
-0.0149397831410169
-0.0130848009139299
-0.0113158812746405
-0.0096951937302947
-0.0082487249746918
-0.0069736829027533
-0.0058518219739198
-0.0048583028838038
-0.0039624134078621
-0.0031286552548408
-0.0023217292036861
-0.0015108350198715
-0.0006709496956318
0.0002178128052037
0.0011706065852195
0.0021965568885207
0.0032960479147732
0.0044579659588634
0.0056592696346342
0.006866106763482
0.00803236477077
0.0090961642563343
0.0099771535024046
0.0105760470032691
0.0107800997793674
0.0104773566126823
0.0095781106501817
0.008038037456572
0.0058742286637425
0.0031681668478995
5.783955566585064e-05
-0.0032756102737039
-0.0066250204108655
-0.0097776548936963
-0.0125364391133189
-0.0147392330691218
-0.0162736289203166
-0.0170854106545448
-0.0171803012490272
-0.0166180822998285
-0.0154979173094034
-0.0139398053288459
-0.0120714213699102
-0.0100209303200244
-0.0079089188948273
-0.0058378539979457
-0.0038831948768347
-0.0020903381519019
-0.000479289330542
0.0009486665949225
0.0022099015768617
0.0033371623139828
0.0043701296672225
0.005343772470951
0.0062821619212627
0.0071989232674241
0.0081012714654207
0.0089917462319135
0.009867051616311
0.0107181221246719
0.0115313455462455
0.0122892167419195
0.0129720875993371
0.0135622201487421
0.0140478145331144
0.0144230648875236
0.0146796498447656
0.014790741726756
0.0146992513909935
0.0143213253468275
0.0135643454268574
0.0123506570234894
0.0106373066082596
0.0084260618314147
0.0057656872086226
0.0027506242040544
-0.0004847549134865
-0.0037772848736494
-0.0069497660733759
-0.0098286541178822
-0.0122626284137368
-0.0141364065930247
-0.0153776882216334
-0.0159607753157615
-0.0159064177423715
-0.0152739752084016
-0.0141494572162628
-0.0126366624608635
-0.0108508327975869
-0.0089092031121253
-0.0069191716611385
-0.0049700723029673
-0.0031299861147999
-0.001443984452635
6.734300404787064e-05
0.0014059494715183
0.0025892802514135
0.003641293849796
0.0045872400514781
0.0054532401263713
0.006266585085541
0.0070549780502915
0.0078439284116029
0.008651154115796
0.0094819292426109
0.0103313783183693
0.0111908596009016
0.0120496340095996
0.0128931812942028
0.0137032233178615
0.014454023912549
0.0151020567864179
0.0155778182670474
0.0157875660806894
0.0156233254820108
0.0149769987910985
0.0137590598315
0.0119204651564359
0.0094691887497901
0.0064745307900011
0.0030612042173743
-0.000601647188887
-0.0043157488107681
-0.0078743463382124
-0.0110843377187848
-0.0137828737497329
-0.0158478170633316
-0.0172075778245925
-0.0178488865494728
-0.0178137850016355
-0.0171852093189954
-0.0160718169063329
-0.0145978815853595
-0.0128939310088753
-0.0110857859253883
-0.0092830909416079
-0.0075689759105443
-0.0059955511242151
-0.0045872004702687
-0.0033467351458966
-0.0022608304861932
-0.0013052328722551
-0.000448185193818
0.0003473750839475
0.0011181575246155
0.0018928132485598
0.0026882777456194
0.0035112309269607
0.0043607726693153
0.0052297934889793
0.0061063906177878
0.0069771320559084
0.0078309224918484
0.0086591513827443
0.0094482619315385
0.0101657509803771
0.0107484115287661
0.0111017422750592
0.0111091900616884
0.0106467492878437
0.0096035469323396
0.0079087819904088
0.0055564674548804
0.0026133777573704
-0.0007919464260339
-0.0044864490628242
-0.0082691954448819
-0.0119299348443746
-0.0152693316340446
-0.0181182511150836
-0.0203533731400966
-0.021904744207859
-0.0227541476488113
-0.0229278784245252
-0.0224880557507276
-0.0215248055756092
-0.0201479457318782
-0.0184757523238658
-0.0166219156235456
-0.0146848130971193
-0.0127409305423498
-0.0108406944200396
-0.0090074064210057
-0.0072423196397721
-0.0055341874249279
-0.0038690827786922
-0.0022383639588952
-0.0006426023319363
0.0009088269434869
0.0024004483129829
0.0038166011217981
0.0051494371145963
0.0064011081121861
0.0075774947181344
0.0086815692484378
0.0097129298374056
0.0106718214228749
0.0115617457777261
0.0123843913897871
0.0131283476948738
0.0137614794075489
0.0142301591113209
0.0144624840468168
0.0143774850293993
0.0139006022363901
0.0129804797470569
0.0116040902212262
0.0098090376704931
0.0076886964961886
0.0053863376379013
0.0030808527953922
0.0009673649910837
-0.0007655243389308
-0.0019580172374844
-0.0024961996823549
-0.0023209978826344
-0.0014312034472823
0.0001169475726783
0.0022170932497829
0.0047281025908887
0.0074910232797265
0.0103429118171334
0.0131288040429353
0.0157123543322086
0.0179824084043502
0.0198553465306758
0.0212769713252782
0.0222246181219816
0.0227087792009115
0.0227749366313219
0.0225012581795454
0.0219887122511863
0.0213469564914703
0.0206803549081087
0.0200788527727127
0.0196139365434646
0.019333641976118
0.0192554965615272
0.0193631127476692
0.0196093134582042
0.0199231244623661
0.0202155001461505
0.0203794799745082
0.0202869828790426
0.0197914950549602
0.0187434926629066
0.017017088830471
0.014540746808052
0.0113186966627836
0.0074322018772363
0.0030255820602178
-0.0017150696367025
-0.0065892152488231
-0.0114092780277132
-0.0160170011222362
-0.0202802084386348
-0.0240744892507791
-0.0272678956389427
-0.0297220144420862
-0.0313085839152336
-0.0319307222962379
-0.0315356366336345
-0.0301170647144317
-0.027717376127839
-0.0244328361004591
-0.0204162653535604
-0.0158731304109096
-0.0110474834218621
-0.0061951130628585
-0.0015481617301702
0.002720471471548
0.0065241325646638
0.0098717845976352
0.0128528904169797
0.0155996270477771
0.0182396620512008
0.0208553001284599
0.0234601367264986
0.0259978547692298
0.0283571109175682
0.0303909517824649
0.0319368951022625
0.0328392162919044
0.0329712182283401
0.0322528779506683
0.0306606777012348
0.028226975351572
0.0250266753137111
0.02115373685956
0.0166980288922786
0.0117313638329505
0.0063030794262886
0.0004432648420333
-0.0058274120092391
-0.012483213096857
-0.0194777026772499
-0.0267321821302175
-0.0341317355632782
-0.0415298640727996
-0.048758789896965
-0.0556365996599197
-0.0619676001369953
-0.0675419941544532
-0.0721426233649253
-0.0755655318498611
-0.0776524022221565
-0.0783198103308677
-0.07757119089365
-0.0754887983202934
-0.0722121000289917
-0.0679197162389755
-0.062829852104187
-0.0572067946195602
-0.0513474643230438
-0.0455460995435714
-0.0400569699704647
-0.035073384642601
-0.0307266730815172
-0.0270932577550411
-0.024196270853281
-0.0220004618167877
-0.0204091668128967
-0.0192738808691501
-0.0184209682047367
-0.0176866315305233
-0.0169447734951972
-0.016118012368679
-0.0151698663830757
-0.0140851251780986
-0.0128473453223705
-0.0114171328023076
-0.0097212791442871
-0.0076689710840582
-0.0051943375729024
-0.00229585589841
0.0009568044915795
0.0044375476427376
0.0079717766493558
0.0113402884453535
0.014297742396593
0.0166056733578443
0.0180695094168186
0.0185709986835718
0.0180869195610284
0.0166920069605112
0.01455151848495
0.01190279237926
0.0090256668627262
0.0062107481062412
0.0037269219756126
0.0017813928425312
0.0004795379936695
-0.0001969076693058
-0.0003833696246147
-0.0003000870347023
-0.0002017710357904
-0.0003201775252819
-0.0008124783635139
-0.001729030162096
-0.0030118562281131
-0.0045217014849185
-0.0060751922428607
-0.0074745640158653
-0.0085278078913688
-0.0090656802058219
-0.0089573562145233
-0.0081246979534626
-0.0065545253455638
-0.0043015964329242
-0.0014766789972782
0.0017748996615409
0.0052927806973457
0.008915439248085
0.0124961994588375
0.0159227773547172
0.0191271491348743
0.0220747981220483
0.0247389450669288
0.027078278362751
0.0290312692523002
0.0305245202034711
0.031487762928009
0.031870812177658
0.0316586345434188
0.030881680548191
0.0296191964298486
0.0279940161854028
0.0261597633361816
0.0242845118045806
0.022537637501955
0.0210807025432586
0.0200532563030719
0.0195521600544452
0.0196189880371093
0.020242404192686
0.0213664136826992
0.0228974968194961
0.0247110072523355
0.0266610160470008
0.0285975541919469
0.0303872786462306
0.0319296345114707
0.0331649966537952
0.0340756513178348
0.0346815213561058
0.0350319966673851
0.0351951718330383
0.0352458544075489
0.0352535843849182
0.0352718010544776
0.0353299491107463
0.0354322306811809
0.035564299672842
0.0357025153934955
0.0358199104666709
0.0358892194926738
0.035885713994503
0.0357913598418235
0.0355994664132595
0.0353142581880092
0.0349416695535182
0.0344762243330478
0.0338904485106468
0.0331308394670486
0.032121904194355
0.0307757351547479
0.0290064997971057
0.0267492327839136
0.02397421002388
0.0206907205283641
0.0169453881680965
0.0128200715407729
0.0084267854690551
0.0038974871858954
-0.0006261678645387
-0.0049990317784249
-0.0090783471241593
-0.0127325858920812
-0.0158521439880132
-0.0183596462011337
-0.0202160160988569
-0.021421555429697
-0.0220169275999069
-0.0220845956355333
-0.0217433609068393
-0.0211333520710468
-0.0203983634710311
-0.0196717102080583
-0.0190651826560497
-0.0186580661684274
-0.0184870101511478
-0.0185422897338867
-0.0187743082642555
-0.0191076956689357
-0.0194570515304803
-0.0197399780154228
-0.0198863539844751
-0.0198447629809379
-0.0195865835994482
-0.0191079899668693
-0.0184290558099746
-0.0175875537097454
-0.0166292190551757
-0.0156011963263154
-0.0145525615662336
-0.0135404523462057
-0.0126366419717669
-0.0119294645264744
-0.0115204975008964
-0.0115164760500192
-0.0120153473690152
-0.0130880055949091
-0.0147603899240493
-0.0170007050037384
-0.019715966656804
-0.0227597691118717
-0.0259486101567745
-0.0290806870907545
-0.0319528356194496
-0.0343765169382095
-0.0361931212246418
-0.0372866168618202
-0.0375945903360843
-0.0371157713234424
-0.0359073393046855
-0.0340720415115356
-0.0317428335547447
-0.0290682110935449
-0.0261956751346588
-0.023255206644535
-0.0203484129160642
-0.0175453107804059
-0.0148867778480052
-0.0123901311308145
-0.0100560477003455
-0.0078747738152742
-0.005829588510096
-0.0038997046649456
-0.0020650834776461
-0.0003087494987994
0.0013848658418282
0.003029481973499
0.0046340459957718
0.0062035014852881
0.0077423327602446
0.0092544071376323
0.0107390824705362
0.0121858324855566
0.013565725646913
0.0148215871304273
0.0158647634088993
0.0165828969329595
0.0168550480157136
0.0165691729635
0.0156411863863468
0.0140351448208093
0.0117785427719354
0.0089663518592715
0.0057539232075214
0.0023406860418617
-0.0010531039442867
-0.0042107221670448
-0.0069392756558954
-0.0090846046805381
-0.0105408960953354
-0.0112555483356118
-0.0112304771319031
-0.0105200447142124
-0.0092229042202234
-0.0074669499881565
-0.0053926100954413
-0.003139971755445
-0.0008401498198509
0.0013924902305006
0.003470217809081
0.0053399950265884
0.0069829542189836
0.0084071867167949
0.0096383513882756
0.0107095343992114
0.0116559192538261
0.0125151984393596
0.013326465152204
0.0141260148957371
0.0149425426498055
0.0157926604151725
0.0166785214096307
0.0175890699028968
0.0185044929385185
0.0194002334028482
0.0202458519488573
0.0209983270615339
0.0215937048196792
0.021943362429738
0.0219396091997623
0.0214682817459106
0.0204236842691898
0.0187265276908874
0.0163459498435258
0.0133188748732209
0.0097575178369879
0.0058415653184056
0.0017971326597034
-0.0021312357857823
-0.0057099564000964
-0.0087430300191044
-0.0110901296138763
-0.0126737281680107
-0.0134773347526788
-0.0135378167033195
-0.0129361869767308
-0.011788934469223
-0.0102367149665951
-0.0084293084219098
-0.0065122237429022
-0.0046174451708793
-0.0028540168423205
-0.001298033632338
1.2687843991443517e-05
0.0010768088977783
0.0019222877454012
0.0025972055736929
0.0031615039333701
0.0036788070574402
0.0042068473994731
0.0047892834991216
0.0054515851661562
0.0061992239207029
0.0070167565718293
0.0078716482967138
0.0087254103273153
0.0095448736101388
0.0103053543716669
0.0109857227653265
0.0115585708990693
0.0119788665324449
0.0121759911999106
0.0120541444048285
0.0115033453330397
0.0104185082018375
0.0087214307859539
0.0063822753727436
0.0034371633082628
-6.5248459577560425e-06
-0.0037817303091287
-0.0076823723502457
-0.0114853847771883
-0.0149728907272219
-0.0179519914090633
-0.0202702246606349
-0.0218268521130085
-0.0225785188376903
-0.022539384663105
-0.0217774882912635
-0.0204060524702072
-0.0185691006481647
-0.0164251253008842
-0.0141327790915966
-0.0118392286822199
-0.0096684489399194
-0.0077099138870835
-0.0060129016637802
-0.0045875045470893
-0.003410396631807
-0.0024351158645004
-0.0016045272350311
-0.0008606445044279
-0.0001501822844147
0.0005714320577681
0.0013359640724956
0.0021600401960313
0.0030462685972452
0.0039855134673416
0.0049571823328733
0.0059262155555188
0.0068359989672899
0.007600525394082
0.0081030204892158
0.0082078333944082
0.0077854613773524
0.0067393681965768
0.0050259917043149
0.0026689590886235
-0.0002340492792427
-0.0035172412171959
-0.006966252811253
-0.010345971211791
-0.0134288500994443
-0.0160180889070034
-0.0179642066359519
-0.0191751681268215
-0.0196204520761966
-0.0193289462476968
-0.0183797236531972
-0.016888178884983
-0.0149926077574491
-0.0128415171056985
-0.0105792907997965
-0.0083326362073421
-0.006202045828104
-0.0042590270750224
-0.0025460317265242
-0.0010762438178062
0.0001652870851103
0.0012180274352431
0.0021406935993582
0.0030025050509721
0.0038710923399776
0.0048016416840255
0.0058290897868573
0.0069633410312235
0.0081908041611313
0.0094835022464394
0.0108084352687001
0.0121298488229513
0.0134063707664608
0.0145852360874414
0.0155921969562768
0.0163225084543228
0.0166439432650804
0.0164163839071989
0.0155208613723516
0.0138863893225789
0.0115076592192053
0.0084515502676367
0.0048537175171077
0.0009074985282495
