bvp
0.1875529736280441
0.1915474832057953
0.1934555768966674
0.1933956891298294
0.1916676163673401
0.1887253224849701
0.1851248890161514
0.1814573109149933
0.1782786101102829
0.1760515570640564
0.1751084923744201
0.1756411492824554
0.1777130663394928
0.1812779605388641
0.1861927509307861
0.1922276020050048
0.1990786641836166
0.2063881158828735
0.2137686014175415
0.2208262085914611
0.2271827459335327
0.2325029224157333
0.2365248799324035
0.2390858232975006
0.2401344776153564
0.2397271692752838
0.2380085885524749
0.2351837903261184
0.2314927279949188
0.227194681763649
0.2225541770458221
0.2178144752979278
0.21315798163414
0.2086651474237442
0.2042839229106903
0.1998185813426971
0.1949431896209716
0.1892423778772354
0.1822798699140548
0.1736907362937927
0.1632902920246124
0.1511776745319366
0.1377844363451004
0.1238276287913322
0.110180415213108
0.0977087244391441
0.0871211588382721
0.0788683369755745
0.0731112360954284
0.0697595328092575
0.068561315536499
0.0692078918218612
0.0714157298207283
0.0749489963054657
0.0795646980404853
0.0849261581897735
0.0905626341700553
0.0958967059850692
0.1003052964806556
0.1031859964132309
0.1040193736553192
0.1024141833186149
0.0981234759092331
0.0910421162843704
0.0812097340822219
0.0688299983739852
0.0542959868907928
0.0381994321942329
0.0213015973567962
0.0044574216008186
-0.0114891454577445
-0.0258096233010292
-0.0379787608981132
-0.0477393791079521
-0.0551349446177482
-0.0605003982782363
-0.0644168332219123
-0.0676428452134132
-0.0710240676999092
-0.0753812193870544
-0.0813916325569152
-0.0894869416952133
-0.099785216152668
-0.1120686009526252
-0.1258066892623901
-0.1402179598808288
-0.1543615162372589
-0.1672486066818237
-0.1779526174068451
-0.1856915205717086
-0.1898752152919769
-0.1901388168334961
-0.1863911598920822
-0.1788783371448516
-0.1682229489088058
-0.1553955525159835
-0.1416045427322387
-0.1281241774559021
-0.1160943508148193
-0.1063349321484565
-0.0992364138364791
-0.0947692096233367
-0.0925811603665351
-0.0921161621809005
-0.0927193313837051
-0.0937324911355972
-0.0945865660905838
-0.0948756486177444
-0.0943931266665458
-0.0931290760636329
-0.0912387445569038
-0.0889910906553268
-0.0867115557193756
-0.0847356840968132
-0.0833800062537193
-0.0829284265637397
-0.0836284309625625
-0.0856858417391777
-0.089252196252346
-0.0944120287895202
-0.1011725664138794
-0.1094479858875274
-0.1190350949764251
-0.129592165350914
-0.1406404227018356
-0.1515989601612091
-0.1618459373712539
-0.1707876175642013
-0.1779172718524933
-0.1828543692827224
-0.1853647530078888
-0.1853662133216858
-0.1829213201999664
-0.1782150268554687
-0.1715168207883834
-0.1631368100643158
-0.1533893942832946
-0.1425714492797851
-0.1309528201818466
-0.1187725067138671
-0.1062367558479309
-0.0935187116265297
-0.0807584226131439
-0.068063199520111
-0.0555113032460212
-0.0431597791612148
-0.0310523584485054
-0.0192236602306365
-0.0077016465365886
0.0034872815012931
0.0143068954348564
0.0246930755674839
0.0345362946391105
0.0436762683093547
0.0519147217273712
0.0590448416769504
0.0648915916681289
0.0693504139780998
0.0724098235368728
0.0741523578763008
0.0747394785284996
0.0743905305862426
0.0733646899461746
0.071949228644371
0.0704447701573371
0.0691290646791458
0.0681957080960273
0.0676996111869812
0.0675563961267471
0.0676013976335525
0.067662239074707
0.0676060691475868
0.0673600882291793
0.0669174119830131
0.0663340464234352
0.0657210573554039
0.0652381479740142
0.0650906562805175
0.0655226781964302
0.0667972341179847
0.0691622346639633
0.0728097632527351
0.0778385996818542
0.0842260345816612
0.0918126031756401
0.1003058403730392
0.1093090027570724
0.1183730214834213
0.1270563900470733
0.1349662691354751
0.1417672634124755
0.1471727639436721
0.1509407460689544
0.1528806835412979
0.1528668701648712
0.1508529484272003
0.1468840837478637
0.1411025375127792
0.1337483823299408
0.1251605898141861
0.1157712116837501
0.1060792133212089
0.0966079458594322
0.0878638476133346
0.0803008526563644
0.0742805749177932
0.0700327828526496
0.0676392540335655
0.0670537427067756
0.0681432858109474
0.0707217827439308
0.074555680155754
0.0793427973985672
0.0846862494945526
0.0900939255952835
0.0950197577476501
0.0989352315664291
0.1014060154557228
0.102154292166233
0.1010930687189102
0.0983204022049903
0.0940722525119781
0.0886547341942787
0.0823856890201568
0.0755608528852462
0.0684409737586975
0.0612478666007518
0.0541638173162937
0.0473336391150951
0.0408632680773735
0.0348090156912803
0.0291619729250669
0.0238338485360145
0.0186488144099712
0.0133524015545845
0.0076479502022266
0.0012549273669719
-0.0060285218060016
-0.0142755769193172
-0.0234053954482078
-0.0331866480410099
-0.0432681404054164
-0.0532317012548446
-0.0626553744077682
-0.0711700022220611
-0.0784972012042999
-0.0844660326838493
-0.0890121906995773
-0.092167317867279
-0.0940459743142128
-0.0948309898376464
-0.0947553142905235
-0.0940795615315437
-0.0930644050240516
-0.0919416397809982
-0.0908925458788871
-0.0900367125868797
-0.0894287824630737
-0.0890610218048095
-0.0888705998659133
-0.0887512788176536
-0.0885697305202484
-0.0881842672824859
-0.0874623358249664
-0.0862934440374374
-0.084596998989582
-0.0823289901018142
-0.0794911533594131
-0.0761446803808212
-0.0724260360002517
-0.0685541108250618
-0.064816877245903
-0.0615361705422401
-0.0590192042291164
-0.0575086921453475
-0.0571411103010177
-0.0579196177423
-0.0597067475318908
-0.0622386708855629
-0.0651593953371048
-0.068068690598011
-0.0705729871988296
-0.072329469025135
-0.0730791687965393
-0.0726693049073219
-0.0710629373788833
-0.0683324933052063
-0.0646411329507827
-0.0602186508476734
-0.0553324595093727
-0.0502546168863773
-0.04523291811347
-0.0404705591499805
-0.036110334098339
-0.0322240591049194
-0.0288115162402391
-0.0258086062967777
-0.0231034681200981
-0.0205584578216075
-0.0180333591997623
-0.0154054388403892
-0.0125833516940474
-0.0095140393823385
-0.0061838869005441
-0.0026160022243857
0.0011358577758073
0.0049958112649619
0.0088701769709587
0.0126415453851223
0.0161587931215763
0.019235348328948
0.0216621309518814
0.023234399035573
0.0237868223339319
0.0232282653450965
0.0215685293078422
0.0189317930489778
0.0155530683696269
0.0117567777633667
0.007921528071165
0.0044372510164976
0.0016606478020548
-0.0001247739419341
-0.0007380368188023
-0.0001165643334388
0.0016824621707201
0.0044964849948883
0.0080849742516875
0.0121623640879988
0.0164302587509155
0.0206066388636827
0.0244507808238267
0.0277811996638774
0.0304842796176671
0.0325144454836845
0.033888604491949
0.0346761606633663
0.0349853709340095
0.034947782754898
0.0347020402550697
0.0343776978552341
0.0340814180672168
0.0338881388306617
0.03383794054389
0.0339380875229835
0.0341675207018852
0.0344786643981933
0.0347937494516372
0.0349976047873497
0.0349328592419624
0.0344053022563457
0.0332045555114746
0.031138852238655
0.0280763395130634
0.0239822808653116
0.0189419742673635
0.0131630236282944
0.0069569051265716
0.0007048659026622
-0.0051859095692634
-0.0103299971669912
-0.0144076775759458
-0.0171987656503915
-0.0186020843684673
-0.0186382867395877
-0.0174378342926502
-0.0152176693081855
-0.012250417843461
-0.0088323596864938
-0.0052548050880432
-0.0017778128385543
0.0013934262096881
0.0041233170777559
0.0063485950231552
0.0080727785825729
0.0093552581965923
0.0102965850383043
0.0110216792672872
0.0116615332663059
0.012335842475295
0.0131404716521501
0.014140186831355
0.015365345403552
0.0168124716728925
0.0184474624693393
0.020206045359373
0.0219869501888752
0.0236421264708042
0.0249744281172752
0.0257495660334825
0.0257220864295959
0.0246716905385255
0.0224459879100322
0.0190013200044631
0.0144288493320345
0.0089588034898042
0.002942306920886
-0.0031875241547822
-0.0089681837707757
-0.0139630492776632
-0.0178102646023035
-0.0202586837112903
-0.0211865752935409
-0.0206041950732469
-0.0186441466212272
-0.0155406333506107
-0.0115992091596126
-0.0071621425449848
-0.0025739558041095
0.0018504783511161
0.0058529060333967
0.0092504099011421
0.0119439288973808
0.0139172710478305
0.0152273587882518
0.0159877985715866
0.0163494125008583
0.0164788514375686
0.0165373142808675
0.0166637431830167
0.0169638097286224
0.0175040662288665
0.0183104798197746
0.0193696282804012
0.0206284765154123
0.0219869520515203
0.0232852976769208
0.0242984537035226
0.0247478559613227
0.0243326500058174
0.0227767676115036
0.0198836103081703
0.0155855622142553
0.009975142776966
0.0033097211271524
-0.0040108431130647
-0.0114884544163942
-0.0185849517583847
-0.0247856546193361
-0.0296579748392105
-0.0328955203294754
-0.0343441665172576
-0.0340089201927185
-0.0320415124297142
-0.0287128016352653
-0.02437599375844
-0.0194266904145479
-0.01426303666085
-0.0092475777491927
-0.0046754563227295
-0.0007537240162491
0.0024073105305433
0.0047927126288414
0.0064736451022326
0.0075890813022851
0.0083182984963059
0.0088509619235992
0.0093621835112571
0.0099945105612277
0.0108464444056153
0.0119677288457751
0.0133615797385573
0.0149907283484935
0.0167800653725862
0.0186100825667381
0.0203041080385446
0.0216211527585983
0.0222665667533874
0.021924577653408
0.0203077215701341
0.0172146707773208
0.0125857051461935
0.0065392255783081
-0.0006241908995434
-0.0084497882053256
-0.0163802281022071
-0.0238225292414426
-0.0302196145057678
-0.0351130627095699
-0.0381874181330204
-0.0392930023372173
-0.0384493134915828
-0.0358328148722648
-0.0317506045103073
-0.0266023557633161
-0.0208358634263277
-0.0149003351107239
-0.0092011075466871
-0.0040625035762786
0.0002961922436952
0.0037704592105001
0.0063653946854174
0.0081780320033431
0.0093717686831951
0.0101464688777923
0.0107090398669242
0.0112486211583018
0.0119169205427169
0.012815180234611
0.0139906434342265
0.0154415415599942
0.0171256512403488
0.0189662147313356
0.0208484176546335
0.0226047541946172
0.0240010786801576
0.0247404985129833
0.0244923513382673
0.0229427572339773
0.0198565311729908
0.0151368547230958
0.0088690845295786
0.0013352697715163
-0.0070075481198728
-0.0155798867344856
-0.0237503573298454
-0.0309103354811668
-0.0365417227149009
-0.040270447731018
-0.0419006645679473
-0.0414261594414711
-0.0390179604291915
-0.0349924862384796
-0.0297684501856565
-0.0238186884671449
-0.017620213329792
-0.0116076599806547
-0.0061363857239484
-0.0014576779212802
0.0022946777753531
0.0051051857881248
0.0070621883496642
0.0083308955654501
0.0091218445450067
0.0096604283899068
0.0101588098332285
0.0107926186174154
0.0116855856031179
0.0129023538902401
0.0144493272528052
0.016283493489027
0.018323304131627
0.0204502381384372
0.0224968940019607
0.0242324955761432
0.0253622476011514
0.0255501866340637
0.0244659893214702
0.0218469463288784
0.0175591353327035
0.0116425585001707
0.004330120049417
-0.0039644204080104
-0.0126879224553704
-0.0212113112211227
-0.0289030820131301
-0.0352001339197158
-0.0396674871444702
-0.0420415550470352
-0.0422514975070953
-0.0404156818985939
-0.0368158817291259
-0.0318555049598217
-0.0260088294744491
-0.0197677481919527
-0.0135920569300651
-0.0078685181215405
-0.0028819614090025
0.0012004759628325
0.004331580363214
0.0065727205947041
0.0080713685601949
0.0090316431596875
0.0096817109733819
0.0102422712370753
0.0109003689140081
0.0117918495088815
0.0129940714687109
0.0145276971161365
0.0163645315915346
0.0184369180351495
0.0206422079354524
0.0228370521217584
0.0248238500207662
0.0263414084911346
0.0270743295550346
0.026687990874052
0.024884145706892
0.0214634593576192
0.0163798686116933
0.0097755314782261
0.001986863091588
-0.006484261713922
-0.0150289060547947
-0.0230056773871183
-0.0298177748918533
-0.034979909658432
-0.0381672568619251
-0.0392442345619201
-0.038272276520729
-0.0354977324604988
-0.0313214920461177
-0.0262506902217865
-0.0208367127925157
-0.0156091209501028
-0.0110172787681221
-0.0073892613872885
-0.0049100746400654
-0.0036162750329822
-0.0034058729652315
-0.0040637645870447
-0.0053005958907306
-0.0067992168478667
-0.0082598580047488
-0.0094362795352935
-0.0101591385900974
-0.0103437500074505
-0.0099804475903511
-0.0091138985008001
-0.0078238118439912
-0.006213741376996
-0.0044091138988733
-0.0025656225625425
-0.000884111970663
0.0003811228089034
0.0009349868632853
0.0004778960719704
-0.0012428699992597
-0.0043759681284427
-0.0089142490178346
-0.0146642010658979
-0.0212471298873424
-0.028133425861597
-0.0347032584249973
-0.0403209179639816
-0.0444108694791793
-0.0465255007147789
-0.0463946685194969
-0.0439509153366088
-0.0393290556967258
-0.0328406319022178
-0.0249283853918313
-0.0161114651709795
-0.0069288592785596
0.002117782831192
0.0106161572039127
0.0182803384959697
0.0249691773205995
0.0306873954832553
0.0355690605938434
0.0398421809077262
0.0437793470919132
0.0476486235857009
0.0516792982816696
0.0560466647148132
0.0608707703649997
0.066221222281456
0.0721235200762748
0.0785678625106811
0.0855210348963737
0.0929341465234756
0.1007327884435653
0.1087815463542938
0.1168289706110954
0.1244541704654693
0.1310515701770782
0.1358841955661773
0.1381964832544326
0.1373522281646728
0.1329690515995025
0.1250201165676117
0.1138736009597778
0.1002569794654846
0.0851532369852066
0.0696533024311065
0.0548017956316471
0.0414676591753959
0.0302553325891494
0.0214640572667121
0.0150990299880504
0.0109230615198612
0.0085240006446838
0.0073821544647216
0.0069393143057823
0.0066684037446975
0.0061284229159355
0.004991315305233
0.0030437931418418
0.0001788139343261
-0.0036109536886215
-0.0082431137561798
-0.0135740265250206
-0.0194440558552742
-0.0257194861769676
-0.032311737537384
-0.0391689389944076
-0.0462502352893352
-0.0534992441534996
-0.0608305819332599
-0.0681317001581192
-0.0752662122249603
-0.0820714831352233
-0.0883685275912284
-0.0940035954117775
-0.098906472325325
-0.1031246185302734
-0.1068110615015029
-0.1101773157715797
-0.1134317144751548
-0.1167193427681922
-0.1200797855854034
-0.1234337836503982
-0.1265993863344192
-0.1293316930532455
-0.1313738077878952
-0.1325046569108963
-0.1325756013393402
-0.1315340250730514
-0.1294339895248413
-0.1264313757419586
-0.1227613985538482
-0.1187030673027038
-0.114534243941307
-0.1104808002710342
-0.106676310300827
-0.1031532138586044
-0.0998657345771789
-0.096719317138195
-0.0935850739479065
-0.0903054401278495
-0.0867093950510025
-0.0826426446437835
-0.0780037492513656
-0.0727738440036773
-0.067033439874649
-0.0609571114182472
-0.0547647401690483
-0.0486415959894657
-0.0426903590559959
-0.0369482673704624
-0.0314330831170082
-0.0261708460748195
-0.0211980082094669
-0.0165569446980953
-0.0122937783598899
-0.0084531120955944
-0.0050655268132686
-0.0021320655941963
0.0003899410367012
0.0026039853692054
0.0046943128108978
0.0069343373179435
0.0096698701381683
0.013274997472763
0.018088586628437
0.0243484452366828
0.0321409292519092
0.0413768477737903
0.0517973229289054
0.0630041509866714
0.0745038390159607
0.0857575163245201
0.0962321162223815
0.1054514348506927
0.1130439639091491
0.118779756128788
0.1225897669792175
0.1245645135641098
0.1249307245016098
0.1240087151527404
0.122158944606781
0.1197300255298614
0.1170205622911453
0.1142598837614059
0.111601173877716
0.1091168224811554
0.106791079044342
0.1045145243406295
0.1020907312631607
0.0992600321769714
0.0957368537783622
0.0912551283836364
0.0856166929006576
0.0787342339754104
0.0706584081053733
0.0615850985050201
0.0518441684544086
0.0418702811002731
0.0321583934128284
0.0232106447219848
0.0154825523495674
0.0093360468745231
0.0050051659345626
0.0025805756449699
0.0020139925181865
0.0031342282891273
0.00566828250885
0.0092686563730239
0.0135480500757694
0.0181185342371463
0.0226306561380624
0.0268066450953483
0.0304607842117548
0.0335026681423187
0.0359241515398025
0.0377745702862739
0.0391318872570991
0.0400790311396122
0.0406905189156532
0.0410271249711513
0.0411341674625873
0.0410408154129982
0.0407595485448837
0.0402831733226776
0.0395755395293235
0.0385579131543636
0.0371006317436695
0.0350296683609485
0.0321509055793285
0.0282875057309865
0.023321758955717
0.0172321405261755
0.0101163331419229
0.0021939203143119
-0.006211397703737
-0.014706453308463
-0.0228734817355871
-0.0303151607513427
-0.0366930216550827
-0.0417578853666782
-0.0453699380159378
-0.0475054681301116
-0.0482528880238533
-0.0478017404675483
-0.0464215874671936
-0.0444266609847545
-0.042130134999752
-0.0398009866476058
-0.0376402586698532
-0.0357837155461311
-0.0343214608728885
-0.0333193242549896
-0.0328304134309291
-0.0328915938735008
-0.0335078090429306
-0.0346330776810646
-0.0361558943986892
-0.037892710417509
-0.0395927280187606
-0.0409568548202514
-0.0416718386113643
-0.0414591953158378
-0.0401345416903495
-0.0376647599041461
-0.0342036746442317
-0.0300893932580947
-0.0258004982024431
-0.021883487701416
-0.0188686102628707
-0.0171924531459808
-0.0171406734734773
-0.0188080556690692
-0.0220759566873312
-0.0266304984688758
-0.0320366956293582
-0.0378450602293014
-0.0436942167580127
-0.0493858903646469
-0.0549072474241256
-0.0603766180574893
-0.0659279599785804
-0.0715957731008529
-0.0772537440061569
-0.0826092734932899
-0.0872330442070961
-0.090614914894104
-0.0922430530190467
-0.0916942954063415
-0.088712453842163
-0.0832530632615089
-0.0754857808351516
-0.0657549202442169
-0.0545067265629768
-0.0422002971172332
-0.0292278956621885
-0.0158775076270103
-0.0023519769310951
0.0111821368336677
0.0245556347072124
0.0375799015164375
0.0500406958162784
0.0616938211023807
0.0722673088312149
0.0814794600009918
0.0890738666057586
0.0948619097471237
0.0987628400325775
0.1008329465985298
0.1012715399265289
0.1003949791193008
0.0985859557986259
0.0962357744574546
0.0936942100524902
0.0912300422787666
0.0890018120408058
0.0870440453290939
0.0852739065885543
0.0835183188319206
0.0815574526786804
0.0791752785444259
0.0762042850255966
0.0725540593266487
0.0682212263345718
0.0632835179567337
0.0578807368874549
0.0521878153085708
0.0463893078267574
0.0406593866646289
0.0351469442248344
0.0299683753401041
0.0252099968492984
0.0209351535886526
0.0171890556812286
0.013998482376337
0.0113667547702789
0.009265836328268
0.0076271966099739
0.0063323453068733
0.0052060782909393
0.0040175653994083
0.0024932585656642
0.000344630330801
-0.0026896782219409
-0.0067974925041198
-0.0120564140379428
-0.018412422388792
-0.0256732627749443
-0.0335185229778289
-0.0415293537080287
-0.0492353476583957
-0.0561714768409729
-0.0619363114237785
-0.0662408471107482
-0.068938061594963
-0.0700297579169273
-0.0696540251374244
-0.0680580288171768
-0.0655609145760536
-0.0625137165188789
-0.0592616200447082
-0.0561104342341423
-0.0532990880310535
-0.0509815253317356
-0.0492199324071407
-0.0479886904358863
-0.0471867881715297
-0.0466569252312183
-0.04620898142457
-0.045644324272871
-0.0447788499295711
-0.0434636324644088
-0.0416009128093719
-0.0391525886952877
-0.0361405685544014
-0.0326435714960098
-0.0287975966930389
-0.0248018931597471
-0.020921804010868
-0.017476163804531
-0.0148046799004077
-0.0132214939221739
-0.0129645280539989
-0.0141497487202286
-0.0167412590235471
-0.0205453000962734
-0.0252280943095684
-0.0303525701165199
-0.035427663475275
-0.0399625897407531
-0.0435176230967044
-0.0457460656762123
-0.0464253723621368
-0.045474138110876
-0.0429517030715942
-0.0390420593321323
-0.0340266302227973
-0.0282491985708475
-0.0220759473741054
-0.0158558115363121
-0.0098881544545292
-0.004401939921081
0.000455510802567
0.0046219984069466
0.0081138042733073
0.0110099986195564
0.0134327244013547
0.0155262015759944
0.0174369700253009
0.0192974843084812
0.0212113037705421
0.0232415162026882
0.0254109948873519
0.027714803814888
0.0301283150911331
0.0325972400605678
0.0350169613957405
0.0372192934155464
0.0389783829450607
0.0400391370058059
0.0401630923151969
0.0391781330108642
0.0370183251798152
0.0337460860610008
0.0295546445995569
0.0247511118650436
0.0197212845087051
0.0148826660588383
0.0106360223144292
0.0073230396956205
0.0051948726177215
0.0043938867747783
0.0049468595534563
0.0067681372165679
0.0096745435148477
0.0134119261056184
0.017688101157546
0.0222063846886158
0.0266953650861978
0.0309309586882591
0.0347494520246982
0.0380514934659004
0.040796622633934
0.0429917350411415
0.0446789972484111
0.0459244325757026
0.0468056052923202
0.0473997369408607
0.0477753840386867
0.0479884780943393
0.0480803772807121
0.048075757920742
0.0479782149195671
0.0477590672671794
0.0473393648862838
0.0465770401060581
0.0452728532254695
0.0431984812021255
0.0401408039033412
0.0359507612884044
0.0305833630263805
0.0241201873868703
0.0167720448225736
0.0088619263842701
0.0007894025184214
-0.007017333060503
-0.0141508923843503
-0.0202668141573667
-0.025113359093666
-0.0285472944378852
-0.0305375885218381
-0.0311593972146511
-0.0305795241147279
-0.0290343128144741
-0.0268012005835771
-0.0241676140576601
-0.0214022640138864
-0.0187317095696926
-0.0163233000785112
-0.0142765780910849
-0.0126245282590389
-0.0113427778705954
-0.0103639308363199
-0.0095943119376897
-0.0089295748621225
-0.0082677118480205
-0.0075204409658908
-0.0066218990832567
-0.0055332016199827
-0.0042457124218344
-0.0027874456718564
-0.00123399682343
0.0002802507951855
0.001560291275382
0.0023664124310016
0.0024481732398271
0.0015884116291999
-0.000353256240487
-0.0034055588766932
-0.0074676238000392
-0.0123156951740384
-0.0176316034048795
-0.0230408459901809
-0.0281523503363132
-0.0325976014137268
-0.036066111177206
-0.0383338704705238
-0.0392812117934227
-0.0388973429799079
-0.0372728072106838
-0.0345830358564853
-0.031065272167325
-0.0269923619925975
-0.0226465463638305
-0.0182937495410442
-0.0141594987362623
-0.0104100797325372
-0.0071419235318899
-0.0043810433708131
-0.0020933705382049
-0.0002027419395744
0.0013901190832257
0.0027918550185859
0.004103472456336
0.0054095266386866
0.006770811509341
0.0082201911136507
0.0097615309059619
0.0113725140690803
0.0130064189434051
0.0145858693867921
0.0159906186163425
0.0170499384403228
0.0175497848540544
0.0172593258321285
0.0159726459532976
0.0135534917935729
0.0099711082875728
0.0053194062784314
-0.0001848181709647
-0.0062232408672571
-0.0124113736674189
-0.0183417350053787
-0.023627296090126
-0.0279381573200225
-0.0310293510556221
-0.0327598042786121
-0.0330999717116355
-0.0321264751255512
-0.0300055965781211
-0.0269691552966833
-0.0232866127043962
-0.0192368794232606
-0.0150821115821599
-0.0110455509275197
-0.007295967079699
-0.0039399676024913
-0.0010208683088421
0.0014762547798454
0.0036122556775808
0.0054761711508035
0.0071672778576612
0.0087804617360234
0.0103950053453445
0.0120675191283226
0.0138291371986269
0.0156844798475503
0.0176126565784215
0.0195712633430957
0.0214971043169498
0.0232973881065845
0.0248368047177791
0.0259334128350019
0.0263724010437726
0.0259382985532283
0.0244572181254625
0.0218352917581796
0.0180839411914348
0.0133307492360472
0.0078151328489184
0.0018669101409614
-0.0041287820786237
-0.009773151949048
-0.014695968478918
-0.0185919869691133
-0.0212482064962387
-0.0225613694638013
-0.0225422605872154
-0.0213052574545145
-0.0190464127808809
-0.0160144213587045
-0.0124807124957442
-0.0087138703092932
-0.0049581658095121
-0.0014150105416774
0.0017711045220494
0.0045199007727205
0.0068142460659146
0.0086905965581536
0.0102237109094858
0.0115098124369978
0.0126511119306087
0.0137425493448972
0.0148610789328813
0.016058649867773
0.0173599869012832
0.0187648460268974
0.0202521253377199
0.0217828769236803
0.023299690335989
0.0247192773967981
0.0259195640683174
0.0267317686229944
0.0269489716738462
0.0263531729578971
0.0247535463422536
0.022025991231203
0.0181461311876773
0.0132089145481586
0.00742964213714
0.0011252919211983
-0.0053212456405162
-0.0115056717768311
-0.0170453339815139
-0.0216165017336606
-0.0249840393662452
-0.0270195063203573
-0.0277054067701101
-0.0271273795515298
-0.0254571810364723
-0.0229283701628446
-0.0198075305670499
-0.016365498304367
-0.0128527553752064
-0.0094801886007189
-0.0064051309600472
-0.0037241373211145
-0.0014734375290572
0.0003643969539552
0.0018498866120353
0.003072437364608
0.0041330368258059
0.0051291808485984
0.0061456994153559
0.0072483071126043
0.0084774028509855
0.0098445750772953
0.011334360577166
0.0129099693149328
0.0145197659730911
0.0161009468138217
0.0175759047269821
0.0188408698886632
0.0197550766170024
0.0201416108757257
0.0198047887533903
0.0185609273612499
0.0162755139172077
0.0128979571163654
0.0084845284000039
0.0032043238170444
-0.0026714310515671
-0.0087949149310588
-0.0147792007774114
-0.0202415809035301
-0.0248437114059925
-0.0283217616379261
-0.0305065009742975
-0.0313351601362228
-0.0308525152504444
-0.0291996318846941
-0.0265934355556964
-0.023299666121602
-0.0196027532219886
-0.0157786179333925
-0.0120720919221639
-0.0086768111214041
-0.00571970641613
-0.0032556615769863
-0.0012731215683743
0.0002936540404334
0.0015479797730222
0.0026107220910489
0.0036008427850902
0.0046207890845835
0.0057478658854961
0.0070297475904226
0.0084826918318867
0.0100930854678154
0.0118232350796461
0.0136207547038793
0.0154262417927384
0.0171715188771486
0.0187667906284332
0.0200846008956432
0.0209530051797628
0.0211668815463781
0.0205179490149021
0.0188354291021823
0.0160257518291473
0.01210174895823
0.0071952696889638
0.0015510241501033
-0.0044970205053687
-0.0105626275762915
-0.0162502918392419
-0.0211966373026371
-0.0251061078161001
-0.0277773831039667
-0.0291163120418787
-0.0291359238326549
-0.0279472023248672
-0.0257416181266307
-0.0227665193378925
-0.0192967820912599
-0.0156057719141244
-0.0119394734501838
-0.0084976833313703
-0.005422381684184
-0.0027913763187825
-0.0006182771176099
0.0011391597799956
0.0025639010127633
0.003761074040085
0.0048400391824543
0.0059006405062973
0.0070237955078482
0.0082655819132924
0.0096544399857521
0.0111908139660954
0.0128498673439025
0.014587820507586
0.0163489505648612
0.0180673766881227
0.0196592323482036
0.0210086293518543
0.0219582095742225
0.0223138034343719
0.0218667611479759
0.020430164411664
0.0178798697888851
0.0141901429742574
0.0094539392739534
0.0038831634446978
-0.0022097495384514
-0.0084459967911243
-0.0144234476611018
-0.0197594389319419
-0.0241274088621139
-0.027284724637866
-0.0290908310562372
-0.0295150857418775
-0.0286335796117782
-0.0266153160482645
-0.0236990805715322
-0.0201641544699668
-0.0162996593862772
-0.012376245111227
-0.0086221639066934
-0.0052059441804885
-0.0022284593433141
0.0002745767123997
0.0023230109363794
0.0039800773374736
0.00533904787153
0.0065090740099549
0.007600403856486
0.0087096355855464
0.0099093969911336
0.0112447785213589
0.0127327237278223
0.01436273381114
0.0161008369177579
0.0178964268416166
0.0196875408291816
0.0213983952999115
0.0229279678314924
0.024136759340763
0.0248426403850317
0.0248341411352157
0.0239008236676454
0.0218732561916112
0.0186632741242647
0.0142945274710655
0.0089152436703443
0.0027906026225537
-0.0037227610591799
-0.0102149955928325
-0.0162681434303522
-0.0215010065585374
-0.0256069526076316
-0.0283808130770921
-0.0297324601560831
-0.0296861194074153
-0.0283676534891128
-0.0259836222976446
-0.0227956995368003
-0.0190931260585784
-0.0151645727455616
-0.0112712923437356
-0.0076258117333054
-0.0043786740861833
-0.001612102612853
0.0006590983830392
0.0024783434346318
0.0039323377422988
0.0051338775083422
0.006203987635672
0.0072553739883005
0.0083796605467796
0.0096393721178174
0.0110651804134249
0.0126580698415637
0.0143941938877105
0.0162291899323463
0.0180969275534153
0.0199000295251607
0.0214981511235237
0.0227046106010675
0.0232983231544494
0.023051481693983
0.0217680819332599
0.0193247850984334
0.0157050974667072
0.0110188564285635
0.0055004591122269
-0.0005146414041519
-0.0066278609447181
-0.0124215921387076
-0.0175035316497087
-0.021544624119997
-0.0243071187287569
-0.0256637968122959
-0.0256068613380193
-0.0242428369820117
-0.0217739585787057
-0.0184701830148696
-0.0146363824605941
-0.0105791026726365
-0.0065767955966293
-0.0028558582998812
0.0004257010295987
0.0031847397331148
0.0054095103405416
0.0071488237008452
0.0084959603846073
0.0095696505159139
0.010495176538825
0.0113871144130826
0.0123356133699417
0.0133985821157693
0.0146004250273108
0.0159365031868219
0.0173797737807035
0.0188851878046989
0.0203882791101932
0.0217948667705059
0.022965544834733
0.0237072948366403
0.0237841196358203
0.0229496397078037
0.0209935214370489
0.0177874900400638
0.0133193712681531
0.0077099711634218
0.0012107668444514
-0.0058184629306197
-0.0129487849771976
-0.0197299569845199
-0.0257376953959465
-0.0306139234453439
-0.0340980030596256
-0.0360478572547435
-0.0364473946392536
-0.0353986993432045
-0.0331026390194892
-0.0298323296010494
-0.0259016025811433
-0.0216306708753108
-0.0173136293888092
-0.0131933167576789
-0.0094457352533936
-0.0061737289652228
-0.0034090690314769
-0.0011213981779292
0.0007670810446143
0.0023631702642887
0.0037850891239941
0.0051476219668984
0.006548904813826
0.0080604329705238
0.0097215957939624
0.0115381870418787
0.0134856961667537
0.0155163090676069
0.0175652354955673
0.0195501763373613
0.0213594529777765
0.0228355228900909
0.0237696319818496
0.0239172354340553
0.0230326559394598
0.0209152773022651
0.0174555163830518
0.0126683339476585
0.0067072389647364
-0.0001421687193214
-0.0074876397848129
-0.0148719446733593
-0.021823551505804
-0.0279054623097181
-0.0327557362616062
-0.036119308322668
-0.0378688797354698
-0.038009338080883
-0.0366646982729435
-0.0340539738535881
-0.0304624419659376
-0.0262095890939235
-0.0216153413057327
-0.0169699974358081
-0.0125126838684082
-0.0084180943667888
-0.0047895642928779
-0.0016588615253567
0.0010057426989078
0.0032838573679327
0.0052833161316812
0.0071200095117092
0.0089004626497626
0.0107104396447539
0.0126094641163945
0.0146281812340021
0.0167679898440837
0.0190049931406974
0.0212966371327638
0.0235852971673011
0.0257939994335174
0.0278124436736106
0.0294798742979764
0.030579512938857
0.0308558605611324
0.0300552677363157
0.0279781855642795
0.0245262160897254
0.0197327081114053
0.0137732401490211
0.0069561013951897
-0.0003067710786126
-0.0075456853955984
-0.0142865795642137
-0.0201004408299922
-0.0246430821716785
-0.0276846084743738
-0.0291270390152931
-0.0290055312216281
-0.0274721588939428
-0.0247692950069904
-0.0211991649121046
-0.0170900337398052
-0.0127620212733745
-0.0084991306066513
-0.0045292056165635
-0.0010105436667799
0.0019735426176339
0.0044114515185356
0.0063539147377014
0.0079000424593687
0.0091782277449965
0.0103245647624135
0.011463738977909
0.0126946344971656
0.0140816224738955
0.0156524088233709
0.0174005329608917
0.0192897580564022
0.021260192617774
0.0232343580573797
0.0251166205853223
0.0267824456095695
0.0280645918101072
0.0287492685019969
0.0285921823233366
0.0273548457771539
0.024851955473423
0.0209978651255369
0.0158401485532522
0.0095697324723005
0.0025055902078747
-0.0049391528591513
-0.0123020708560943
-0.0191211197525262
-0.0249821431934833
-0.0295575559139251
-0.0326331406831741
-0.0341220647096633
-0.0340652503073215
-0.0326188653707504
-0.0300312153995037
-0.0266114138066768
-0.0226928927004337
-0.0185968540608882
-0.0146019645035266
-0.0109241548925638
-0.0077056111767888
-0.0050111645832657
-0.0028333691880106
-0.0011062214616686
0.0002762336516752
0.0014402833767235
0.0025139721110463
0.003611144144088
0.0048202518373727
0.0061984001658856
0.0077696191146969
0.0095269540324807
0.011437221430242
0.0134445950388908
0.015467551536858
0.0173878204077482
0.0190385486930608
0.0202039629220962
0.020638920366764
0.0201066974550485
0.0184249673038721
0.0155083443969488
0.0113981887698173
0.0062719751149415
0.000429174862802
-0.005741961300373
-0.0118091683834791
-0.0173449143767356
-0.0219719596207141
-0.0254002436995506
-0.0274511091411113
-0.0280670318752527
-0.0273080505430698
-0.0253366138786077
-0.0223927423357963
-0.0187635943293571
-0.0147524578496813
-0.0106497844681143
-0.0067070852965116
-0.0031168381683528
-1.0959338396787643e-06
0.0025912788696587
0.0046781161800026
0.0063290959224104
0.0076473876833915
0.0087517518550157
0.009759834036231
0.0107734240591526
0.0118674421682953
0.0130840418860316
0.0144329946488142
0.0158971399068832
0.0174394715577363
0.0190098360180854
0.0205478593707084
0.0219762176275253
0.0231843180954456
0.0240136682987213
0.0242595877498388
0.0236955396831035
0.022113848477602
0.019369825720787
0.0154183208942413
0.0103353671729564
0.0043211663141846
-0.0023153312504291
-0.0091882944107055
-0.0158776864409446
-0.0219734385609626
-0.0271151661872863
-0.0310251023620367
-0.0335313752293586
-0.0345790795981884
-0.0342282876372337
-0.0326393619179725
-0.0300479419529438
-0.0267354808747768
-0.0230001509189605
-0.0191278662532567
-0.0153651479631662
-0.011899322271347
-0.0088481334969401
-0.0062576723285019
-0.0041088312864303
-0.002331716241315
-0.000824237242341
0.0005289278924465
0.001838743686676
0.0031973170116543
0.0046683708205819
0.0062832222320139
0.0080421408638358
0.0099195893853902
0.0118706189095973
0.0138378031551837
0.0157563630491495
0.0175501946359872
0.0191171020269393
0.0203140750527381
0.0209564846009016
0.0208366122096776
0.0197567231953144
0.0175683423876762
0.0142097119241952
0.0097328107804059
0.0043126475065946
-0.0017640907317399
-0.0081287454813718
-0.0143722426146268
-0.0200906619429588
-0.0249280221760272
-0.028610311448574
-0.0309669282287359
-0.031939148902893
-0.0315761938691139
-0.0300209019333124
-0.0274889431893825
-0.0242427755147218
-0.0205616950988769
-0.0167133118957281
-0.0129305180162191
-0.0093946475535631
-0.0062252231873571
-0.0034776178654283
-0.0011494730133563
0.0008069959003478
0.0024710446596145
0.0039387224242091
0.0053072962909936
0.0066620232537388
0.0080684144049882
0.0095686092972755
0.0111794620752334
0.0128925470635294
0.0146776968613266
0.0164887756109237
0.0182652380317449
0.0199241936206817
0.0213467236608266
0.0223694555461406
0.0227916985750198
0.0224010925740003
0.0210118759423494
0.0185056328773498
0.0148641904816031
0.0101869571954011
0.004689771682024
-0.0013137927744537
-0.0074458955787122
-0.0133075807243585
-0.0185226947069168
-0.0227737613022327
-0.0258278269320726
-0.0275536570698022
-0.0279293078929185
-0.0270387567579746
-0.0250567980110645
-0.0222233235836029
-0.0188125520944595
-0.0151033364236354
-0.0113525921478867
-0.0077729006297886
-0.0045177112333476
-0.0016759284771978
0.0007263720035552
0.0027192374691367
0.0043771392665803
0.0058024646714329
0.0071063265204429
0.0083908010274171
0.0097364382818341
0.0111958179622888
0.0127918664366006
0.0145199103280901
0.0163510087877511
0.0182313006371259
0.0200741440057754
0.0217490904033184
0.023077642545104
0.0238454267382621
0.023832518607378
0.0228547062724828
0.0208041109144687
0.0176784005016088
0.0135927842929959
0.0087731108069419
0.0035318532027304
-0.0017672129906713
-0.006749456282705
-0.0110696014016866
-0.0144462278112769
-0.0166859868913888
-0.0176963377743959
-0.0174883641302585
-0.0161696039140224
-0.0139265209436416
-0.0109994811937212
-0.0076545355841517
-0.0041555888019502
-0.0007393509149551
0.0024051493965089
0.0051499553956091
0.0074320761486887
0.0092486161738634
0.0106466487050056
0.0117092598229646
0.0125376787036657
0.0132334288209676
0.0138854496181011
0.0145630855113267
0.0153132705017924
0.0161600448191165
0.0171056203544139
0.0181332696229219
0.0192106533795595
0.0202881060540676
0.021287327632308
0.0220853388309478
0.0225069262087345
0.022336283698678
0.0213478989899158
0.0193483065813779
0.0162180475890636
0.0119440229609608
0.0066356104798614
0.0005219960585236
-0.0060690203681588
-0.012746812775731
-0.0191015154123306
-0.0247492473572492
-0.0293724201619625
-0.0327482111752033
-0.0347621589899063
-0.0354084968566894
-0.0347802564501762
-0.0330519638955593
-0.0304569862782955
-0.0272608064115047
-0.0237329266965389
-0.0201212503015995
-0.0166321769356727
-0.0134183336049318
-0.0105729512870311
-0.0081295724958181
-0.006067959126085
-0.0043260036036372
-0.0028155846521258
-0.0014390097931027
-0.0001023493241518
0.001274715992622
0.0027514593675732
0.0043624029494822
0.0061180861666798
0.0080074360594153
0.0099973622709512
0.0120279919356107
0.0140045899897813
0.0157878305763006
0.0171889793127775
0.0179808661341667
0.0179277509450912
0.0168260615319013
0.0145465275272727
0.0110692046582698
0.0065017505548894
0.0010750899091362
-0.0048803780227899
-0.0109704211354255
-0.0167797245085239
-0.0219173319637775
-0.0260560531169176
-0.028959659859538
-0.0304982345551252
-0.0306529942899942
-0.0295106396079063
-0.0272471327334642
-0.0241034645587205
-0.0203578509390354
-0.0162965003401041
-0.0121846888214349
-0.0082421386614441
-0.0046268082223832
-0.0014289580285549
0.0013256594538688
0.0036657880991697
0.0056601646356284
0.0074012870900332
0.0089897783473134
0.0105211874470114
0.0120758209377527
0.0137106729671359
0.0154548659920692
0.0173102375119924
0.0192546993494033
0.0212456807494163
0.0232216231524944
0.0250974930822849
0.0267532765865325
0.028023337945342
0.028698980808258
0.0285512525588274
0.0273708887398242
0.0250138901174068
0.0214394405484199
0.0167311280965805
0.0110975001007318
0.0048529347404837
-0.0016158623620867
-0.0078921113163232
-0.0135742984712123
-0.0183180160820484
-0.0218683704733848
-0.0240785777568817
-0.0249149687588214
-0.0244512632489204
-0.022852074354887
-0.0203474648296833
-0.0172050576657056
-0.013703228905797
-0.0101054199039936
-0.0066372957080602
-0.0034691453911364
-0.0007050512358546
0.0016186768189072
0.003524555126205
0.0050777932628989
0.0063689751550555
