bvp
0.3329197466373443
0.3472857773303985
0.3647233843803406
0.3853382170200348
0.4089953303337097
0.4352723658084869
0.4634715020656585
0.4926910698413849
0.5219252705574036
0.5501701831817627
0.576519787311554
0.6002482175827026
0.6208767890930176
0.6382119655609131
0.6523367166519165
0.6635642051696777
0.6723771691322327
0.6793614625930786
0.6851246356964111
0.6902047395706177
0.6949915885925293
0.6996822357177734
0.7042832374572754
0.7086468935012817
0.7125173211097717
0.7155777215957642
0.7175011038780212
0.7179988622665405
0.7168558239936829
0.7139428853988647
0.7092104554176331
0.7026665210723877
0.6943339109420776
0.6841978430747986
0.6721758842468262
0.6581248044967651
0.6418752670288086
0.6232833862304688
0.6022931337356567
0.5789949893951416
0.5536522269248962
0.5266839861869812
0.4986239671707153
0.4700700640678406
0.4416216015815735
0.413813441991806
0.3870793581008911
0.3617501556873321
0.3380480408668518
0.3160589337348938
0.2957114577293396
0.2767881155014038
0.2589641213417053
0.2418580055236816
0.2250708490610122
0.2081989794969558
0.1908338069915771
0.1725671887397766
0.1530021429061889
0.1317614912986755
0.108484536409378
0.0828209221363067
0.0544354617595672
0.0230312198400497
-0.0115389972925186
-0.0489904657006263
-0.0882445946335792
-0.1273972988128662
-0.1644602566957473
-0.198440596461296
-0.2295885980129242
-0.2587912678718567
-0.2872107028961181
-0.3160475492477417
-0.3456637561321258
-0.374889463186264
-0.4016219079494476
-0.4241461157798767
-0.4419696629047394
-0.4556363821029663
-0.4657939076423645
-0.4724297523498535
-0.4749386310577392
-0.4726840853691101
-0.4653263390064239
-0.4527046382427215
-0.4346797466278076
-0.4114769995212555
-0.3846800029277801
-0.3582482039928436
-0.3383838534355163
-0.3317551016807556
-0.3430406153202057
-0.3732059001922607
-0.4190762341022491
-0.4739626049995422
-0.5289310812950134
-0.5743939280509949
-0.601718008518219
-0.6045456528663635
-0.5796096324920654
-0.5269662141799927
-0.4497032463550567
-0.3532615005970001
-0.2445354461669922
-0.1309100538492202
-0.0193706005811691
0.0842080414295196
0.1755250245332718
0.2520470023155212
0.3129497766494751
0.3588617146015167
0.3914848566055298
0.4131730198860168
0.4265332818031311
0.4340913891792297
0.4380359947681427
0.4400489926338196
0.4412298202514648
0.442112922668457
0.442759245634079
0.4428879916667938
0.4420150518417358
0.4395767450332641
0.4350289106369018
0.4279181361198425
0.4179287552833557
0.4049156606197357
0.3889263570308685
0.3701996505260467
0.3491290807723999
0.3261527717113495
0.3015019595623016
0.2748968601226806
0.2454537451267242
0.2119099795818328
0.1730213165283203
0.1279483437538147
0.0765242278575897
0.0193618535995483
-0.0421943664550781
-0.1062409207224845
-0.1705646961927414
-0.2329144775867462
-0.2912479043006897
-0.3439213037490845
-0.3898041844367981
-0.4283168911933899
-0.4594003558158874
-0.4834335446357727
-0.5011189579963684
-0.5133531093597412
-0.5210941433906555
-0.525244951248169
-0.5265702605247498
-0.5256546139717102
-0.5228991508483887
-0.5185512900352478
-0.5127519369125366
-0.5055813193321228
-0.4970901012420654
-0.4873169362545013
-0.476300299167633
-0.4640882015228271
-0.4507436156272888
-0.4363439083099365
-0.420975387096405
-0.4047223031520843
-0.3876497149467468
-0.3697885274887085
-0.3511350750923157
-0.3316676318645477
-0.3113704919815063
-0.290256142616272
-0.2683795690536499
-0.2458407580852508
-0.2227772027254104
-0.1993517875671386
-0.1757375448942184
-0.1520996987819671
-0.128580242395401
-0.1052909195423126
-0.0823149383068084
-0.059714525938034
-0.03754124045372
-0.0158459246158599
0.0053136646747589
0.0258664786815643
0.0457224547863006
0.0647718012332916
0.0828964412212371
0.0999902337789535
0.1159784495830535
0.1308305114507675
0.1446105539798736
0.1576578170061111
0.1708319336175918
0.1855658292770385
0.2036119252443313
0.2266237288713455
0.255757063627243
0.2914018332958221
0.333087682723999
0.3795515596866607
0.4289226830005646
0.4789712131023407
0.5273722410202026
0.5719498991966248
0.6108788251876831
0.642828643321991
0.6670432090759277
0.683350145816803
0.6921041011810303
0.6940773725509644
0.6903160214424133
0.6819828748703003
0.6702138185501099
0.6560057997703552
0.6401464939117432
0.6231849789619446
0.605438232421875
0.5870249271392822
0.5679143071174622
0.5479796528816223
0.527050256729126
0.5049575567245483
0.4815716743469238
0.4568237960338592
0.4307155013084411
0.4033181667327881
0.3747649490833282
0.3452380299568176
0.3149527311325073
0.2841392457485199
0.2530249953269958
0.221822440624237
0.1907228231430053
0.1598923504352569
0.129469633102417
0.0995651185512542
0.0702622830867767
0.0416209995746612
0.0136819183826446
-0.0135294198989868
-0.0399990081787109
-0.0657248497009277
-0.0907247960567474
-0.1150494515895843
-0.138792484998703
-0.1620901823043823
-0.1851059794425964
-0.2080003023147583
-0.2308917939662933
-0.2538227438926697
-0.2767375111579895
-0.2994770407676697
-0.3217889666557312
-0.3433524966239929
-0.3638126254081726
-0.3828173875808716
-0.4000528156757355
-0.4152719676494598
-0.4283145666122436
-0.4391148686408996
-0.4476987719535827
-0.4541725516319275
-0.4587080776691437
-0.4615243077278137
-0.4628642797470093
-0.4629704356193542
-0.4620636105537414
-0.4603293240070343
-0.4579095840454101
-0.454897940158844
-0.4513390958309173
-0.447233647108078
-0.4425481259822845
-0.4372274875640869
-0.4312081336975097
-0.4244313836097717
-0.4168544411659241
-0.4084571897983551
-0.3992448151111603
-0.3892470896244049
-0.3785163760185241
-0.367124855518341
-0.3551607728004455
-0.3427246809005737
-0.3299313187599182
-0.3169214427471161
-0.3038768768310547
-0.2910245954990387
-0.2786199152469635
-0.2669117450714111
-0.256100058555603
-0.2462950050830841
-0.2374871522188186
-0.2295367419719696
-0.2221861481666565
-0.215093046426773
-0.2078743875026703
-0.200151652097702
-0.191591590642929
-0.1819371730089187
-0.1710273027420044
-0.1588080525398254
-0.1453351080417633
-0.1307644993066787
-0.1153312474489212
-0.0993185043334961
-0.0830243080854415
-0.0667313635349273
-0.0506821572780609
-0.0350613370537757
-0.0199869014322757
-0.0055101527832448
0.0083769410848617
0.0217291768640279
0.0346315316855907
0.0471804961562156
0.05946696549654
0.0715628564357757
0.0835117250680923
0.0953249186277389
0.1069843396544456
0.1184481158852577
0.129655584692955
0.1405329406261444
0.1510011553764343
0.1609838306903839
0.1704092621803283
0.1792014241218567
0.1872600317001342
0.1944406181573867
0.2005500793457031
0.2053653597831726
0.2086721658706665
0.210312083363533
0.210225909948349
0.2084845155477523
0.2052986174821853
0.201003611087799
0.1960241049528122
0.1908260285854339
0.185865968465805
0.1815444529056549
0.1781672686338424
0.1759213507175445
0.1748690158128738
0.1749565750360489
0.1760306060314178
0.1778607070446014
0.1801695078611374
0.1826654970645904
0.1850720643997192
0.1871503293514251
0.1887178868055343
0.1896625459194183
0.1899466663599014
0.1895991563796997
0.1886974275112152
0.1873462200164795
0.1856590956449508
0.1837436705827713
0.1816893815994262
0.1795584708452224
0.1773836612701416
0.175173208117485
0.1729188412427902
0.170602262020111
0.1681981235742569
0.1656746417284011
0.1629946827888488
0.1601118147373199
0.1569532752037048
0.1533965170383453
0.1492571979761123
0.144301027059555
0.1382808685302734
0.1309874951839447
0.1222979128360748
0.1122124567627906
0.1008745282888412
0.0885675698518753
0.0756894052028656
0.0627087131142616
0.050111923366785
0.0383511707186698
0.0278017558157444
0.0187303647398948
0.0112742446362972
0.0054365396499633
0.0010998528450727
-0.0019465871155261
-0.0039733098819851
-0.0052791601046919
-0.0061651063151657
-0.0069081801921129
-0.007736166473478
-0.0088107194751501
-0.0102209262549877
-0.0119860209524631
-0.014067243784666
-0.0163849852979183
-0.0188349913805723
-0.0213032085448503
-0.0236817095428705
-0.0258825942873954
-0.0278459731489419
-0.029542826116085
-0.030973844230175
-0.0321635231375694
-0.0331500135362148
-0.0339756533503532
-0.034681886434555
-0.0353079810738563
-0.0358953140676021
-0.0365016609430313
-0.037223681807518
-0.0382147245109081
-0.0396821796894073
-0.0418600067496299
-0.0449633859097957
-0.0491378903388977
-0.0544182062149047
-0.0607071928679943
-0.0677772760391235
-0.0752913206815719
-0.0828403085470199
-0.089991919696331
-0.0963380560278892
-0.1015339568257331
-0.1053293049335479
-0.1075880974531173
-0.1082922965288162
-0.1075330823659896
-0.1054956242442131
-0.1024366170167923
-0.0986529812216758
-0.0944457575678825
-0.0900864824652671
-0.0857931077480316
-0.0817182138562202
-0.0779462605714798
-0.0744973272085189
-0.0713388472795486
-0.0684025138616561
-0.0655999183654785
-0.0628357827663421
-0.0600202493369579
-0.0570794008672237
-0.0539641603827476
-0.0506564825773239
-0.047168917953968
-0.0435376688838005
-0.0398133732378482
-0.0360512398183345
-0.0323011800646781
-0.0286031085997819
-0.0249934196472167
-0.0215202458202838
-0.0182596743106842
-0.0153290629386901
-0.0128931328654289
-0.0111525356769561
-0.0103089995682239
-0.0105188824236392
-0.0118544399738311
-0.0142790973186492
-0.017636215314269
-0.0216570142656564
-0.0259891301393508
-0.0302386563271284
-0.0340178795158863
-0.0369894877076149
-0.0388984978199005
-0.0395912081003189
-0.0390222333371639
-0.0372486039996147
-0.0344133153557777
-0.0307229049503803
-0.026422657072544
-0.0217713117599487
-0.0170163363218307
-0.0123721538111567
-0.0080036837607622
-0.0040157358162105
-0.0004505086690187
0.002704257145524
0.0055006286129355
0.0080166980624198
0.0103444512933492
0.0125764561817049
0.0147933792322874
0.0170561540871858
0.0194022357463836
0.0218437314033508
0.0243681743741035
0.026942316442728
0.029517887160182
0.0320389568805694
0.034447856247425
0.0366834364831447
0.038669753819704
0.040302712470293
0.0414464101195335
0.0419455729424953
0.0416507273912429
0.0404474698007106
0.0382843613624572
0.0351965129375457
0.0313176810741424
0.0268736407160758
0.0221589803695678
0.0175034124404191
0.0132322618737816
0.0096278842538595
0.0068994583562016
0.0051657315343618
0.0044513847678899
0.0046939337626099
0.0057582939043641
0.0074565755203366
0.0095703117549419
0.0118739586323499
0.0141585003584623
0.0162516590207815
0.0180320087820291
0.0194366108626127
0.0204607881605625
0.0211482290178537
0.0215747747570276
0.0218324922025203
0.022016417235136
0.0222131535410881
0.0224915090948343
0.0228962693363428
0.023446898907423
0.024140927940607
0.0249596741050481
0.0258742235600948
0.0268482435494661
0.0278360843658447
0.0287778414785861
0.0295916385948658
0.0301648564636707
0.0303514264523983
0.0299831889569759
0.0288970731198787
0.0269694589078426
0.0241456590592861
0.0204582698643207
0.0160318464040756
0.0110725108534097
0.0058456510305404
0.0006476375856436
-0.0042246761731803
-0.0085030747577548
-0.0119718918576836
-0.0144862066954374
-0.0159839689731597
-0.0164887160062789
-0.0161018148064613
-0.0149867525324225
-0.0133469114080071
-0.0113993706181645
-0.0093501023948192
-0.0073739094659686
-0.0055999280884861
-0.0041042109951376
-0.0029107728041708
-0.0019992790184915
-0.0013161577517166
-0.0007875654846429
-0.0003332941560074
0.000120491022244
0.0006325240246951
0.0012421067804098
0.0019677353557199
0.0028088416438549
0.003750350093469
0.004766940139234
0.0058253253810107
0.0068875355646014
0.0079155415296554
0.0088707823306322
0.0097047928720712
0.0103448871523141
0.0106839044019579
0.0105836475268006
0.0098939249292016
0.008480679243803
0.0062570385634899
0.0032107196748256
-0.0005815485492348
-0.0049562822096049
-0.0096792783588171
-0.0144723569974303
-0.0190462954342365
-0.0231331773102283
-0.0265123769640922
-0.0290281474590301
-0.0305994637310504
-0.031221168115735
-0.0309562571346759
-0.0299229249358177
-0.0282790847122669
-0.0262047778815031
-0.0238834023475646
-0.0214840713888406
-0.0191474147140979
-0.0169749595224857
-0.0150219816714525
-0.0132970781996846
-0.0117703340947628
-0.0103860767558217
-0.0090760616585612
-0.0077717383392155
-0.0064140828326344
-0.0049594887532293
-0.0033824113197624
-0.0016764573520049
0.0001459374907426
0.0020559586118906
0.0040130610577762
0.0059706442989408
0.0078802024945616
0.0096920002251863
0.0113508040085434
0.0127856889739632
0.0138990189880132
0.0145647777244448
0.0146417869254946
0.0139993913471698
0.0125481123104691
0.0102657712996006
0.0072117024101316
0.0035267611965537
-0.0005789722781628
-0.0048475721850991
-0.0090007176622748
-0.0127695892006158
-0.0159223172813653
-0.018285209313035
-0.0197552200406789
-0.0203031748533248
-0.019971190020442
-0.0188651699572801
-0.0171394683420658
-0.0149761019274592
-0.0125642400234937
-0.0100813377648592
-0.0076762419193983
-0.0054569831117987
-0.0034847194328904
-0.0017736377194523
-0.0002961251884698
0.0010073985904455
0.0022132471203804
0.0033963387832045
0.0046169916167855
0.0059162927791476
0.0073159178718924
0.0088190548121929
0.0104124704375863
0.0120695857331156
0.0137546863406896
0.0154286380857229
0.0170546658337116
0.0185998082160949
0.0200277417898178
0.0212844777852296
0.0222843363881111
0.022905021905899
0.0229973271489143
0.0224092565476894
0.0210185125470161
0.0187635906040668
0.0156642422080039
0.0118270423263311
0.0074377390556037
0.0027432451024651
-0.0019750650972127
-0.006432325579226
-0.0103685222566127
-0.0135705284774303
-0.0158881470561027
-0.0172446351498365
-0.0176406651735305
-0.0171499587595462
-0.015906523913145
-0.0140865137800574
-0.011887333355844
-0.0095060840249061
-0.0071197599172592
-0.0048687327653169
-0.0028460342437028
-0.0010945377871394
0.0003890991210937
0.0016459627076983
0.0027432218194007
0.0037599876523017
0.0047726370394229
0.0058432854712009
0.0070133488625288
0.0083013055846095
0.0097034601494669
0.0111972270533442
0.0127464495599269
0.0143073871731758
0.0158347077667713
0.0172873251140117
0.0186301656067371
0.0198262799531221
0.0208198875188827
0.0215195193886756
0.0217927489429712
0.0214791651815176
0.0204206090420484
0.0184983946382999
0.0156639702618122
0.0119573986157774
0.0075131468474864
0.0025507286190986
-0.0026493431068956
-0.0077779833227396
-0.0125309908762574
-0.0166386254131793
-0.019889261573553
-0.0221462342888116
-0.0233560632914304
-0.0235476940870285
-0.0228249300271272
-0.0213523227721452
-0.0193337425589561
-0.0169870238751173
-0.0145199364051222
-0.0121099445968866
-0.0098891109228134
-0.0079363388940691
-0.0062779416330158
-0.0048943571746349
-0.0037297825329005
-0.0027039968408644
-0.0017271251417696
-0.0007147099822759
0.0004011616110801
0.0016656471416354
0.0030986405909061
0.0046953144483268
0.0064296596683561
0.0082597816362977
0.0101332254707813
0.0119932843372225
0.0137868337333202
0.0154696656391024
0.0170035921037197
0.0183425620198249
0.0194125324487686
0.0200980715453624
0.020245736464858
0.0196842830628156
0.0182586275041103
0.0158706568181514
0.0125131467357277
0.0082850400358438
0.0033856905065476
-0.001906894845888
-0.0072678681463003
-0.0123623628169298
-0.0168810077011585
-0.0205686502158641
-0.0232440289109945
-0.0248115472495555
-0.0252663549035787
-0.0246907360851764
-0.0232404135167598
-0.0211225282400846
-0.0185689069330692
-0.0158092342317104
-0.013047931715846
-0.0104465261101722
-0.0081129446625709
-0.0060986862517893
-0.0044027282856404
-0.0029806215316057
-0.0017583258450031
-0.0006487090140581
0.0004338002763688
0.0015635713934898
0.0027982676401734
0.0041746157221496
0.0057049253955483
0.0073766619898378
0.0091562857851386
0.0109959170222282
0.0128407794982194
0.0146363712847232
0.016335031017661
0.0178984887897968
0.0192897729575634
0.0204539708793163
0.021298911422491
0.0216901395469903
0.0214655250310897
0.0204639583826065
0.0185598637908697
0.0156971979886293
0.0119151659309864
0.0073566501960158
0.0022566397674381
-0.0030839317478239
-0.0083325132727622
-0.0131620299071073
-0.0172847900539636
-0.0204795375466346
-0.0226099155843257
-0.0236317701637744
-0.0235888436436653
-0.0226008426398038
-0.0208468083292245
-0.0185434855520725
-0.0159203950315713
-0.0131953516975045
-0.0105528458952903
-0.0081277247518301
-0.0059974584728479
-0.0041837748140096
-0.0026617182884365
-0.0013734721578657
-0.0002429203595966
0.0008117080433294
0.0018670697463676
0.0029860117938369
0.0042116213589906
0.0055644614621996
0.007043220102787
0.0086279464885592
0.0102847628295421
0.0119721703231334
0.0136478003114461
0.015269748866558
0.0167865436524152
0.0181194357573986
0.0191496331244707
0.0197204295545816
0.0196557454764843
0.0187908057123422
0.0170074999332427
0.0142656108364462
0.0106222284957766
0.0062353597022593
0.0013519879430532
-0.0037181137595325
-0.0086392145603895
-0.0130886118859052
-0.0167900510132312
-0.0195384137332439
-0.0212151147425174
-0.0217937789857387
-0.0213352926075458
-0.0199741646647453
-0.017900051549077
-0.0153367109596729
-0.0125193772837519
-0.0096706459298729
-0.0069768847897648
-0.0045705484226346
-0.0025217863731086
-0.0008403671090491
0.0005127594340592
0.0016091752331703
0.0025369045324623
0.0033863158896565
0.0042397072538733
0.0051644607447087
0.0062075979076325
0.007391832768917
0.0087143331766128
0.0101489070802927
0.0116521324962377
0.0131717482581734
0.0146544929593801
0.0160502847284078
0.0173084624111652
0.0183637142181396
0.019117746502161
0.0194310955703258
0.0191349666565656
0.018059603869915
0.0160699803382158
0.0131015973165631
0.0091882348060607
0.0044713597744703
-0.000812703743577
-0.0063614938408136
-0.0118421576917171
-0.0169282369315624
-0.0213322825729846
-0.0248299241065979
-0.0272743739187717
-0.0286035500466823
-0.0288414061069488
-0.0280910730361938
-0.0265182070434093
-0.0243284851312637
-0.0217440091073513
-0.0189808197319507
-0.0162296239286661
-0.0136409178376197
-0.011314763687551
-0.0092966314405202
-0.0075803780928254
-0.0061174016445875
-0.0048301345668733
-0.0036279964260756
-0.0024234636221081
-0.0011450306046754
0.0002550196368247
0.0017984437290579
0.0034834600519388
0.0052877678535878
0.0071710469201207
0.0090815676376223
0.0109660122543573
0.0127749368548393
0.0144611354917287
0.0159725937992334
0.0172406323254108
0.0181677285581827
0.0186249874532222
0.0184638518840074
0.0175390429794788
0.0157392658293247
0.0130193084478378
0.0094229523092508
0.0050894785672426
0.0002433881163597
-0.0048295697197318
-0.0098154162988066
-0.0144071234390139
-0.018335398286581
-0.0213915333151817
-0.0234412606805562
-0.0244308486580848
-0.0243867151439189
-0.0234077759087085
-0.0216513127088546
-0.0193151719868183
-0.0166169740259647
-0.0137708885595202
-0.0109656266868114
-0.0083476770669221
-0.0060119261033833
-0.00400006538257
-0.0023054115008562
-0.0008818148635327
0.0003450447693467
0.0014649413060396
0.0025689944159239
0.0037351681385189
0.0050173718482255
0.0064411973580718
0.0080048609524965
0.009683096781373
0.011432958766818
0.0132008856162428
0.0149310817942023
0.0165729150176048
0.018082370981574
0.0194142200052738
0.0205061119049787
0.0212638173252344
0.0215596593916416
0.0212474856525659
0.0201895236968994
0.018288467079401
0.0155160529538989
0.0119300168007612
0.0076760789379477
0.002975087147206
-0.0019013759447261
-0.0066598542034626
-0.0110130328685045
-0.0147065632045269
-0.0175430364906787
-0.0193989481776952
-0.0202334374189376
-0.0200881771743297
-0.0190770272165536
-0.017367847263813
-0.0151609797030687
-0.0126672387123107
-0.0100873112678527
-0.0075937015935778
-0.0053158523514866
-0.0033307939302176
-0.0016619351226836
-0.0002849518787115
0.0008618358988314
0.0018624792573973
0.0028048974927514
0.0037649811711162
0.0047990251332521
0.0059433234855532
0.0072148339822888
0.0086103603243827
0.010107297450304
0.0116676315665245
0.0132441259920597
0.0147878974676132
0.0162551756948232
0.0176088493317365
0.0188114717602729
0.0198115836828947
0.020530441775918
0.0208569001406431
0.020655084401369
0.019784964621067
0.0181315410882234
0.0156347695738077
0.012311628088355
0.0082662720233201
0.0036866813898086
-0.0011736024171113
-0.0060245469212532
-0.0105722639709711
-0.0145500069484114
-0.0177437737584114
-0.0200105048716068
-0.0212877541780471
-0.0215934738516807
-0.0210166536271572
-0.0197020377963781
-0.017832051962614
-0.015607226639986
-0.0132260369136929
-0.0108664445579051
-0.0086706820875406
-0.0067341355606913
-0.0051003117114305
-0.0037629487924277
-0.0026746550574898
-0.0017607075860723
-0.0009348187595605
-0.0001136914361268
0.0007718869601376
0.0017708197701722
0.0029089299496263
0.0041876989416778
0.0055854450911283
0.0070626242086291
0.008569911122322
0.0100560821592807
0.0114749921485781
0.0127911223098635
0.0139797497540712
0.0150179704651236
0.0158676840364933
0.0164578072726726
0.0166776962578296
0.0163887348026037
0.0154500799253582
0.0137503128498792
0.0112374499440193
0.0079399608075618
0.0039737662300467
-0.0004656948149204
-0.0051242848858237
-0.0097182402387261
-0.0139659531414508
-0.0176177602261304
-0.02047935500741
-0.0224265977740287
-0.0234127137809991
-0.0234685391187667
-0.0226945839822292
-0.021245215088129
-0.0193079840391874
-0.0170813649892807
-0.0147535167634487
-0.0124847423285245
-0.010395566932857
-0.0085606211796402
-0.0070075285620987
-0.0057203406468033
-0.0046478644944727
-0.0037165873218327
-0.0028453315608203
-0.0019581660162657
-0.0009940686868503
8.813833846943453e-05
0.0013091575819998
0.002668997272849
0.0041468003764748
0.0057038781233131
0.007290681824088
0.0088567044585943
0.0103596756234765
0.0117666320875287
0.0130431372672319
0.0141365090385079
0.0149640040472149
0.0154132405295968
0.0153553504496812
0.0146677615121006
0.0132609587162733
0.0111023932695388
0.0082333739846944
0.0047751022502779
0.0009198947809636
-0.0030900270212441
-0.0069899074733257
-0.0105213923379778
-0.0134584214538335
-0.015628058463335
-0.0169263966381549
-0.0173265039920806
-0.0168766807764768
-0.01569071598351
-0.0139313163235783
-0.0117886485531926
-0.0094576189294457
-0.0071172192692756
-0.0049140360206365
-0.0029512180481106
-0.0012838598340749
7.954868488013744e-05
0.0011706218356266
0.0020491741597652
0.0027869183104485
0.0034531743731349
0.0041098832152783
0.0048154182732105
0.0056296233087778
0.0066126827150583
0.0078143486753106
0.0092579452320933
0.0109312199056148
0.0127916513010859
0.0147813446819782
0.0168369766324758
0.0188826955854892
0.0208106637001037
0.0224634613841772
0.0236307010054588
0.0240683928132057
0.0235353503376245
0.0218299329280853
0.0188180115073919
0.0144539661705493
0.0088003128767013
0.0020452081225812
-0.0054951407946646
-0.0134015064686536
-0.0212001428008079
-0.0284210294485092
-0.0346531309187412
-0.0395833887159824
-0.0430109724402427
-0.0448411032557487
-0.0450689755380153
-0.0437635406851768
-0.0410576574504375
-0.0371440947055816
-0.0322716496884822
-0.0267353672534227
-0.0208575595170259
-0.0149607267230749
-0.009336544200778
-0.0042159697040915
0.0002527339383959
0.0040116617456078
0.007085180375725
0.009559366852045
0.0115530341863632
0.0131868254393339
0.014559912495315
0.0157389063388109
0.0167572814971208
0.0176238864660263
0.0183389168232679
0.0189089234918355
0.0193482059985399
0.0196640938520431
0.0198380723595619
0.0198152586817741
0.0195068344473838
0.0188065320253372
0.017617542296648
0.015878789126873
0.0135815236717462
0.0107755279168486
0.0075680268928408
0.004117255564779
0.0006186878308653
-0.0027186800725758
-0.0057015055790543
-0.0081760846078395
-0.0100391041487455
-0.0112349689006805
-0.0117468256503343
-0.0115899126976728
-0.0108102625235915
-0.0094856712967157
-0.0077245198190212
-0.0056606577709317
-0.0034442404285073
-0.0012280857190489
0.0008493857458233
0.002679877448827
0.0041947145946323
0.0053684548474848
0.0062197148799896
0.0068086008541285
0.0072279018349945
0.0075878975912928
0.007996023632586
0.0085345916450023
0.0092448266223073
0.0101242940872907
0.0111363334581255
0.0122245652601122
0.0133255198597908
0.0143760852515697
0.0153178516775369
0.016099739819765
0.0166761856526136
0.0170007813721895
0.0170181691646575
0.0166561119258403
0.0158222652971744
0.0144122606143355
0.0123307863250374
0.0095208780840039
0.0059912824071943
0.0018285195110365
-0.0028103399090468
-0.0077146245166659
-0.0126399546861648
-0.0173312984406948
-0.0215470250695943
-0.0250804238021373
-0.0277765318751335
-0.0295435041189193
-0.0303591135889291
-0.0302700102329254
-0.0293807052075862
-0.0278352014720439
-0.0257970578968524
-0.0234309919178485
-0.0208864696323871
-0.0182857941836118
-0.0157203208655118
-0.0132528413087129
-0.010920388624072
-0.0087353195995092
-0.0066859135404229
-0.0047393292188644
-0.00284930691123
-0.0009659100323915
0.0009585749357938
0.0029678903520107
0.0050985515117645
0.0073732351884245
0.0097949178889393
0.0123461354523897
0.0149944787845015
0.0176974441856145
0.0203947685658931
0.0229881405830383
0.0253247320652008
0.0272004008293151
0.0283842682838439
0.0286567509174346
0.0278506912291049
0.0258848629891872
0.0227836184203624
0.0186836030334234
0.0138283725827932
0.008547231554985
0.0032158871181309
-0.0017930716276168
-0.0061544831842184
-0.0096228774636983
-0.0120540568605065
-0.0134115405380725
-0.0137518756091594
-0.0131915658712387
-0.0118687897920608
-0.0099183749407529
-0.0074670440517365
-0.0046385545283555
-0.0015565855428576
0.0016568987630307
0.0048837549984455
0.0080107431858778
0.0109322508797049
0.0135561414062976
0.0158119555562734
0.0176598969846963
0.0190976243466138
0.0201606974005699
0.0209122635424137
0.0214236546307802
0.0217572003602981
0.0219601225107908
0.0220666769891977
0.0221016742289066
0.0220838207751512
0.0220296178013086
0.0219535343348979
0.0218602120876312
0.0217322763055562
0.0215195603668689
0.0211330652236938
0.0204486735165119
0.0193254668265581
0.017636377364397
0.0153014725074172
0.0123135093599557
0.0087496545165777
0.004766309633851
0.0005772598087787
-0.0035775993019342
-0.0074607832357287
-0.0108522186055779
-0.0135479690507054
-0.0153536275029182
-0.0160901024937629
-0.0156182684004306
-0.0138716930523514
-0.0108835827559232
-0.0068008005619049
-0.0018809661269187
0.0035207364708185
0.0089589599519968
0.0139180403202772
0.0178971886634826
0.0205680839717388
0.0219324026256799
0.0223875511437654
0.0226626954972744
0.0236823819577693
0.0264647863805294
0.0320469066500663
0.0412849523127079
0.0545410625636577
0.0715583860874176
0.0916287526488304
0.1137433350086212
0.1365259289741516
0.1580838412046432
0.176012635231018
0.187707245349884
0.1908845007419586
0.184049516916275
0.1667338013648986
0.1394945234060287
0.103739246726036
0.0614110082387924
0.0144868046045303
-0.0356634408235549
-0.0886715576052665
-0.1448588371276855
-0.2043030261993408
-0.265941858291626
-0.3272894620895386
-0.3848241567611694
-0.4346954226493835
-0.4733422398567199
-0.497871071100235
-0.5062955021858215
-0.4977247714996338
-0.472431480884552
-0.4317169785499573
-0.3776333928108215
-0.3126769959926605
-0.2395197749137878
-0.1608514487743377
-0.0794087275862693
0.0018439106643199
0.0795434042811393
0.1499075293540954
0.2089210748672485
0.2527765333652496
0.2785049974918365
0.2845112383365631
0.2707842886447906
0.2388376891613006
0.1915213018655777
0.1327622234821319
0.0672612786293029
0.000155109912157
-0.0633942037820816
-0.11869478225708
-0.1620205044746399
-0.1909848153591156
-0.2047223597764969
-0.2038546800613403
-0.190243661403656
-0.1665907502174377
-0.1359890252351761
-0.1015170440077781
-0.0659131482243537
-0.0313508510589599
0.000669740140438
0.0293194130063056
0.0543481111526489
0.075933076441288
0.0945039838552475
0.1105703264474868
0.1245675683021545
0.1367605626583099
0.1472316235303878
0.1559315770864486
0.1627545952796936
0.1676106452941894
0.1704808622598648
0.171447679400444
0.170699656009674
0.1685172319412231
0.165245920419693
0.1612610667943954
0.1569291353225708
0.1525723040103912
0.1484411209821701
0.1446946859359741
0.1413913369178772
0.1384971141815185
0.1359112858772277
0.1334999054670334
0.1311287581920623
0.1286858320236206
0.1260837912559509
0.1232456266880035
0.12008897960186
0.1165207922458648
0.1124398112297058
0.1077412590384483
0.1023263558745384
0.0961205661296844
0.0890960916876792
0.0812904089689254
0.0728154778480529
0.0638564378023147
0.0546592809259891
0.0455076731741428
0.0366919264197349
0.0284760221838951
0.0210692845284938
0.0146053908392786
0.0091303987428545
0.0046065654605627
0.0009347591549158
-0.002014834433794
-0.0043804608285427
-0.0063047260046005
-0.0079432055354118
-0.0094697829335927
-0.0110684465616941
-0.0129126012325286
-0.0151372477412223
-0.0178119651973247
-0.0209256038069725
-0.0243900641798973
-0.0280601717531681
-0.0317609719932079
-0.0353162810206413
-0.0385737791657447
-0.0414220578968524
-0.0438005216419696
-0.0457065105438232
-0.0471967980265617
-0.0483768284320831
-0.0493843331933021
-0.0503813400864601
-0.0515544302761554
-0.053113117814064
-0.0552782751619815
-0.0582566820085048
-0.0622071400284767
-0.0672095865011215
-0.0732442215085029
-0.080181673169136
-0.0877845510840416
-0.0957222431898117
-0.1036001071333885
-0.1110027357935905
-0.1175408512353897
-0.1228811740875244
-0.1267533749341964
-0.1289491057395935
-0.1293242871761322
-0.1278081238269806
-0.1244169324636459
-0.1192597001791
-0.1125263720750808
-0.1044654995203018
-0.0953548997640609
-0.085470013320446
-0.0750666931271553
-0.0643807426095008
-0.0536228828132152
-0.0429660640656948
-0.0325537286698818
-0.0225402750074863
-0.0131335360929369
-0.0046071782708168
0.0027268901467323
0.0085773933678865
0.0127380434423685
0.0151305254548788
0.0158174615353345
0.0149904191493988
0.0129389092326164
0.0100063430145382
0.0065409019589424
0.0028510261327028
-0.0008252197876572
-0.0043332162313163
-0.0075974483042955
-0.0106016490608453
-0.0133594265207648
-0.015884006395936
-0.0181654337793588
-0.020159987732768
-0.0217916909605264
-0.0229635499417781
-0.0235740654170513
-0.0235331878066062
-0.0227746404707431
-0.0212646126747131
-0.0190082006156444
-0.0160538088530302
-0.0124927163124084
-0.0084522161632776
-0.0040842965245246
0.0004488583654165
0.0049916710704565
0.0094099398702383
0.0135991126298904
0.0174865331500768
0.0210315883159637
0.0242252890020608
0.0270873047411441
0.0296601075679063
0.032001756131649
0.0341767407953739
0.036244973540306
0.0382535904645919
0.0402349084615707
0.0422074608504772
0.0441759079694747
0.046130109578371
0.0480457581579685
0.049886118620634
0.0516006611287593
0.0531163923442363
0.0543245077133178
0.0550742708146572
0.0551861114799976
0.0544824749231338
0.0528247468173503
0.0501469448208808
0.04647858440876
0.0419496558606624
0.0367785207927227
0.0312486328184604
0.025678027421236
0.0203859247267246
0.0156609881669282
0.0117342807352542
0.0087604634463787
0.0068098288029432
0.0058700181543827
0.0058546941727399
0.0066186506301164
0.0079786144196987
0.0097354613244533
0.0116938203573226
0.0136783514171838
0.0155462371185421
0.0171950850635767
0.0185662358999252
0.0196432396769523
0.0204458460211753
0.0210212524980306
0.0214342400431633
0.0217564273625612
0.0220543965697288
0.0223789680749177
0.0227593183517456
0.0232030898332595
0.0237003564834594
0.0242287293076515
0.0247589200735092
0.0252595916390419
0.0256970152258873
0.0260255485773086
0.0261717271059751
0.0260223262012004
0.0254265293478965
0.0242145806550979
0.0222285594791173
0.019357705488801
0.0155691727995872
0.0109256375581026
0.0055854483507573
-0.0002140305005013
-0.0061847805045545
-0.0120193073526024
-0.0174190811812877
-0.022120364010334
-0.0259150937199592
-0.0286634042859077
-0.030299974605441
-0.0308370366692543
-0.0303622726351022
-0.029028944671154
-0.0270388834178447
-0.0246204808354377
-0.0220029056072235
-0.0193895827978849
-0.0169374272227287
-0.0147469546645879
-0.0128626432269811
-0.0112803829833865
-0.0099594704806804
-0.0088356332853436
-0.0078331008553504
-0.0068764961324632
-0.005901223514229
-0.0048597888089716
-0.0037250025197863
-0.0024911696091294
-0.0011715171858668
0.0002072537317872
0.0016093449667096
0.0029921159148216
0.0043057100847363
0.0054857935756444
0.0064402464777231
0.0070414412766695
0.0071335453540086
0.0065543912351131
0.005166744813323
0.0028900522738695
-0.0002766773104667
-0.0042447745800018
-0.0088385930284857
-0.0138103943318128
-0.0188661143183708
-0.0236983820796012
-0.0280197989195585
-0.0315896794199943
-0.0342322811484336
-0.0358474031090736
-0.0364132672548294
-0.0359817743301391
-0.034668069332838
-0.0326361954212188
-0.0300811007618904
-0.0272074490785598
-0.0242081563919782
-0.0212467312812805
-0.0184452980756759
-0.0158783979713916
-0.013572777621448
-0.0115139791741967
-0.0096585685387253
-0.0079471813514828
-0.0063153812661767
-0.0047023617662489
-0.003056488931179
-0.0013388874940574
0.0004717907868325
0.0023760185576975
0.0043553584255278
0.0063776155002415
0.0084020169451832
0.010384215041995
0.0122797898948192
0.0140417432412505
0.0156100094318389
0.0168983470648527
0.0177874155342578
0.0181305650621652
0.0177744105458259
0.0165907479822635
0.0145097579807043
0.011543327011168
0.0077936691232025
0.0034475158900022
-0.0012418711557984
-0.0059818904846906
-0.0104729067534208
-0.0144395381212234
-0.0176562666893005
-0.0199652388691902
-0.0212852284312248
-0.0216125547885894
-0.0210152044892311
-0.0196212492883205
-0.0176029931753873
-0.0151579519733786
-0.0124879088252782
-0.0097781894728541
-0.0071806046180427
-0.0048025948926806
-0.0027023362927138
-0.0008897616062313
0.0006654609460383
0.00202058092691
0.0032453632447868
0.0044100661762058
0.0055773784406483
0.006797092501074
0.0081015657633543
0.0095032844692468
0.0109957419335842
0.0125564103946089
0.0141509398818016
0.0157385412603616
0.0172776356339454
0.0187282860279083
0.0200469549745321
0.0211730692535638
0.0220147930085659
0.0224456209689378
0.0223175175487995
0.0214872006326913
0.0198474843055009
0.0173557512462139
0.0140530914068222
0.0100689018145203
0.0056094611063599
0.0009342156117781
-0.0036737634800374
-0.0079373093321919
-0.0116105135530233
-0.0144984601065516
-0.0164724253118038
-0.017480319365859
-0.0175488721579313
-0.0167748257517814
-0.0153072644025087
-0.0133261978626251
-0.011021327227354
-0.0085734296590089
-0.0061395578086376
-0.0038418236654251
-0.0017611081711947
6.261374801397324e-05
0.0016259523108601
0.002956680720672
0.004106159787625
0.0051391823217272
0.0061234012246131
0.0071199662052094
0.0081755891442298
0.0093174958601593
0.0105540035292506
0.0118788927793502
0.0132745569571852
0.0147131578996777
0.0161565374583005
0.0175529196858406
0.0188297480344772
0.0198862496763467
0.0205915924161672
0.0207941103726625
0.020343204960227
0.0191180557012558
0.0170533545315265
0.0141558246687054
0.0105106905102729
0.0062784538604319
0.0016811583191156
-0.0030202746856957
-0.0075530484318733
-0.0116601474583148
-0.0151251507923007
-0.0177899021655321
-0.0195631869137287
-0.0204226039350032
-0.0204130019992589
-0.0196400173008441
-0.0182546712458133
-0.0164321865886449
-0.0143521409481763
-0.0121816992759704
-0.0100617073476314
-0.0080972583964467
-0.0063529745675623
-0.0048528965562582
-0.0035850973799824
-0.0025090686976909
-0.0015648358967155
-0.0006842075381428
0.0001975814811885
0.0011325314408168
0.0021538236178457
0.0032730174716562
0.0044817668385803
0.0057581788860261
0.0070736431516706
0.0083966189995408
0.0096946824342012
0.0109356939792633
0.0120839858427643
0.0130892815068364
0.0138738648965954
0.0143261710181832
0.0143065126612782
0.013666620478034
0.0122791053727269
0.0100687649101018
0.0070369797758758
0.0032729827798902
-0.0010503120720386
-0.0056940554641187
-0.0103799533098936
-0.0148210432380437
-0.0187523625791072
-0.0219565220177173
-0.0242805331945419
-0.0256427116692066
-0.0260320641100406
-0.0255038551986217
-0.0241724029183387
-0.022199472412467
-0.0197763815522193
-0.0171014592051506
-0.0143587607890367
-0.0117025608196854
-0.00924738869071
-0.0070621133781969
-0.0051684845238924
-0.0035459180362522
-0.0021428542677313
-0.0008913322817534
0.0002795896725729
0.0014343232614919
0.0026260267477482
0.0038939069490879
0.0052594086155295
0.0067236041650176
0.0082691069692373
0.0098647205159068
0.0114701772108674
0.0130416015163064
0.0145367151126265
0.015913663432002
0.0171198360621929
0.0180766880512237
0.0186720546334981
0.0187674742192029
0.0182195305824279
0.0169094279408454
0.0147734265774488
0.0118249338120222
0.0081617273390293
0.0039588301442563
-0.0005494805518537
-0.0050956634804606
-0.0094081042334437
-0.0132383657619357
-0.0163838919252157
-0.018703518435359
-0.0201239828020334
-0.0206392798572778
-0.0203050151467323
-0.0192284472286701
-0.0175551641732454
-0.01545294187963
-0.0130932573229074
-0.0106339668855071
-0.0082076443359255
-0.0059158401563763
-0.0038265539333224
-0.0019732527434825
-0.0003561647608876
0.0010533663444221
0.0023055896162986
0.0034617411438375
0.0045821899548172
0.0057179704308509
0.0069065913558006
0.0081695672124624
0.0095112398266792
0.0109198428690433
0.012369766831398
0.013824806548655
0.0152438562363386
0.0165864080190658
0.0178117416799068
0.0188691411167383
0.0196841824799776
0.0201516579836606
0.0201425962150096
0.0195242129266262
0.0181865766644477
0.0160691868513822
0.0131812179461121
0.0096106734126806
0.0055205672979354
0.001132566248998
-0.0032987557351589
-0.0075147291645407
-0.0112782157957553
-0.0143930781632661
-0.0167179424315691
-0.0181752350181341
-0.0187543593347072
-0.0185084752738475
-0.0175453852862119
-0.0160128641873598
-0.0140811391174793
-0.0119258910417556
