bvp
-0.1157614216208458
-0.1309806257486343
-0.1457524597644806
-0.1595842987298965
-0.1720156222581863
-0.1826642453670501
-0.191258430480957
-0.1976565718650818
-0.201853334903717
-0.2039713561534881
-0.2042430341243744
-0.2029849290847778
-0.2005626559257507
-0.197350412607193
-0.1936942636966705
-0.1898829936981201
-0.18612602353096
-0.1825412958860397
-0.1791574358940124
-0.175928920507431
-0.1727587431669235
-0.1695233285427093
-0.1660942137241363
-0.1623567640781402
-0.1582282185554504
-0.1536705195903778
-0.1486959606409073
-0.1433699429035186
-0.1378102749586105
-0.1321773827075958
-0.126653105020523
-0.1214174479246139
-0.1166466251015663
-0.1125407218933105
-0.1093497648835182
-0.1073600277304649
-0.106837198138237
-0.1079505383968353
-0.1107050254940986
-0.1149043440818786
-0.1201547235250473
-0.1259033530950546
-0.1314964890480041
-0.1362462490797042
-0.1395018696784973
-0.1407113224267959
-0.1394597291946411
-0.1355010867118835
-0.128802940249443
-0.119587555527687
-0.1083356738090515
-0.0957408994436264
-0.0826234146952629
-0.0698162019252777
-0.058040864765644
-0.0477874390780925
-0.039213553071022
-0.0321031585335731
-0.0259275883436203
-0.0199903137981891
-0.0135883465409278
-0.0061472579836845
0.0026808567345142
0.0129646733403205
0.024489551782608
0.036792978644371
0.0492283031344413
0.0610502436757087
0.0715163424611091
0.0799948349595069
0.0860613584518432
0.0895561277866363
0.0905781537294387
0.0894205048680305
0.0864770710468292
0.0821550115942955
0.0768126845359802
0.0707281529903411
0.0640982687473297
0.0570644810795784
0.0497538819909095
0.0423177406191825
0.0349505729973316
0.0278855487704277
0.0213761553168296
0.0156733840703964
0.0110026458278298
0.0075454311445355
0.0054264110513031
0.0047004795633256
0.0053376229479908
0.0072128209285438
0.0101104350760579
0.0137447593733668
0.0177923366427421
0.0219284333288669
0.0258596260100603
0.0293511841446161
0.0322486236691474
0.0344871431589126
0.0360856615006923
0.0371291860938072
0.0377464964985847
0.038090169429779
0.0383194126188755
0.03858183324337
0.0389976911246776
0.039654292166233
0.0406089015305042
0.041891910135746
0.0435064062476158
0.0454242751002311
0.0475780367851257
0.0498481318354606
0.0520509704947471
0.0539377331733703
0.0552115924656391
0.0555642917752265
0.0547245219349861
0.0525051951408386
0.0488393902778625
0.0438004396855831
0.0376026406884193
0.0305803790688514
0.023148875683546
0.0157533846795558
0.0088148033246397
0.0026841601356863
-0.0023835357278585
-0.0062379427254199
-0.0088309366255998
-0.0102055538445711
-0.0104800518602132
-0.0098309237509965
-0.008473789319396
-0.0066412054002285
-0.0045602861791849
-0.0024333484470844
-0.0004234444350004
0.0013537611812353
0.0028325747698545
0.0039963414892554
0.0048733633011579
0.0055291121825575
0.0060549080371856
0.0065534869208931
0.0071218879893422
0.0078341700136661
0.0087285200133919
0.0098021011799573
0.0110141392797231
0.0122918281704187
0.0135299805551767
0.0145845031365752
0.015271401964128
0.0153818484395742
0.0147121232002973
0.0130979148671031
0.0104442927986383
0.0067478269338607
0.0021081920713186
-0.0032731825485825
-0.0091078532859683
-0.0150464018806815
-0.0207113213837146
-0.0257316119968891
-0.0297772511839866
-0.0325928069651126
-0.0340247713029384
-0.0340369828045368
-0.0327120758593082
-0.0302381664514541
-0.0268808584660291
-0.0229438412934541
-0.0187269076704978
-0.0144931580871343
-0.0104508381336927
-0.0067471340298652
-0.0034696422517299
-0.0006522983312606
0.0017167944461107
0.0036871172487735
0.0053367875516414
0.0067614018917083
0.0080607440322637
0.0093257287517189
0.0106272716075181
0.0120082553476095
0.0134804239496588
0.0150266857817769
0.0166058167815208
0.0181541983038187
0.0195811353623867
0.0207589827477931
0.0215152185410261
0.021638223901391
0.0209029354155063
0.01910962164402
0.0161243937909603
0.0119137968868017
0.0065673785284161
0.0003025904297828
-0.0065498035401105
-0.0135772675275802
-0.0203295331448316
-0.0263685192912817
-0.0313149020075798
-0.0348837822675704
-0.0369074717164039
-0.0373476222157478
-0.0362958386540412
-0.0339568816125392
-0.0306137036532163
-0.0265840608626604
-0.0221814457327127
-0.0176858492195606
-0.0133236274123191
-0.0092561990022659
-0.0055774524807929
-0.0023168250918388
0.0005535520613193
0.0031064227223396
0.0054420717060565
0.0076697263866662
0.0098916999995708
0.0121924486011266
0.0146317165344953
0.0172408632934093
0.0200234819203615
0.0229583010077476
0.0260007157921791
0.0290835201740264
0.0321154035627841
0.0349726751446723
0.0374868251383304
0.0394393280148506
0.0405750423669815
0.0406369343400001
0.0394142903387546
0.0367910377681255
0.0327810086309909
0.0275419540703296
0.0213670525699853
0.0146565595641732
0.0078734904527664
0.0014900173991918
-0.0040659364312887
-0.0084550604224205
-0.0114560797810554
-0.012979345396161
-0.0130678135901689
-0.0118845738470554
-0.0096850544214248
-0.0067812148481607
-0.0035063419491052
-0.0001820940524339
0.0029129404574632
0.0055696982890367
0.0076624574139714
0.0091461827978491
0.0100439768284559
0.0104343127459287
0.0104383053258061
0.0102030793204903
0.0098825646564364
0.0096190078184008
0.0095283165574073
0.009691784158349
0.0101538076996803
0.0109232552349567
0.0119770038872957
0.0132657419890165
0.0147199779748916
0.0162536278367042
0.0177624449133873
0.0191110223531723
0.0201138481497764
0.0205332990735769
0.0201069097965955
0.0185934510082006
0.0158209577202796
0.0117256809026002
0.0063767032697796
-1.7805490642786026e-05
-0.0071246679872274
-0.0145166674628853
-0.0217138696461915
-0.0282313022762537
-0.0336298234760761
-0.0375620648264884
-0.0398048982024192
-0.0402757637202739
-0.0390340723097324
-0.0362692847847938
-0.032275952398777
-0.0274159889668226
-0.0220742151141166
-0.016617190092802
-0.0113609638065099
-0.0065481127239763
-0.0023355749435722
0.0012059924192726
0.0040854401886463
0.0063784690573811
0.0082071311771869
0.0097153382375836
0.0110490983352065
0.0123432986438274
0.0137083325535058
0.0152158895507454
0.0168918892741203
0.0187183450907468
0.0206405837088823
0.0225813351571559
0.0244589895009994
0.0261984318494796
0.0277286246418952
0.0289682857692241
0.0298034474253654
0.0300698652863502
0.0295554567128419
0.0280260797590017
0.0252684578299522
0.0211397893726825
0.0156113561242818
0.0087970085442066
0.0009604822844266
-0.0075028417631983
-0.0161075629293918
-0.0243345648050308
-0.0316899605095386
-0.0377553254365921
-0.0422236733138561
-0.0449204966425895
-0.0458124503493309
-0.0450058951973915
-0.0427318140864372
-0.0393146201968193
-0.0351317189633846
-0.0305722616612911
-0.025997094810009
-0.021702516824007
-0.0178947299718856
-0.0146797215566039
-0.0120660532265901
-0.0099747376516461
-0.0082566309720277
-0.0067209722474217
-0.0051702768541872
-0.0034311399795114
-0.0013754600659012
0.0010677445679903
0.0039083678275346
0.0070983041077852
0.010541439987719
0.0141091225668787
0.017658932134509
0.0210539512336254
0.0241770297288894
0.0269327387213706
0.0292325131595134
0.030967716127634
0.0319859981536865
0.0320874415338039
0.0310465618968009
0.0286545939743518
0.0247711222618818
0.0193719342350959
0.0125797968357801
0.0046706870198249
-0.0039457902312278
-0.0127693116664886
-0.0212655756622552
-0.0289240945130586
-0.0353096090257167
-0.0401040650904178
-0.0431350022554397
-0.044386051595211
-0.0439884141087532
-0.0421953722834587
-0.0393439345061779
-0.0358095914125442
-0.0319612920284271
-0.028123065829277
-0.0245473030954599
-0.0214021168649196
-0.0187698025256395
-0.0166525449603796
-0.014985573478043
-0.0136569822207093
-0.0125301126390695
-0.0114649413153529
-0.0103354034945368
-0.0090406546369194
-0.0075109773315489
-0.0057094260118901
-0.0036296225152909
-0.0012912210077047
0.0012648743577301
0.0039805364795029
0.0067816036753356
0.0095715951174497
0.0122168231755495
0.0145306419581174
0.0162697732448577
0.0171535275876522
0.0169065222144126
0.0153129864484071
0.0122679658234119
0.0078147836029529
0.0021603782661259
-0.0043372092768549
-0.0112073365598917
-0.0179217159748077
-0.0239540971815586
-0.0288359448313713
-0.0322029776871204
-0.0338285043835639
-0.0336406044661998
-0.0317219048738479
-0.0282929018139839
-0.0236822329461574
-0.018287356942892
-0.0125289065763354
-0.0068037454038858
-0.0014440082013607
0.0033104848116636
0.0073242629878222
0.0105655500665307
0.013094438239932
0.0150403445586562
0.0165730938315391
0.0178741756826639
0.0191121399402618
0.0204244572669267
0.0219072364270687
0.0236108787357807
0.0255404226481914
0.0276612788438797
0.0299079231917858
0.0321933850646019
0.0344218760728836
0.0365042015910148
0.0383682623505592
0.0399553775787353
0.0411995872855186
0.0419971905648708
0.042182270437479
0.0415251590311527
0.0397616922855377
0.0366460978984832
0.0320120379328727
0.0258261654525995
0.0182205513119697
0.0094964578747749
0.0001005639787763
-0.0094215404242277
-0.0184884704649448
-0.0265510566532611
-0.0331502482295036
-0.0379575043916702
-0.0407979749143123
-0.041656494140625
-0.0406662002205848
-0.0380832254886627
-0.0342520698904991
-0.0295658782124519
-0.0244261156767606
-0.0192057602107524
-0.0142188407480716
-0.0096982838585972
-0.0057836244814097
-0.0025200620293617
0.0001304312609136
0.0022683311253786
0.0040320996195077
0.0055749262683093
0.0070442534051835
0.0085654938593506
0.0102311829105019
0.0120950154960155
0.0141698289662599
0.0164303667843341
0.0188216678798198
0.0212705787271261
0.0236969795078039
0.0260231625288724
0.0281797181814908
0.0301047600805759
0.0317322984337806
0.0329689607024192
0.0336688049137592
0.0336233302950859
0.0325783677399158
0.0302764978259801
0.0265141054987907
0.0212002135813236
0.0144027881324291
0.0063670049421489
-0.0025010295212268
-0.0116790514439344
-0.0205913111567497
-0.0286765713244676
-0.0354481972754001
-0.0405393242835998
-0.04373125359416
-0.0449631363153457
-0.0443248376250267
-0.0420372039079666
-0.0384208410978317
-0.03385591506958
-0.0287399385124444
-0.0234493911266326
-0.0183077398687601
-0.0135619631037116
-0.0093699302524328
-0.0057990686036646
-0.0028344022575765
-0.0003942891489714
0.0016478016041219
0.0034389134962111
0.0051230108365416
0.0068213758058846
0.0086206961423158
0.0105695221573114
0.012680328451097
0.0149344503879547
0.0172888319939374
0.0196842569857835
0.0220530685037374
0.0243252646178007
0.026434713974595
0.0283250119537115
0.0299498699605464
0.0312608741223812
0.0321812890470027
0.0325786396861076
0.0322557762265205
0.0309711322188377
0.0284841265529394
0.0246126763522624
0.019288245588541
0.0125955138355493
0.0047862529754638
-0.0037374859675765
-0.0124686351045966
-0.0208590794354677
-0.0283859986811876
-0.0346061512827873
-0.0391933768987655
-0.0419609136879444
-0.0428701415657997
-0.0420250818133354
-0.0396517626941204
-0.0360670126974582
-0.0316428840160369
-0.0267678461968898
-0.0218077693134546
-0.017073193565011
-0.0127955134958028
-0.0091139012947678
-0.0060753799043595
-0.0036457264795899
-0.0017270776443183
-0.0001805890351533
0.0011490117758512
0.0024121685419231
0.0037380140274763
0.005221935454756
0.0069184321910142
0.0088401967659592
0.0109623437747359
0.0132304755970835
0.0155713660642504
0.0179038289934396
0.02014728076756
0.0222252290695905
0.0240584183484315
0.0255465451627969
0.0265474542975425
0.0268679335713386
0.0262778010219335
0.024548090994358
0.0215029790997505
0.017071783542633
0.0113271418958902
0.0044976053759455
-0.0030490402132272
-0.0108464155346155
-0.0183841604739427
-0.0251659862697124
-0.0307621397078037
-0.0348501838743686
-0.0372409783303737
-0.0378885567188262
-0.0368849076330661
-0.0344425104558467
-0.0308665484189987
-0.0265193916857242
-0.0217811707407236
-0.0170104373246431
-0.0125106172636151
-0.0085065625607967
-0.0051315957680344
-0.0024248491972684
-0.0003392923390492
0.001240094541572
0.0024703158996999
0.0035210729110985
0.0045479638502001
0.0056735463440418
0.0069783166982233
0.0084992665797472
0.0102334106341004
0.0121449884027242
0.0141746811568737
0.0162501651793718
0.0182975158095359
0.020250454545021
0.0220553614199161
0.0236732177436351
0.0250775814056396
0.0262430924922227
0.0271223094314336
0.027619270607829
0.0275739580392837
0.0267684273421764
0.0249580964446067
0.0219221077859401
0.0175200793892145
0.0117409992963075
0.0047310180962085
-0.0032077468931674
-0.0116460369899868
-0.0200764648616313
-0.0279739312827587
-0.0348572209477424
-0.0403396151959896
-0.0441615805029869
-0.0462062209844589
-0.0464982986450195
-0.0451878197491169
-0.0425239466130733
-0.0388244986534118
-0.034442238509655
-0.029728865250945
-0.0250011160969734
-0.0205145627260208
-0.0164473429322242
-0.0128939431160688
-0.009869453497231
-0.0073221302591264
-0.0051508350297808
-0.0032260087318718
-0.0014121048152446
0.0004136264324188
0.0023492467589676
0.004461180884391
0.0067804683931171
0.0093029011040925
0.0119921080768108
0.0147852525115013
0.0176026858389377
0.0203595422208309
0.0229757446795701
0.0253836084157228
0.0275318287312984
0.0293822418898344
0.0308956541121006
0.0320065952837467
0.032596331089735
0.0324813164770603
0.0314291529357433
0.0292011070996522
0.0256099142134189
0.0205770581960678
0.0141750741750001
0.0066439802758395
-0.0016243790742009
-0.0101316031068563
-0.0183355305343866
-0.025715060532093
-0.0318259894847869
-0.0363417938351631
-0.0390762090682983
-0.0399886406958103
-0.0391745194792747
-0.0368427522480487
-0.0332859456539154
-0.0288485065102577
-0.0238934457302093
-0.0187691561877727
-0.0137789817526936
-0.0091565586626529
-0.005051058717072
-0.0015251105651259
0.0014365464448928
0.0039116023108363
0.0060197990387678
0.0078993244096636
0.0096847619861364
0.0114908944815397
0.0134031269699335
0.0154739515855908
0.0177231933921575
0.020138831809163
0.0226788632571697
0.0252765156328678
0.027848832309246
0.0303081423044204
0.0325744897127151
0.0345842465758323
0.0362929478287696
0.037674393504858
0.0387142896652221
0.0393917933106422
0.0396497398614883
0.0393682681024074
0.0383600331842899
0.0363957397639751
0.0332535505294799
0.0287778489291667
0.0229325424879789
0.015834055840969
0.0077550085261464
-0.0009001693688333
-0.0096416547894477
-0.0179531034082174
-0.0253507681190967
-0.0314330719411373
-0.0359147042036056
-0.0386440940201282
-0.0396069400012493
-0.0389175415039062
-0.0367991663515567
-0.0335565172135829
-0.0295429248362779
-0.0251235105097293
-0.020638870075345
-0.0163753312081098
-0.0125431306660175
-0.0092633478343486
-0.0065680732950568
-0.0044139400124549
-0.0027018787804991
-0.0012983535416424
-5.7620927691459656e-05
0.0011585047468543
0.002467249520123
0.0039562573656439
0.0056778765283524
0.0076479720883071
0.009848516434431
0.0122320419177412
0.0147288162261247
0.0172558035701513
0.0197255965322256
0.0220553930848836
0.0241746380925178
0.0260281730443239
0.0275703556835651
0.0287461765110492
0.029464753344655
0.0295810587704181
0.0288997888565063
0.0272032264620065
0.0242961812764406
0.0200594011694192
0.0144984824582934
0.0077713392674922
0.0001856684684753
-0.0078318789601325
-0.0157881043851375
-0.023183848708868
-0.0295689422637224
-0.0345860198140144
-0.0380015075206756
-0.0397205539047718
-0.0397851653397083
-0.0383590348064899
-0.0357026681303978
-0.0321412645280361
-0.0280286185443401
-0.0237106252461671
-0.0194921866059303
-0.0156120983883738
-0.0122284041717648
-0.0094136586412787
-0.0071592666208744
-0.0053888903930783
-0.0039800452068448
-0.0027894503436982
-0.0016757699195295
-0.0005161291919648
0.0007837909506633
0.0022842630278319
0.0040089986287057
0.0059470823034644
0.0080605624243617
0.010293299332261
0.0125768948346376
0.0148359192535281
0.0169952753931283
0.0189883112907409
0.02076281234622
0.0222832038998603
0.0235253646969795
0.0244585201144218
0.0250169336795806
0.0250756498426198
0.0244453605264425
0.0228940341621637
0.0201936345547437
0.0161801744252443
0.0108088487759232
0.0041888048872351
-0.0034096054732799
-0.0115775233134627
-0.0198173038661479
-0.0276061333715915
-0.0344577059149742
-0.0399718880653381
-0.0438681878149509
-0.0460037440061569
-0.0463765114545822
-0.0451137349009513
-0.0424490049481391
-0.038691833615303
-0.0341928452253341
-0.0293082315474748
-0.0243669264018535
-0.0196432322263717
-0.015337343327701
-0.0115659451112151
-0.0083638541400432
-0.0056951791048049
-0.0034700389951467
-0.0015633455477654
0.000165028963238
0.0018496294505894
0.0036019638646394
0.0054996223188936
0.0075825010426342
0.0098545001819729
0.0122888209298253
0.0148350708186626
0.0174271799623966
0.0199920050799846
0.0224578436464071
0.0247614942491054
0.0268529001623392
0.0286963544785976
0.0302658602595329
0.0315318964421749
0.0324385911226272
0.0328781902790069
0.0326784588396549
0.0316153950989246
0.0294526293873786
0.0259993355721235
0.0211698561906814
0.0150257181376218
0.0077894064597785
-0.0001709752250462
-0.0083832051604986
-0.0163293741643428
-0.0235066264867782
-0.029480904340744
-0.0339291878044605
-0.0366646610200405
-0.0376432202756404
-0.0369545593857765
-0.0348012968897819
-0.0314708203077316
-0.0273032933473587
-0.0226562619209289
-0.0178696196526289
-0.0132367741316556
-0.0089834686368703
-0.0052544604986906
-0.0021106405183672
0.0004632482305169
0.002543413080275
0.0042466497980058
0.0057075647637248
0.0070587238296866
0.0084167905151844
0.0098732244223356
0.0114885298535227
0.0132906194776296
0.0152759086340665
0.0174116324633359
0.0196412801742553
0.0218936689198017
0.0240916572511196
0.0261582788079977
0.0280230976641178
0.0296299457550048
0.0309422481805086
0.0319420397281646
0.032618872821331
0.0329455025494098
0.0328468047082424
0.0321792922914028
0.0307370331138372
0.0282878652215003
0.0246309600770473
0.0196577627211809
0.0133981611579656
0.0060410224832594
-0.0020748618990182
-0.010497448965907
-0.0187172312289476
-0.0262297578155994
-0.032593049108982
-0.0374711453914642
-0.0406596697866916
-0.0420954152941703
-0.0418531000614166
-0.040129080414772
-0.0372124016284942
-0.0334475375711917
-0.0291955731809139
-0.0247994121164083
-0.0205542892217636
-0.0166840255260467
-0.0133266998454928
-0.0105328252539038
-0.008274202235043
-0.00646010087803
-0.0049587409012019
-0.0036214650608599
-0.0023048799484968
-0.0008867532014846
0.0007236814126372
0.0025793514214456
0.0046941759064793
0.0070465477183461
0.0095851635560393
0.0122370794415473
0.0149179091677069
0.0175423882901668
0.0200336389243602
0.0223291032016277
0.0243774764239788
0.0261204950511455
0.0274646133184433
0.0282597243785858
0.0283012017607688
0.0273604523390531
0.0252356361597776
0.0218064002692699
0.0170774832367897
0.0112005528062582
0.0044695436954498
-0.002708978485316
-0.0098644439131021
-0.0165192317217588
-0.0222418773919343
-0.0266895424574613
-0.0296366438269615
-0.030988123267889
-0.0307790972292423
-0.0291631799191236
-0.0263903010636568
-0.0227758139371871
-0.0186636783182621
-0.0143889700993895
-0.010245862416923
-0.0064637237228453
-0.0031923521310091
-0.0004979665391147
0.0016310978680849
0.0032718966249376
0.0045482306741178
0.0056075537577271
0.0065980944782495
0.0076493681408464
0.0088581051677465
0.0102810645475983
0.011934214271605
0.0137968398630619
0.0158189889043569
0.0179304890334606
0.02005036175251
0.0220960304141044
0.023991635069251
0.0256748180836439
0.0271012019366025
0.0282450057566165
0.0290913935750722
0.0296153705567121
0.0297514516860246
0.0293699689209461
0.0282755829393863
0.0262342635542154
0.0230250172317028
0.0185019243508577
0.0126454792916774
0.005589535459876
-0.0023782961070537
-0.0108429435640573
-0.0193125065416097
-0.027281429618597
-0.0342899896204471
-0.0399689562618732
-0.0440668649971485
-0.0464622899889946
-0.0471639111638069
-0.0463004410266876
-0.0441008284687995
-0.0408660806715488
-0.0369351841509342
-0.0326478406786918
-0.0283097065985202
-0.0241670757532119
-0.0203926172107458
-0.0170806609094142
-0.0142510021105408
-0.0118598146364092
-0.0098154721781611
-0.0079975863918662
-0.0062773926183581
-0.004535645712167
-0.0026749186217784
-0.0006268755532801
0.0016442476771771
0.0041408338584005
0.0068333093076944
0.0096657471731305
0.0125648975372314
0.0154492296278476
0.0182375889271497
0.0208575688302516
0.0232521072030067
0.0253815874457359
0.0272179655730724
0.0287295281887054
0.0298577863723039
0.0304923467338085
0.0304578337818384
0.0295290853828191
0.0274769589304924
0.0241283141076564
0.0194203630089759
0.0134359961375594
0.0064117861911654
-0.0012829024344682
-0.0091899875551462
-0.0168195981532335
-0.0237073041498661
-0.029461208730936
-0.0337943248450756
-0.036542285233736
-0.0376673713326454
-0.0372507609426975
-0.0354756936430931
-0.0326030738651752
-0.0289413202553987
-0.0248138308525085
-0.0205279439687728
-0.0163479819893836
-0.0124740917235612
-0.0090299360454082
-0.0060620158910751
-0.003549781627953
-0.0014220066368579
0.0004253480583429
0.0021106293424963
0.0037482418119907
0.0054348595440387
0.0072420518845319
0.0092137278988957
0.011365951038897
0.0136872231960296
0.0161405950784683
0.0186688601970672
0.0212017558515071
0.0236648358404636
0.0259882435202598
0.0281124897301197
0.0299899149686098
0.0315790139138698
0.0328270606696605
0.0336434096097946
0.033878605812788
0.033327966928482
0.031766228377819
0.0290025267750024
0.0249371696263551
0.0196029152721166
0.0131791522726416
0.0059778154827654
-0.0015922500751912
-0.0090740025043487
-0.0160140395164489
-0.0220081731677055
-0.0267365537583827
-0.0299886781722307
-0.0316772237420082
-0.031838234513998
-0.0306191910058259
-0.0282581374049186
-0.0250547658652067
-0.0213359259068965
-0.0174209401011466
-0.0135913025587797
-0.0100667644292116
-0.0069900024682283
-0.0044229021295905
-0.0023537063971161
-0.0007111369632184
0.0006171027198433
0.0017639347352087
0.0028633621986955
0.0040341257117688
0.0053679277189075
0.0069215623661875
0.0087127154693007
0.0107211787253618
0.0128961093723773
0.0151668116450309
0.0174540467560291
0.019679982215166
0.0217751562595367
0.023682527244091
0.0253575146198272
0.0267588980495929
0.0278281290084123
0.0284646023064851
0.0285112522542476
0.0277620460838079
0.0259941089898347
0.0230178833007812
0.0187315735965967
0.0131638254970312
0.0064914552494883
-0.0009718248620629
-0.0088098924607038
-0.0165530182421207
-0.0237321481108665
-0.0299293659627437
-0.0348175652325153
-0.0381854549050331
-0.039947286248207
-0.0401401706039905
-0.0389110520482063
-0.0364939905703067
-0.0331810563802719
-0.0292910560965538
-0.0251384954899549
-0.0210044141858816
-0.0171130299568176
-0.0136181712150573
-0.0105990171432495
-0.0080636264756321
-0.0059593319892883
-0.0041878377087414
-0.0026248698122799
-0.00114251463674
0.000372156035155
0.0020056180655956
0.0038126222789287
0.0058149653486907
0.0080031286925077
0.0103416200727224
0.0127769540995359
0.0152451628819108
0.0176778025925159
0.0200072601437568
0.0221719648689031
0.0241209957748651
0.025816187262535
0.0272269025444984
0.0283123143017292
0.0289947371929883
0.0291372612118721
0.0285413041710853
0.0269741564989089
0.0242222845554351
0.0201515331864357
0.0147542702034115
0.0081726489588618
0.0006942180916666
-0.007278611883521
-0.0152775458991527
-0.0228247754275798
-0.0294858962297439
-0.0349116176366806
-0.0388644039630889
-0.0412286780774593
-0.0420072488486766
-0.0413088425993919
-0.0393299087882041
-0.036331120878458
-0.032608974725008
-0.0284662973135709
-0.0241852924227714
-0.0200045648962259
-0.0161025077104568
-0.0125897582620382
-0.0095102004706859
-0.0068476824089884
-0.0045376243069767
-0.0024828980676829
-0.0005709561519324
0.0013095568865537
0.0032538254745304
0.0053306524641811
0.0075783152133226
0.0100038712844252
0.0125844646245241
0.0152712874114513
0.0179957635700702
0.0206781066954135
0.0232383012771606
0.0256060902029275
0.0277270004153251
0.0295649114996194
0.0310997236520051
0.0323156602680683
0.0331782810389995
0.0336059406399726
0.033451035618782
0.0325075276196002
0.030548445880413
0.0273814685642719
0.0229047816246747
0.0171482600271701
0.0102901570498943
0.0026454762555658
-0.0053693959489464
-0.0132860504090785
-0.0206385217607021
-0.0270139183849096
-0.0320907197892665
-0.0356611385941505
-0.0376386158168315
-0.0380539968609809
-0.0370430909097194
-0.0348263271152973
-0.0316822119057178
-0.0279183629900217
-0.0238428004086017
-0.0197361353784799
-0.0158270895481109
-0.0122763598337769
-0.0091704335063695
-0.0065234079957008
-0.0042874827049672
-0.002372202463448
-0.0006657657213509
0.0009480416774749
0.0025766622275114
0.0043072905391454
0.0061984900385141
0.008276511915028
0.0105361882597208
0.0129462303593754
0.0154567863792181
0.0180053487420082
0.0205212421715259
0.0229322165250778
0.0251724421977996
0.0271842293441295
0.0289061982184648
0.0302509404718875
0.031085317954421
0.0312276296317577
0.0304685365408658
0.0286117512732744
0.0255223549902439
0.0211693402379751
0.0156525839120149
0.0092070335522294
0.0021821693517267
-0.0049968911334872
-0.0118785500526428
-0.018036289140582
-0.0231123734265565
-0.026848092675209
-0.0291012991219759
-0.029851384460926
-0.0291918069124221
-0.027311835438013
-0.0244702249765396
-0.020966263487935
-0.0171115584671497
-0.0132020292803645
-0.0094918813556432
-0.0061730006709694
-0.0033622852060943
-0.0010984753025695
0.0006518327863886
0.001979683060199
0.0030124823097139
0.0038905697874724
0.0047463923692703
0.0056890249252319
0.006795453839004
0.008108134381473
0.0096361404284834
0.011358018964529
0.0132266990840435
0.0151770245283842
0.0171351619064807
0.01902686804533
0.02078259550035
0.0223424509167671
0.0236614309251308
0.0247085206210613
0.0254548862576484
0.0258513372391462
0.0258018020540475
0.0251486655324697
0.0236852131783962
0.0211970750242471
0.0175187923014163
0.0125861810520291
0.0064699063077569
-0.0006172712892293
-0.0083388797938823
-0.0162724256515502
-0.0239587314426898
-0.030953612178564
-0.0368731878697872
-0.0414279289543628
-0.0444434732198715
-0.0458673909306526
-0.0457624904811382
-0.0442902259528636
-0.0416882745921611
-0.0382440313696861
-0.0342657081782817
-0.0300534144043922
-0.0258725453168153
-0.0219313167035579
-0.0183660220354795
-0.0152382450178265
-0.0125433579087257
-0.010224818252027
-0.0081903534010052
-0.0063294479623436
-0.0045304037630558
-0.0026940391398966
-0.0007429510587826
0.0013729615602642
0.00367436488159
0.0061540431343019
0.0087807122617959
0.0115035949274897
0.0142585476860404
0.0169755537062883
0.0195859707891941
0.0220287088304758
0.0242547020316123
0.0262276530265808
0.0279166344553232
0.029277404770255
0.0302266161888837
0.0306219831109046
0.0302639883011579
0.0289258006960153
0.0264039915055036
0.0225741676986217
0.0174348428845405
0.0111284088343381
0.0039355056360363
-0.0037543075159192
-0.011487471871078
-0.0187976732850074
-0.0252560935914516
-0.0305141452699899
-0.0343324169516563
-0.036593921482563
-0.0373039469122886
-0.0365778766572475
-0.0346197374165058
-0.0316962338984012
-0.028108712285757
-0.0241637956351041
-0.0201451238244771
-0.0162897557020187
-0.0127720348536968
-0.0096952449530363
-0.0070915212854743
-0.0049302955158054
-0.0031323358416557
-0.0015868926420807
-0.0001702867448329
0.0012377053499221
0.0027409275062382
0.0044157090596854
0.0063033350743353
0.0084092523902654
0.0107073886319994
0.0131471529603004
0.0156626626849174
0.0181822851300239
0.0206364095211029
0.0229626931250095
0.0251065455377101
0.0270125791430473
0.0286054536700248
0.0297669116407632
0.0303243957459926
0.0300648808479309
0.028773920610547
0.0262871906161308
0.0225380696356296
0.0175885166972875
0.0116370180621743
0.0050026951357722
-0.0019099730998277
-0.0086582517251372
-0.0148113695904612
-0.0199945010244846
-0.0239207725971937
-0.0264111999422311
-0.0274045765399932
-0.0269576217979192
-0.0252329763025045
-0.0224749967455863
-0.0189786069095134
-0.0150563092902302
-0.011006268672645
-0.0070856241509318
-0.003491885960102
-0.0003520939499139
0.0022804164327681
0.0044210357591509
0.0061409841291606
0.0075488612055778
0.0087709128856658
0.0099324872717261
0.0111415544524788
0.0124769136309623
0.0139833632856607
0.0156721025705337
0.0175235122442245
0.0194930359721183
0.0215204320847988
0.0235386118292808
0.0254807546734809
0.0272867064923048
0.0289049446582794
0.0302851200103759
0.0313605554401874
0.0320249386131763
0.0321155339479446
0.0314193740487098
0.0297075677663087
0.0267863646149635
0.0225487295538187
0.0170139744877815
0.0103464294224977
0.0028477306477725
-0.0050750966183841
-0.0129570243880152
-0.0203288532793521
-0.0267681665718555
-0.0319390073418617
-0.0356179140508174
-0.037706971168518
-0.0382332205772399
-0.037335455417633
-0.0352410450577735
-0.03223542496562
-0.0286292992532253
-0.0247283782809972
-0.0208071079105138
-0.0170874800533056
-0.0137252807617187
-0.0108056599274277
-0.0083471201360225
-0.0063110371120274
-0.0046142227947711
-0.0031446928624063
-0.0017813862068578
-0.0004130680172238
0.0010494207963347
0.0026671334635466
0.0044709998182952
0.0064622913487255
0.0086146024987101
0.0108790965750813
0.0131927700713276
0.0154862888157367
0.0176907386630773
0.01974443718791
0.0215978641062974
0.023212619125843
0.0245516579598188
0.0255605913698673
0.0261435359716415
0.026143655180931
0.0253454074263572
0.0235088933259248
0.0204267222434282
0.0159825235605239
0.0101939737796783
0.0032308315858244
-0.0045943763107061
-0.012859946116805
-0.021085113286972
-0.0287851560860872
-0.035522237420082
-0.0409467592835426
-0.04482426866889
-0.0470457300543785
-0.0476250313222408
-0.0466875098645687
-0.0444494746625423
-0.041190106421709
-0.0372204259037971
-0.0328529775142669
-0.0283744744956493
-0.0240239705890417
-0.0199773628264665
-0.0163389183580875
-0.013141949661076
-0.0103582413867115
-0.0079130455851554
-0.0057026711292564
-0.0036124470643699
-0.0015326868742704
0.0006286650896072
0.0029373271390795
0.005428307224065
0.0081055397167801
0.010944889858365
0.0138989184051752
0.0169021524488925
0.0198777522891759
0.0227461624890565
0.0254349540919065
0.0278871059417724
0.0300619434565305
0.0319241695106029
0.0334213487803936
0.0344570502638816
0.0348739437758922
0.0344607532024383
0.0329868048429489
0.0302553325891494
0.0261591430753469
0.0207225810736417
0.0141196260228753
0.0066647860221564
-0.0012198711046949
-0.0090538384392857
-0.0163537748157978
-0.0226857103407382
-0.0277071576565504
-0.0311947613954544
-0.0330549106001853
-0.0333193689584732
-0.0321309715509414
-0.0297225844115018
-0.0263892710208892
-0.022455871105194
-0.0182459466159343
-0.0140538159757852
-0.0101186893880367
-0.0066051227040588
-0.00359414704144
-0.0010853745043277
0.0009895707480609
0.0027436185628175
0.0043076202273368
0.0058079957962036
0.0073504606261849
0.0090096592903137
0.0108264591544866
0.0128111569210886
0.0149475308135151
0.0171963013708591
0.019499747082591
0.0217884238809347
0.0239897221326828
0.0260370057076215
0.0278762429952621
0.0294648390263319
0.0307576451450586
0.0316819548606872
0.032114028930664
0.0318732410669326
0.0307430084794759
0.0285163652151823
0.0250518228858709
0.0203204359859228
0.014431620016694
0.0076332432217895
0.0002879463136196
-0.0071672461926937
-0.0142705999314785
-0.0205871704965829
-0.0257537961006164
-0.0295118875801563
-0.0317258015275001
-0.0323864035308361
-0.0316013768315315
-0.0295750834047794
-0.0265815611928701
-0.0229336619377136
-0.018950218334794
-0.0149245988577604
-0.0110996607691049
-0.0076518729329109
-0.0046846568584442
-0.0022304086014628
-0.0002596364356577
0.0013052155263721
0.0025737155228853
0.0036705487873405
0.0047188783064484
0.0058259661309421
0.0070721567608416
0.0085037453100085
0.0101317651569843
0.0119371144101023
0.0138781554996967
0.0158976633101701
0.0179300308227539
0.0199081134051084
0.0217640288174152
0.0234188940376043
0.0247636772692203
0.025641493499279
0.0258450768887996
0.0251379981637001
0.0232977233827114
0.020168550312519
0.0157085545361042
0.0100184977054595
0.0033452417701482
-0.0039428733289241
-0.0114017203450202
-0.0185645371675491
-0.0249912645667791
-0.0303094498813152
-0.0342457070946693
-0.0366457849740982
-0.0374811366200447
-0.0368425101041793
-0.0349224656820297
-0.0319892019033432
-0.028355611488223
-0.0243464335799217
-0.0202652551233768
-0.016366172581911
-0.0128349978476762
-0.0097809368744492
-0.0072375098243355
-0.0051716268062591
-0.0034991679713129
-0.0021042395383119
-0.0008595404215157
0.0003553929273039
0.0016410199459642
0.0030695591121912
0.0046807192265987
0.0064807813614606
0.0084449127316474
0.010524183511734
0.0126561503857374
0.0147747360169887
0.0168175231665372
0.0187306143343448
0.0204706396907567
0.0220015570521354
0.0232823863625526
0.0242459028959274
0.0247760042548179
0.0246962420642375
0.0237816851586103
0.0217986106872558
0.0185619052499532
0.0139912078157067
0.0081489672884345
0.0012502120807766
-0.0063566965982317
-0.0142312105745077
-0.0218936931341886
-0.0288801118731498
-0.0347899384796619
-0.0393220894038677
-0.0422960296273231
-0.0436579659581184
-0.0434738397598266
-0.041911382228136
-0.0392144843935966
-0.0356742329895496
-0.0315994508564472
-0.0272875986993312
-0.0229991450905799
-0.0189386755228042
-0.0152433440089225
-0.0119795594364404
-0.009148946031928
-0.0067017064429819
-0.0045531364157795
-0.002599733415991
-0.000733436550945
0.0011463151313364
0.0031226847786456
0.0052536488510668
0.0075668334029614
0.0100576356053352
0.0126912035048007
0.0154090952128171
0.0181395094841718
0.0208081007003784
0.0233477130532264
0.0257058385759592
0.0278462301939725
0.029739212244749
0.0313387066125869
0.0325533375144004
0.0332267954945564
0.033142440021038
0.0320576503872871
0.0297589711844921
0.0261195637285709
0.0211414825171232
0.0149740912020206
0.0079075815156102
0.0003440001746639
-0.0072488854639232
-0.0143926013261079
-0.0206523463129997
-0.0256814546883106
-0.0292497351765632
-0.0312546789646148
-0.0317187048494815
-0.030775899067521
-0.0286497268825769
-0.0256239157170057
-0.0220104362815618
-0.0181172769516706
-0.0142190176993608
-0.0105348713696002
-0.0072162663564085
-0.0043431827798485
-0.0019290028139948
6.767362356185913e-05
0.0017287889495491
0.0031629116274416
0.0044900467619299
0.005824910942465
0.0072621419094502
0.0088660093024373
0.010665388777852
0.0126545401290059
0.0147990062832832
0.0170441940426826
0.0193243324756622
0.0215707719326019
0.0237185508012771
0.0257101468741893
0.0274936500936746
0.0290109403431415
0.0301766693592071
0.0308578833937644
0.0308699570596218
0.0299996603280305
0.0280506461858749
0.0248949751257896
0.0205142740160226
0.0150207988917827
0.0086558274924755
0.0017674511764198
-0.005226987414062
-0.0118877850472927
-0.0178019013255834
-0.0226252377033233
-0.0261130277067422
-0.0281373225152492
-0.0286906491965055
-0.027876378968358
-0.0258898567408323
-0.0229944456368684
-0.0194931775331497
-0.0156965367496013
-0.011890809983015
-0.0083116637542843
-0.0051258322782814
-0.0024230503477156
-0.0002192938700318
0.0015303996624425
0.0029141216073185
0.0040444419719278
0.0050407126545906
0.0060133077204227
0.0070518627762794
0.0082192914560437
0.0095508433878421
0.0110553707927465
0.0127170886844396
0.0144991977140307
0.0163496434688568
0.0182064659893512
0.0200027041137218
0.0216723158955574
0.0231517162173986
0.024367868900299
0.0252146963030099
0.0255329199135303
0.0251107104122638
0.023713681846857
0.0211376473307609
0.0172659046947956
0.0121117904782295
0.0058351019397377
-0.0012684687972068
-0.0087993657216429
-0.0163006708025932
-0.0233117993921041
-0.0294193513691425
-0.0342952273786067
-0.0377201773226261
-0.0395954884588718
-0.0399431660771369
-0.0388945080339908
-0.0366688296198844
-0.0335455536842346
-0.0298339929431676
-0.0258434414863586
-0.0218544583767652
-0.018094178289175
-0.0147198783233761
-0.0118130519986152
-0.0093837128952145
-0.0073820333927869
-0.0057137785479426
-0.0042582061141729
-0.0028866482898592
-0.0014784524682909
6.652539013884962e-05
0.0018179068574681
0.0038089407607913
0.006036811042577
0.0084669589996337
0.0110386908054351
0.0136726628988981
0.0162808410823345
0.0187769960612058
0.0210856795310974
0.0231471639126539
0.024912741035223
0.0263260845094919
0.027295371517539
0.0276716705411672
0.0272509288042783
0.0258049424737691
0.0231324359774589
0.019115749746561
0.0137671995908021
0.0072504356503486
-0.0001280345022678
-0.0079521555453538
-0.0157466270029544
-0.023034494370222
-0.0293908379971981
-0.0344831757247448
-0.0380942448973655
-0.0401289574801921
-0.0406097508966922
-0.0396637320518493
-0.0375038087368011
-0.0344037488102912
-0.0306679271161556
-0.0266001857817173
-0.022475341334939
-0.0185155067592859
-0.0148750022053718
-0.0116362730041146
-0.0088154971599578
-0.0063748280517756
-0.0042385510168969
-0.0023096422664821
-0.0004841508343815
0.0013363566249608
0.003234198782593
0.0052677858620882
0.0074669234454631
0.0098313428461551
0.0123324394226074
0.0149184186011552
0.0175230503082275
0.0200759042054414
0.0225112177431583
0.0247742068022489
0.026823092252016
0.0286222510039806
0.0301221758127212
0.0312312096357345
0.0317955277860164
0.0316037237644195
0.0304201729595661
0.0280382707715034
0.0243372302502393
0.0193250402808189
0.0131559055298566
0.0061204447411
-0.001386216841638
-0.0089100310578942
-0.0159888472408056
-0.0222019888460636
-0.0272113420069217
-0.0307886376976966
-0.0328289046883583
-0.0333508215844631
-0.0324855484068393
-0.0304578728973865
-0.0275625232607126
-0.0241362825036048
-0.0205254703760147
-0.0170502215623855
-0.0139708472415804
