bvp
-0.0073018325492739
-0.0118144061416387
-0.0154978223145008
-0.0181858837604522
-0.0198003128170967
-0.0203528404235839
-0.0199371315538883
-0.0187118463218212
-0.0168795865029096
-0.0146640092134475
-0.0122862663120031
-0.0099432710558176
-0.0077896332368254
-0.0059252018108963
-0.0043911733664572
-0.0031755885574966
-0.0022249966859817
-0.0014586499892175
-0.0007835812866687
-0.0001090550795197
0.0006415345706045
0.0015225824899971
0.0025619966909289
0.0037600612267851
0.0050914632156491
0.0065112141892313
0.0079641733318567
0.0093954447656869
0.0107585182413458
0.0120201334357261
0.0131618846207857
0.0141768492758274
0.0150581626221537
0.0157817527651786
0.0162919554859399
0.0164960771799087
0.0162687804549932
0.0154656264930963
0.0139438528567552
0.0115882344543933
0.0083391945809125
0.0042172353714704
-0.0006643179804086
-0.0061037484556436
-0.0118308486416935
-0.0175360515713691
-0.0229039750993251
-0.0276474840939044
-0.0315361618995666
-0.0344143733382225
-0.0362086668610572
-0.0369266048073768
-0.0366498008370399
-0.0355215668678283
-0.0337275266647338
-0.0314717143774032
-0.0289546623826026
-0.0263563320040702
-0.0238228663802146
-0.021458089351654
-0.0193212740123271
-0.0174288377165794
-0.0157585497945547
-0.0142577616497874
-0.0128543898463249
-0.0114676132798194
-0.0100180692970752
-0.0084381122142076
-0.0066814473830163
-0.0047300839796662
-0.0025952085852622
-0.000311370473355
0.0020724209025502
0.0045012505725026
0.0069206738844513
0.0092800930142402
0.0115343146026134
0.0136437639594078
0.0155691653490066
0.0172578729689121
0.0186286363750696
0.0195656530559062
0.0199259761720895
0.0195585191249847
0.0183314494788646
0.0161625780165195
0.0130453407764434
0.0090638566762208
0.0043935738503932
-0.0007133390754461
-0.0059557668864727
-0.0110177360475063
-0.0156015986576676
-0.0194561500102281
-0.0223972741514444
-0.024320088326931
-0.0252024084329605
-0.0250995587557554
-0.0241312477737665
-0.0224632285535335
-0.0202878601849079
-0.0178053937852382
-0.0152054270729422
-0.0126506434753537
-0.0102658011019229
-0.0081313103437423
-0.0062811011448502
-0.0047059385105967
-0.0033613140694797
-0.0021788445301353
-0.001079951878637
1.0806135833263396e-05
0.0011555044911801
0.0023969495669007
0.003755928017199
0.0052313869819045
0.0068040252663195
0.0084414696320891
0.0101040666922926
0.0117518324404954
0.0133511088788509
0.0148785477504134
0.016321113333106
0.0176698006689548
0.0189057849347591
0.0199833996593952
0.0208178181201219
0.0212843008339405
0.0212314520031213
0.0205064322799444
0.0189870595932006
0.0166115574538707
0.0133977765217423
0.0094506433233618
0.0049583306536078
0.0001762360334396
-0.004600157495588
-0.0090688187628984
-0.0129542462527751
-0.0160342007875442
-0.0181573592126369
-0.0192524809390306
-0.0193308033049106
-0.0184811241924762
-0.0168556831777095
-0.0146487457677721
-0.0120729831978678
-0.0093368794769048
-0.0066242245957255
-0.0040778443217277
-0.0017909165471792
0.0001937681809067
0.001879870891571
0.0033101150766015
0.0045546637848019
0.0056970380246639
0.0068204049021005
0.0079954145476222
0.0092706764116883
0.0106679629534482
0.0121834157034754
0.0137931797653436
0.0154596464708447
0.0171370506286621
0.0187785476446151
0.0203436985611915
0.0218025222420692
0.0231351368129253
0.0243262946605682
0.025352843105793
0.0261678639799356
0.0266908202320337
0.0268093533813953
0.0263921022415161
0.0253097862005233
0.023460304364562
0.0207929164171218
0.0173279885202646
0.0131685119122266
0.0084990393370389
0.0035707056522369
-0.001325225457549
-0.0058907968923449
-0.0098554464057087
-0.013004470616579
-0.0151978339999914
-0.0163787938654422
-0.0165740717202425
-0.0158851668238639
-0.0144709004089236
-0.0125262979418039
-0.0102621335536241
-0.0078847780823707
-0.0055760997347533
-0.0034763156436383
-0.0016736846882849
-0.0002029254101216
0.0009484360343776
0.0018286816775798
0.002509185578674
0.0030724736861884
0.0036009261384606
0.0041661178693175
0.0048203137703239
0.0055923899635672
0.0064895427785813
0.0075019500218331
0.0086056822910904
0.0097649721428751
0.0109380893409252
0.0120850596576929
0.0131716392934322
0.0141664212569594
0.0150308050215244
0.0157053396105766
0.01610017567873
0.0160959027707576
0.0155558958649635
0.0143489260226488
0.0123768476769328
0.0095991874113678
0.0060510262846946
0.0018512699753046
-0.0028045400977134
-0.0076659526675939
-0.0124556086957454
-0.0168981552124023
-0.0207481887191534
-0.0238137617707252
-0.0259717274457216
-0.0271745696663856
-0.0274496898055076
-0.0268904566764831
-0.0256395880132913
-0.0238695722073316
-0.0217646285891532
-0.0195037052035331
-0.0172437336295843
-0.015107256360352
-0.0131770372390747
-0.0114956591278314
-0.0100680887699127
-0.0088659729808568
-0.0078340712934732
-0.0069006225094199
-0.0059900321066379
-0.0050337268039584
-0.0039782598614692
-0.0027918545529246
-0.001467986498028
-2.3188069462776184e-05
0.0015103598125278
0.0030933259986341
0.0046859756112098
0.006252747029066
0.0077645541168749
0.0091987634077668
0.0105352997779846
0.0117470286786556
0.0127874203026294
0.0135819688439369
0.0140266912057995
0.0139929819852113
0.0133402505889534
0.0119401654228568
0.0097091412171721
0.0066369073465466
0.00280143879354
-0.0016314722597599
-0.0064227236434817
-0.0112864049151539
-0.0159232690930366
-0.0200545992702245
-0.0234517324715852
-0.0259573440998792
-0.0274947956204414
-0.0280659906566143
-0.0277416314929723
-0.0266468059271574
-0.0249436795711517
-0.0228131096810102
-0.0204368457198143
-0.017981557175517
-0.0155860893428325
-0.0133537799119949
-0.0113498969003558
-0.009602291509509
-0.0081047425046563
-0.0068240221589803
-0.0057085705921053
-0.0046954932622611
-0.0037173607852309
-0.0027107934001833
-0.0016243336722254
-0.0004230989143252
0.0009096025023609
0.0023731524124741
0.0039521185681223
0.0056187282316386
0.0073359343223273
0.0090629998594522
0.0107613680884242
0.0123968264088034
0.0139376791194081
0.0153491608798503
0.0165832620114088
0.017566941678524
0.0181954205036163
0.0183356925845146
0.0178418941795825
0.0165816247463226
0.0144672626629471
0.0114824753254652
0.0076966499909758
0.0032629340421408
-0.0016008233651518
-0.006642170716077
-0.0116048213094472
-0.0162502862513065
-0.0203670300543308
-0.0237728022038936
-0.0263177640736103
-0.0278864279389381
-0.0283879712224006
-0.0277396664023399
-0.0258682891726493
-0.0227394606918096
-0.0183954238891601
-0.0129772387444973
-0.0067221289500594
5.817040801048279e-05
0.0070055313408374
0.0137425921857357
0.0199010968208313
0.0251540727913379
0.0292483661323785
0.0320333391427993
0.0334821194410324
0.0336975380778312
0.032892920076847
0.0313449874520301
0.0293322335928678
0.0270837545394897
0.0247588939964771
0.0224627815186977
0.0202828384935855
0.0183159336447715
0.016666704788804
0.015422910451889
0.0146229630336165
0.0142266685143113
0.0140967397019267
0.0139980521053075
0.0136207463219761
0.0126263182610273
0.0107046365737915
0.0076265046373009
0.0032840471249073
-0.0022840008605271
-0.0088877622038126
-0.0162052195519208
-0.023819126188755
-0.0312643162906169
-0.0380792319774627
-0.043852861970663
-0.04825921356678
-0.0510786511003971
-0.0522097721695899
-0.0516726002097129
-0.0495983250439167
-0.046200331300497
-0.0417337343096733
-0.036465510725975
-0.030663127079606
-0.024588905274868
-0.018493928015232
-0.0126065220683813
-0.0071087330579757
-0.0021120533347129
0.0023518241941928
0.0063237585127353
0.009898935444653
0.0132034393027424
0.0163693875074386
0.0195077862590551
0.0226791109889745
0.0258729495108127
0.0290165729820728
0.0320177264511585
0.0348223224282264
0.0374646075069904
0.040097527205944
0.0429866798222065
0.0464517772197723
0.0507672280073165
0.0560613051056861
0.0622546523809433
0.0690436363220214
0.075914092361927
0.0822022557258606
0.0871875435113906
0.0901480838656425
0.090377353131771
0.0872194245457649
0.0801477953791618
0.0688965246081352
0.0536470562219619
0.0352584309875965
0.0154975671321153
-0.002925582230091
-0.0167785044759511
-0.0231216493993997
-0.0201356373727321
-0.0075974566861987
0.0131981838494539
0.0399604365229606
0.0698387622833252
0.0993721410632133
0.1243304014205932
0.1401343345642089
0.1427967101335525
0.1295899003744125
0.0990458726882934
0.0509877726435661
-0.0128136873245239
-0.0880220308899879
-0.1679476201534271
-0.2445485889911651
-0.3098254203796386
-0.3571904897689819
-0.3824431002140045
-0.3841798007488251
-0.3636842370033264
-0.3244440257549286
-0.2714488506317138
-0.2104027718305587
-0.1469672620296478
-0.0861322656273841
-0.031778872013092
0.0135453399270772
0.0486550368368625
0.0735954791307449
0.0893886238336563
0.0977018252015113
0.1004974469542503
0.0997241213917732
0.0970907509326934
0.0939339026808738
0.0911666601896286
0.0892881378531456
0.0884344726800918
0.0884590893983841
0.0890321210026741
0.0897451192140579
0.0902046039700508
0.0901010408997535
0.0892459452152252
0.087576225399971
0.0851335823535919
0.082033060491085
0.0784295499324798
0.0744843333959579
0.0703349635004997
0.0660756304860115
0.0617540590465068
0.0573854446411132
0.0529743768274784
0.0485299788415432
0.0440676435828208
0.0396038368344306
0.0351521074771881
0.0307224728167057
0.0263217594474554
0.0219529923051595
0.0176137275993824
0.0132950171828269
0.0089847818017005
0.004675805568695
0.0003703981637954
-0.0039243176579475
-0.008206870406866
-0.0124923978000879
-0.0168228168040514
-0.0212764907628297
-0.0259747244417667
-0.0310743935406208
-0.0367370769381523
-0.0430817306041717
-0.0501388236880302
-0.0578219816088676
-0.0659246072173118
-0.0741340443491935
-0.0820491537451744
-0.0891980603337287
-0.0950648337602615
-0.099132552742958
-0.1009360775351524
-0.1001025438308715
-0.0963582694530487
-0.0895139724016189
-0.0794786587357521
-0.0663339793682098
-0.0504282042384147
-0.032405849546194
-0.0131302308291196
0.0064599942415952
0.0254821311682462
0.0431847460567951
0.0589760541915893
0.0724325403571128
0.0832967758178711
0.0914608240127563
0.0969412103295326
0.0998572409152984
0.1004147827625274
0.0988895818591117
0.0956048667430877
0.0909018963575363
0.0851032808423042
0.0784729868173599
0.0711804926395416
0.0632810443639755
0.0547254979610443
0.0454029813408851
0.035203780978918
0.0240823253989219
0.0121021009981632
-0.0005458034574985
-0.0135485008358955
-0.0264964438974857
-0.0389252454042434
-0.0503688529133796
-0.0604138933122158
-0.0687459409236908
-0.0751824602484703
-0.0796886160969734
-0.0823747813701629
-0.0834758281707763
-0.0833133459091186
-0.0822474509477615
-0.0806294828653335
-0.0787625834345817
-0.0768742561340332
-0.0751057192683219
-0.0735156834125518
-0.0720918774604797
-0.0707689374685287
-0.0694524049758911
-0.0680441409349441
-0.066462717950344
-0.0646549388766288
-0.0625986456871032
-0.0602989606559276
-0.0577812790870666
-0.0550839155912399
-0.052251148968935
-0.049326866865158
-0.0463491231203079
-0.0433460623025894
-0.0403349660336971
-0.0373266264796257
-0.03433558344841
-0.0313943959772586
-0.0285670757293701
-0.0259570349007844
-0.0237055700272321
-0.0219747684895992
-0.0209126267582178
-0.0206096600741148
-0.0210634022951126
-0.0221630148589611
-0.0236956663429737
-0.0253698751330375
-0.0268510095775127
-0.0278038773685693
-0.0279354713857173
-0.0270294025540351
-0.0249654985964298
-0.0217243880033493
-0.0173816047608852
-0.0120940804481506
-0.0060809180140495
0.000399213284254
0.0070736110210418
0.0136822462081909
0.0200012288987636
0.0258599519729614
0.0311492085456848
0.0358202271163463
0.0398787558078765
0.0433764196932315
0.0463987030088901
0.0490490347146987
0.0514312051236629
0.0536344870924949
0.055723913013935
0.0577367693185806
0.0596855618059635
0.0615637637674808
0.0633503869175911
0.0650141835212707
0.066517561674118
0.0678165480494499
0.0688548237085342
0.0695550143718719
0.069812424480915
0.0694939568638801
0.0684454441070556
0.0665136128664016
0.0635825023055076
0.0596123933792114
0.0546675808727741
0.0489272475242614
0.0426771640777587
0.036280944943428
0.0301367305219173
0.0246297530829906
0.020088605582714
0.0167514979839324
0.0147459506988525
0.0140823386609554
0.0146619342267513
0.0162962973117828
0.018732015043497
0.0216793119907379
0.0248425807803869
0.0279477536678314
0.0307642873376607
0.0331221967935562
0.0349227450788021
0.0361396670341491
0.0368096865713596
0.0370154865086078
0.036866970360279
0.0364830233156681
0.0359736382961273
0.0354262441396713
0.0348988883197307
0.0344191268086433
0.0339879691600799
0.0335870310664176
0.0331845507025718
0.0327387601137161
0.032202698290348
0.0315326750278472
0.030693307518959
0.0296509340405464
0.0283573567867279
0.0267330557107925
0.0246570482850074
0.0219688564538955
0.0184898301959037
0.0140637354925274
0.0086044399067759
0.0021365140564739
-0.005182234570384
-0.013062578625977
-0.021110150963068
-0.0288725960999727
-0.0358985960483551
-0.0417935065925121
-0.0462600402534008
-0.0491227135062217
-0.0503383763134479
-0.0499927960336208
-0.0482826456427574
-0.0454853177070617
-0.0419230163097381
-0.0379280634224414
-0.0338124819099903
-0.0298427976667881
-0.0262219198048114
-0.0230793952941894
-0.0204697921872138
-0.0183788165450096
-0.0167354885488748
-0.0154288318008184
-0.0143287749961018
-0.0133087076246738
-0.0122639331966638
-0.0111219929531216
-0.0098457094281911
-0.0084311142563819
-0.006901322863996
-0.0052987928502261
-0.0036778217181563
-0.0020970804616808
-0.0006137685850262
0.0007174257189035
0.0018392093479633
0.0026804078370332
0.0031401570886373
0.0030755121260881
0.0023038741201162
0.0006255954504013
-0.0021350271999835
-0.0060784667730331
-0.011182963848114
-0.0172768756747245
-0.0240403860807418
-0.0310386586934328
-0.0377777889370918
-0.0437688827514648
-0.0485875979065895
-0.0519187748432159
-0.0535807199776172
-0.0535319484770298
-0.0518638901412487
-0.0487808138132095
-0.0445700697600841
-0.0395673848688602
-0.0341213904321193
-0.0285609103739261
-0.0231683794409036
-0.0181615017354488
-0.0136831952258944
-0.0097987940534949
-0.0065003065392374
-0.0037179985083639
-0.0013386867940425
0.000772553961724
0.0027507366612553
0.004711715504527
0.0067401234991848
0.0088866632431745
0.0111692547798156
0.0135734602808952
0.016054606065154
0.0185456369072198
0.020969221368432
0.0232484117150306
0.0253142677247524
0.0271114353090524
0.0285981129854917
0.029734544456005
0.0304605234414339
0.0306717865169048
0.030208395794034
0.0288650542497634
0.026424802839756
0.0227087065577507
0.0176320411264896
0.0112530216574668
0.0037955956067889
-0.0043622660450637
-0.0127293765544891
-0.0207609571516513
-0.0279256515204906
-0.0337676033377647
-0.0379526577889919
-0.040294025093317
-0.0407591462135314
-0.0394596233963966
-0.0366271287202835
-0.0325803719460964
-0.0276867821812629
-0.0223234593868255
-0.0168427005410194
-0.0115440757945179
-0.0066542606800794
-0.0023169917985796
0.0014069331809878
0.004531436599791
0.0071304496377706
0.0093199871480464
0.0112395444884896
0.013032030314207
0.0148229394108057
0.0167045164853334
0.0187290329486131
0.0209089890122413
0.0232209675014019
0.0256126411259174
0.028012465685606
0.0303401760756969
0.0325163602828979
0.0344700962305069
0.0361447110772132
0.0375011973083019
0.0385160185396671
0.0391702651977539
0.0394298285245895
0.0392196625471115
0.0384033769369125
0.0367834046483039
0.0341273918747901
0.0302155315876007
0.0249007735401392
0.0181685797870159
0.0101759219542145
0.0012545625213533
-0.0081204706802964
-0.0173866879194974
-0.0259633436799049
-0.033321525901556
-0.0390419512987136
-0.0428532250225544
-0.0446488559246063
-0.0444833859801292
-0.0425521396100521
-0.039160992950201
-0.0346886292099952
-0.0295435935258865
-0.0241226702928543
-0.018776411190629
-0.0137840863317251
-0.0093387188389897
-0.0055416636168956
-0.0024061668664216
0.0001296969130635
0.0021824911236763
0.0038996050134301
0.0054359543137252
0.0069334558211266
0.0085045574232935
0.0102219842374324
0.012117164209485
0.0141853829845786
0.0163920409977436
0.0186779387295246
0.0209661591798067
0.0231722556054592
0.0252153649926185
0.0270265955477952
0.028554294258356
0.0297674983739852
0.0306560639292001
0.031223926693201
0.0314736254513263
0.0313830003142356
0.0308791603893041
0.0298208501189947
0.0280027128756046
0.0251867342740297
0.0211540758609771
0.0157651584595441
0.0090142861008644
0.0010641571134328
-0.0077509977854788
-0.0169562119990587
-0.025992177426815
-0.0342832840979099
-0.0413043685257434
-0.0466369092464447
-0.0500083677470684
-0.0513106174767017
-0.0505989417433738
-0.0480761267244815
-0.044063102453947
-0.0389580801129341
-0.0331904515624046
-0.0271762106567621
-0.0212797839194536
-0.0157868955284357
-0.0108919693157076
-0.0066971695050597
-0.0032168410252779
-0.0003861146979033
0.0019238588865846
0.0038834596052765
0.0056776050478219
0.007479712832719
0.0094303665682673
0.0116196349263191
0.014073884114623
0.0167520679533481
0.0195520743727684
0.0223231259733438
0.0248837023973464
0.0270460173487663
0.0286434944719076
0.0295541286468505
0.0297138690948486
0.0291175171732902
0.0278055202215909
0.0258358307182788
0.0232448372989892
0.0200068745762109
0.0160053595900535
0.011028641834855
0.0047976737841963
-0.0029761428013443
-0.0125145595520734
-0.0239007845520973
-0.0370393507182598
-0.0516597367823123
-0.0673548281192779
-0.0836391746997833
-0.100017599761486
-0.1160413175821304
-0.1313042640686035
-0.1453679502010345
-0.1576814949512481
-0.1675575375556945
-0.1741997748613357
-0.1767833232879638
-0.1746125221252441
-0.1673171818256378
-0.1549894958734512
-0.1382062137126922
-0.1179496496915817
-0.095467060804367
-0.0721065551042556
-0.0491550117731094
-0.0276922136545181
-0.0084786936640739
0.0080983862280845
0.0220112651586532
0.0335284061729908
0.0431306511163711
0.0514212884008884
0.0590340085327625
0.0665464401245117
0.0744135007262229
0.0829325094819068
0.092239148914814
0.1023208349943161
0.1130349189043045
0.1241344213485717
0.1353128105401992
0.1462648063898086
0.1567426174879074
0.1665853708982467
0.175712913274765
0.1840938478708267
0.1917061507701873
0.1985046714544296
0.2044222801923751
0.2094271034002304
0.2135900855064392
0.2171212434768676
0.2204341292381286
0.2242411375045776
0.2295440882444381
0.2374697178602218
0.2490469217300415
0.2649930715560913
0.2855003476142883
0.3100330233573913
0.3372049331665039
0.3648080229759216
0.3899976909160614
0.4096169471740722
0.4206441640853882
0.4206894338130951
0.408394455909729
0.3836205005645752
0.3474087119102478
0.3017577230930328
0.2492620050907135
0.1926649212837219
0.1344232857227325
0.0763891786336898
0.0196605622768402
-0.0353951007127761
-0.0889587849378585
-0.1414660066366195
-0.1932843923568725
-0.244451105594635
-0.2945417165756225
-0.3426967263221741
-0.3877639472484588
-0.4284806549549103
-0.4636478424072265
-0.4922912716865539
-0.5138051509857178
-0.5280490517616272
-0.5353698134422302
-0.5365465879440308
-0.5326769351959229
-0.5250226259231567
-0.5148482322692871
-0.5032820105552673
-0.4912092089653015
-0.4791977405548095
-0.4674667716026306
-0.4559054970741272
-0.4441374242305755
-0.4316172003746032
-0.4177345037460327
-0.4018969535827636
-0.3835943937301636
-0.3624718189239502
-0.3384115397930145
-0.3115895986557007
-0.2824759185314178
-0.2517772018909454
-0.2203369289636612
-0.1890148520469665
-0.1585743576288223
-0.1296014189720153
-0.1024654060602188
-0.0773209929466247
-0.0541417673230171
-0.0327707231044769
-0.0129727944731712
0.0055208429694175
0.0229777321219444
0.0396317392587661
0.0556520223617553
0.0711239203810691
0.0860506221652031
0.1003709882497787
0.1139828711748123
0.1267666071653366
0.1386087238788604
0.1494220346212387
0.1591521799564361
0.167763814330101
0.1752118468284607
0.1814137101173401
0.186238557100296
0.1895200610160827
0.1910882592201233
0.1908113211393356
0.1886402070522308
0.1846478581428527
0.1790525615215301
0.1722173690795898
0.1646212339401245
0.1568082422018051
0.1493313610553741
0.1427012085914611
0.137341096997261
0.1335517168045044
0.1314901113510131
0.1311643570661544
0.1324425041675567
0.135075032711029
0.138729065656662
0.1430278718471527
0.1475895345211029
0.152062326669693
0.1561529636383056
0.1596432030200958
0.1623949110507965
0.164347693324089
0.1655119359493255
0.1659570336341858
0.1657958626747131
0.1651675105094909
0.1642191559076309
0.1630896925926208
0.1618973910808563
0.1607308983802795
0.159643217921257
0.1586503684520721
0.157734215259552
0.1568473875522613
0.1559183597564697
0.1548528522253036
0.1535255312919616
0.1517616659402847
0.149320974946022
0.1458999514579773
0.1411600708961486
0.1347782611846923
0.1265096217393875
0.1162484660744667
0.1040711849927902
0.0902494639158248
0.0752322003245353
0.0596012324094772
0.0440091900527477
0.0291108544915914
0.0154987461864948
0.0036509595811367
-0.0061049349606037
-0.0136095136404037
-0.0188697446137666
-0.0220419894903898
-0.0234044343233108
-0.0233204215764999
-0.022196777164936
-0.0204442460089921
-0.0184429679065942
-0.0165125485509634
-0.0148891611024737
-0.0137145686894655
-0.0130382673814892
-0.0128306746482849
-0.0130046745762228
-0.0134398154914379
-0.0140034817159175
-0.0145683232694864
-0.0150266271084547
-0.0153007581830024
-0.0153485182672739
-0.0151642225682735
-0.0147767029702663
-0.0142426267266273
-0.0136356130242347
-0.0130362920463085
-0.0125261880457401
-0.0121883302927017
-0.012120708823204
-0.0124600157141685
-0.0134014561772346
-0.0152005329728126
-0.0181486085057258
-0.0225228071212768
-0.0285229533910751
-0.0362146198749542
-0.045493833720684
-0.0560797601938247
-0.0675340592861175
-0.0793025568127632
-0.0907731056213378
-0.1013395711779594
-0.1104606017470359
-0.117705650627613
-0.122786670923233
-0.1255756020545959
-0.1261060982942581
-0.12455864995718
-0.1212318316102027
-0.1165046840906143
-0.1107953190803527
-0.1045205518603324
-0.0980606898665428
-0.0917315557599067
-0.085765317082405
-0.0803017690777778
-0.0753902047872543
-0.071000188589096
-0.0670390874147415
-0.063374176621437
-0.0598574467003345
-0.0563490204513073
-0.0527350939810276
-0.0489395596086978
-0.0449290536344051
-0.0407107211649417
-0.0363242663443088
-0.0318327695131301
-0.0273153744637966
-0.0228606536984443
-0.0185587555170059
-0.0144946947693824
-0.0107494667172431
-0.0074157640337944
-0.0046245753765106
-0.0025653764605522
-0.001482680439949
-0.001645028591156
-0.0032932460308074
-0.0065816566348075
-0.0115291848778724
-0.0179915279150009
-0.0256586708128452
-0.0340796932578086
-0.0427108444273471
-0.0509754791855812
-0.0583242215216159
-0.0642860829830169
-0.0685054287314415
-0.0707648992538452
-0.0709949731826782
-0.0692702233791351
-0.0657929256558418
-0.0608647912740707
-0.0548510812222957
-0.0481444224715232
-0.0411304160952568
-0.0341553799808025
-0.0275003127753734
-0.021363615989685
-0.0158538576215505
-0.0109946597367525
-0.0067399386316537
-0.0029938835650682
0.0003691725432872
0.0034865792840719
0.0064910724759101
0.0094967242330312
0.0125879999250173
0.0158140659332275
0.0191882085055112
0.0226901769638061
0.0262715518474578
0.0298632197082042
0.0333830863237381
0.0367438904941082
0.0398594997823238
0.0426484569907188
0.0450338907539844
0.0469345338642597
0.0482448972761631
0.0488142631947994
0.0484409108757972
0.0468943640589714
0.0439632758498191
0.0395110435783863
0.0335216000676155
0.0261258482933044
0.0176041312515735
0.0083652008324861
-0.0010933806188404
-0.0102366376668214
-0.0185482986271381
-0.0255832355469465
-0.0310077760368585
-0.0346227809786796
-0.0363677889108657
-0.0363072976469993
-0.0346044227480888
-0.0314903184771537
-0.027234774082899
-0.0221182107925415
-0.0164061058312654
-0.0103311222046613
-0.0040863808244466
0.0021739993244409
0.0083315260708332
0.0142955286428332
0.0199890546500682
0.025332685559988
0.0302349627017974
0.0345932394266128
0.0382997319102287
0.0412462390959262
0.0433261469006538
0.0444371998310089
0.0444914810359478
0.0434397459030151
0.0413092002272605
0.0382382646203041
0.0344781652092933
0.0303455684334039
0.0261556543409824
0.0221748445183038
0.0185971464961767
0.0155315231531858
0.0129872243851423
0.0108530316501855
0.0089027173817157
0.0068644527345895
0.0045277718454599
0.0018135197460651
-0.0012350212782621
-0.0045186821371316
-0.0079556331038475
-0.011523138731718
-0.0152531433850526
-0.0191746409982442
-0.0232134945690631
-0.0271003581583499
-0.0303517337888479
-0.0323481783270835
-0.0324765518307685
-0.0302731357514858
-0.0255104452371597
-0.0182086452841758
-0.0085935443639755
0.0029491148889064
0.0158783253282308
0.0294947102665901
0.0430136807262897
0.0557111352682113
0.0670439451932907
0.076679341495037
0.0844548493623733
0.090330384671688
0.0943722426891326
0.0967643931508064
0.0978110805153846
0.0979002565145492
0.0974360406398773
0.0967766866087913
0.0962049067020416
0.0959278643131256
0.0960883796215057
0.0967713519930839
0.0979969426989555
0.0997054651379585
0.1017525941133499
0.1039232984185218
0.1059515252709388
0.1075345203280448
0.1083506420254707
0.1080950200557708
0.1065354943275451
0.1035760641098022
0.0993028581142425
0.0939844474196434
0.0880170464515686
0.0818312764167785
0.0757840871810913
0.0700619146227836
0.0646285340189933
0.0592324808239936
0.0534646585583686
0.0468576103448867
0.0390143990516662
0.0297338888049125
0.0190958082675933
0.0074841082096099
-0.0044702291488647
-0.0160349234938621
-0.0265756174921989
-0.0357425957918167
-0.0435758829116821
-0.0504706799983978
-0.0570058599114418
-0.0637297704815864
-0.0710147470235824
-0.0790214911103248
-0.0877443477511406
-0.0970803797245025
-0.1068718880414962
-0.1169077306985855
-0.126908004283905
-0.1365263909101486
-0.1453838944435119
-0.1531236171722412
-0.1594640761613845
-0.164230391383171
-0.1673574447631836
-0.1688748747110366
-0.1688888520002365
-0.1675680130720138
-0.165131002664566
-0.1618320345878601
-0.1579434424638748
-0.1537327617406845
-0.1494350731372833
-0.1452295631170272
-0.1412284225225448
-0.1374783217906952
-0.1339711546897888
-0.1306605190038681
-0.1274795830249786
-0.1243548542261123
-0.121211290359497
-0.1179689019918441
-0.1145384013652801
-0.1108271703124046
-0.1067580431699752
-0.102289542555809
-0.0974260047078132
-0.0922177135944366
-0.0867558345198631
-0.0811620727181434
-0.0755706652998924
-0.0701030269265174
-0.0648414865136146
-0.0598136633634567
-0.0549933835864067
-0.0503130182623863
-0.0456800386309623
-0.0409939810633659
-0.0361599698662757
-0.0310968309640884
-0.0257421620190143
-0.020056826993823
-0.0140294209122657
-0.0076800547540187
-0.0010608509182929
0.0057481825351715
0.0126465111970901
0.0195220448076725
0.0262609496712684
0.0327569134533405
0.038916639983654
0.0446600392460823
0.0499177873134613
0.0546311102807521
0.0587569586932659
0.062277153134346
0.065207302570343
0.0676000863313674
0.069538876414299
0.0711253434419632
0.0724673569202423
0.0736674889922142
0.0748108774423599
0.0759559422731399
0.0771318972110748
0.0783426314592361
0.079573854804039
0.0808018445968627
0.0820014998316764
0.0831484943628311
0.084213875234127
0.0851576030254364
0.0859286412596702
0.0864724218845367
0.0867412909865379
0.086703710258007
0.0863500759005546
0.0856934338808059
0.0847641006112098
0.0836020037531852
0.0822515189647674
0.0807587429881095
0.0791696086525917
0.077527642250061
0.0758705958724021
0.0742267593741417
0.0726125910878181
0.0710323825478553
0.0694805458188057
0.0679457485675811
0.0664135888218879
0.0648659914731979
0.0632798969745636
0.0616269670426845
0.0598729774355888
0.0579781644046306
0.0559021309018135
0.05361108481884
0.0510823391377925
0.0483086518943309
0.0453043468296527
0.0421083904802799
0.0387832522392272
0.0354097634553909
0.0320770069956779
0.0288696810603141
0.0258553102612495
0.0230750031769275
0.0205429811030626
0.0182523522526025
0.0161800775676965
0.0142903979867696
0.0125407800078392
0.0108899436891078
0.0093031432479619
0.0077537391334772
0.0062228702008724
0.0046978089958429
0.0031711366027593
0.0016420930624008
0.0001174267381429
-0.0013901302590966
-0.0028636949136853
-0.004282466135919
-0.0056226011365652
-0.0068616932258009
-0.0079851951450109
-0.0089909294620156
-0.0098895765841007
-0.0107013154774904
-0.011450758203864
-0.0121625792235136
-0.0128589067608118
-0.0135594885796308
-0.014285166747868
-0.0150631796568632
-0.0159314721822738
-0.0169383212924003
-0.0181350838392972
-0.0195633973926305
-0.0212406702339649
-0.0231489222496747
-0.025230448693037
-0.0273903328925371
-0.0295054409652948
-0.0314395651221275
-0.0330623239278793
-0.0342686437070369
-0.0349939502775669
-0.0352204144001007
-0.0349750481545925
-0.0343231111764907
-0.0333577245473861
-0.0321854054927825
-0.0309108681976795
-0.0296259932219982
-0.0284029934555292
-0.0272904448211193
-0.0263134948909282
-0.0254766680300235
-0.0247654281556606
-0.024146944284439
-0.0235738288611173
-0.0229912884533405
-0.0223449170589447
-0.021588223055005
-0.0206902530044317
-0.0196416229009628
-0.0184550993144512
-0.0171590242534875
-0.0157874766737222
-0.0143740605562925
-0.0129518369212746
-0.0115548744797706
-0.0102166151627898
-0.0089662615209817
-0.0078273974359035
-0.0068200016394257
-0.0059633944183588
-0.0052772210910916
-0.0047790156677365
-0.0044806231744587
-0.0043882662430405
-0.0045058242976665
-0.0048354621976614
-0.005374445579946
-0.0061121648177504
-0.0070285480469465
-0.0080926371738314
-0.0092619685456156
-0.0104851257055997
-0.0117075517773628
-0.012877082452178
-0.0139469485729932
-0.0148770157247781
-0.0156360585242509
-0.016208229586482
-0.0166015531867742
-0.0168513376265764
-0.017013743519783
-0.0171489603817462
-0.0172987934201955
-0.0174693036824464
-0.0176257044076919
-0.0176996886730194
-0.0176068302243948
-0.0172680951654911
-0.0166273042559623
-0.0156593397259712
-0.0143685042858123
-0.0127811608836054
-0.010938880033791
-0.0088945543393492
-0.0067097069695591
-0.0044502541422843
-0.0021791886538267
5.082506686449051e-05
0.0021997494623064
0.0042378865182399
0.0061435345560312
0.0079031102359294
0.0095121683552861
0.0109726637601852
0.0122867878526449
0.0134537983685731
0.014470912516117
0.0153338517993688
0.0160355232656002
0.0165645834058523
0.0169066544622182
0.0170494224876165
0.0169882848858833
0.0167287699878215
0.0162869468331336
0.0156896226108074
0.0149731822311878
0.0141809955239295
0.0133600663393735
0.0125558441504836
0.0118066240102052
0.0111404173076152
0.0105743538588285
0.010115748271346
0.0097642680630087
0.0095143085345625
0.0093562379479408
0.0092758350074291
0.0092545812949538
0.0092726470902562
0.0093120690435171
0.0093582700937986
0.0094007449224591
0.0094342166557908
0.0094590000808238
0.0094789946451783
0.0094991531223058
0.009523794054985
0.0095557766035199
0.0095973797142505
0.0096522262319922
0.0097256563603878
0.0098235365003347
0.0099521372467279
0.0101181119680404
0.0103253722190856
0.0105697391554713
0.0108344238251447
0.011088753119111
0.0112909320741891
0.0113918352872133
0.011337955482304
0.0110767390578985
0.0105650080367922
0.0097760362550616
0.0087040485814213
0.0073682689107954
0.0058147688396275
0.0041124308481812
0.0023444481194019
0.0005997368134558
-0.0010357401333749
-0.0024887872859835
-0.0037063537165522
-0.0046579418703913
-0.0053354119881987
-0.0057519450783729
-0.0059397341683506
-0.0059457840397953
-0.0058247093111276
-0.0056298030540347
-0.0054060984402894
-0.005186591297388
-0.004990192130208
-0.0048211542889475
-0.0046713268384337
-0.0045245666988193
-0.0043607167899608
-0.0041592624038457
-0.003903454169631
-0.0035828533582389
-0.0031936825253069
-0.0027395149227231
-0.0022328689228743
-0.0016942617949098
-0.0011467528529465
-0.0006091520190238
-9.2476635472849e-05
0.0003999086329713
0.0008707231027074
0.0013253317447379
0.0017660515150055
0.0021862529683858
0.0025655946228653
0.0028679422102868
0.0030440054833889
0.0030390014871954
0.0028031209949404
0.002299886662513
0.0015100459568202
0.0004346407949924
-0.0009010648354887
-0.0024465224705636
-0.0041302209720015
-0.0058687287382781
-0.007577572017908
-0.0091803334653377
-0.0106141911819577
-0.0118322661146521
-0.012805170379579
-0.0135224554687738
-0.0139909200370311
-0.0142289120703935
-0.0142606105655431
-0.0141142858192324
-0.0138224428519606
-0.0134194446727633
-0.0129380226135253
-0.012406506575644
-0.0118458215147256
-0.0112672755494713
-0.0106721827760338
-0.0100531494244933
-0.0093968603760004
-0.0086877550929784
-0.0079122558236122
-0.0070628565736114
-0.0061400616541504
-0.0051504140719771
-0.0041016233153641
-0.0029990498442202
-0.0018464957829564
-0.0006491281092166
0.0005865893326699
0.0018594316206872
0.0031825855839997
0.0045844120904803
0.006095178425312
0.0077278669923543
0.0094646494835615
0.0112531194463372
0.0130106192082166
0.0146339368075132
0.0160111282020807
0.0170331727713346
0.0176057182252407
0.0176594406366348
0.017154723405838
0.0160804986953735
0.0144529240205883
0.0123169813305139
0.0097478982061147
0.0068493206053972
0.0037474506534636
0.0005804807296954
-0.0025146750267595
-0.0054143946617841
-0.0080168144777417
-0.0102465515956282
-0.0120567847043275
-0.0134283499792218
-0.0143653862178325
-0.014890044927597
-0.0150380535051226
-0.0148539161309599
-0.0143849374726414
-0.0136757483705878
-0.0127654569223523
-0.0116874985396862
-0.0104705458506941
-0.0091398758813738
-0.0077196918427944
-0.0062349373474717
-0.004711665213108
-0.0031773573718965
-0.0016601551324129
-0.000185121782124
0.0012299930676817
0.0025756282266229
0.0038475149776786
0.0050437832251191
0.0061653899028897
0.0072168465703725
0.0082023227587342
0.0091189295053482
0.0099521931260824
0.0106728374958038
0.0112319542095065
0.0115575287491083
0.0115562714636325
0.0111231310293078
0.0101604517549276
0.0086020771414041
0.0064336359500885
0.0037037841975688
0.0005251497495919
-0.0029337762389332
-0.0064648077823221
-0.0098433531820774
-0.0128553789108991
-0.0153231043368577
-0.0171238724142313
-0.0181977767497301
-0.0185447223484516
-0.0182152222841978
-0.0172985568642616
-0.0159108974039554
-0.0141828740015625
-0.0122447032481431
-0.0102122984826564
-0.0081791738048195
-0.006213461048901
-0.0043570036068558
-0.0026270039379596
-0.0010210005566477
0.0004780804738402
0.0018984042108058
0.0032742191106081
0.004638222977519
0.0060140267014503
0.0074116443283855
0.0088274218142032
0.010247154161334
0.0116498861461877
0.0130111696198582
0.0143057908862829
0.0155096361413598
0.0165992472320795
0.0175490416586399
0.0183268003165721
0.0188880953937768
0.0191718880087137
0.0190987437963485
0.0185731649398803
0.01749431155622
0.0157764572650194
0.0133727435022592
0.0102941673249006
0.0066197207197546
0.0024956832639873
-0.001875365152955
-0.0062527358531951
-0.0103815421462059
-0.0140203963965177
-0.0169680174440145
-0.0190842449665069
-0.0203012805432081
-0.02062264457345
-0.0201129578053951
-0.0188837684690952
-0.0170777067542076
-0.0148504292592406
-0.0123489806428551
-0.0096908491104841
-0.0069542825222015
-0.0041844062507152
-0.0014083385467529
0.0013509420678019
0.0040663108229637
0.0067022694274783
0.0092142783105373
0.0115528656169772
0.0136718796566128
0.0155363613739609
0.0171254761517047
0.0184306818991899
0.0194503329694271
0.0201823245733976
0.0206208303570747
0.0207618586719036
0.0206161644309759
0.0202234387397766
0.0196574460715055
0.0190140772610902
0.0183836780488491
0.0178187265992164
0.017313215881586
0.0168031323701143
0.0161828659474849
0.0153268324211239
0.0141104394569993
0.0124295791611075
0.0102189760655164
0.0074673569761216
0.0042249807156622
0.0006014974787831
-0.0032437397167086
-0.0071171699091792
-0.0108127230778336
-0.0141367632895708
-0.016929518431425
-0.0190793816000223
-0.020529456436634
-0.0212754774838686
-0.021356351673603
-0.020841559395194
-0.0198192708194255
-0.0183856356889009
-0.0166351348161697
-0.0146550089120864
-0.0125246737152338
-0.0103162685409188
-0.0080938851460814
-0.0059114601463079
-0.003809732850641
-0.0018151587573811
5.74408913962543e-05
0.0018018174450844
0.0034186320845037
0.0049135982990264
0.0062960237264633
0.0075778989121317
0.0087717212736606
0.0098882699385285
0.0109361950308084
0.0119211552664637
0.012843057513237
0.0136951990425586
0.0144665678963065
0.015142984688282
0.0157057046890258
0.0161295924335718
0.0163786932826042
0.0163948163390159
0.0160835478454828
0.0153100863099098
0.0139127923175692
0.0117337806150317
0.0086588617414236
0.0046531977131962
-0.0002182759344577
-0.0057878321968019
-0.0117980390787124
-0.0179286506026983
-0.0238329730927944
-0.0291773900389671
-0.0336754694581031
-0.037111047655344
-0.0393514931201934
-0.040353637188673
-0.0401615723967552
-0.038895059376955
-0.0367295444011688
-0.0338713489472866
-0.0305336974561214
-0.0269181132316589
-0.023201398551464
-0.0195269063115119
-0.0159998163580894
-0.0126858735457062
-0.0096126776188611
-0.0067746704444289
-0.0041427304968237
-0.0016755464021116
0.0006703424733132
0.0029324386268854
0.0051367958076298
0.0072964299470186
0.0094127617776393
0.0114778447896242
0.0134765012189745
0.0153884068131446
0.0171908847987651
0.0188625939190387
0.020385343581438
0.0217409171164035
0.022902188822627
0.0238187052309513
0.0243991836905479
0.024501571431756
0.0239431411027908
0.0225321464240551
0.020112482830882
0.0166084431111812
0.0120559819042682
0.0066132042557001
0.0005498402751982
-0.0057817450724542
-0.0119885616004467
-0.0176828261464834
-0.0225237589329481
-0.0262513272464275
-0.0287075024098157
-0.0298417974263429
-0.0297028254717588
-0.0284203756600618
-0.0261833369731903
-0.0232165288180112
