bvp
0.0675942152738571
0.0606990978121757
0.0534737668931484
0.045950062572956
0.0381923615932464
0.0302943848073482
0.0223711412400007
0.0145493019372224
0.0069577023386955
-0.0002839528024196
-0.0070758126676082
-0.0133459325879812
-0.0190578997135162
-0.0242156237363815
-0.0288613922894001
-0.0330684185028076
-0.0369295291602611
-0.0405430272221565
-0.0439977720379829
-0.0473583415150642
-0.0506535582244396
-0.0538735762238502
-0.0569756813347339
-0.0598962977528572
-0.0625687092542648
-0.0649423450231552
-0.0669954717159271
-0.068737044930458
-0.0702007338404655
-0.071436807513237
-0.0725023820996284
-0.0734474062919616
-0.0743017941713333
-0.0750720053911209
-0.0757458731532096
-0.0763012170791626
-0.0767171531915664
-0.0769862607121467
-0.0771220847964286
-0.0771573781967163
-0.0771372690796852
-0.0771131739020347
-0.0771353095769882
-0.0772406309843063
-0.0774390399456024
-0.0777032077312469
-0.0779666379094123
-0.0781320035457611
-0.0780874490737915
-0.0777244716882705
-0.0769520848989486
-0.075709193944931
-0.0739774256944656
-0.0717891603708267
-0.0692251771688461
-0.0664020627737045
-0.0634524896740913
-0.0605028420686721
-0.0576539896428585
-0.0549708716571331
-0.0524804890155792
-0.050172783434391
-0.0480036027729511
-0.0459039136767387
-0.0437959097325801
-0.0416102074086666
-0.039297379553318
-0.0368337444961071
-0.0342243090271949
-0.0315017513930797
-0.0287183634936809
-0.0259331874549388
-0.0232004225254058
-0.0205622352659702
-0.0180468335747718
-0.0156719610095024
-0.0134508581832051
-0.011396512389183
-0.009524212218821
-0.0078544728457927
-0.0064144181087613
-0.0052341744303703
-0.0043386351317167
-0.0037376498803496
-0.003416764549911
-0.0033300267532467
-0.0033971462398767
-0.0035076737403869
-0.0035327412188053
-0.0033396892249584
-0.0028073564171791
-0.0018451511859893
-0.0004103519022464
0.0014853365719318
0.0037778597325086
0.0063590463250875
0.0090934447944164
0.0118413344025611
0.0144804138690233
0.0169201232492923
0.0191086921840906
0.0210373736917972
0.0227416418492794
0.0242937412112951
0.0257846564054489
0.0273000262677669
0.0288981534540653
0.0305982194840908
0.0323804691433906
0.0341941975057125
0.035971600562334
0.0376450680196285
0.0391605459153652
0.0404826365411281
0.041592076420784
0.0424769520759582
0.0431223921477794
0.0435041077435016
0.0435867309570312
0.0433280356228351
0.0426909103989601
0.0416592806577682
0.0402495525777339
0.0385140366852283
0.0365398563444614
0.0344454050064086
0.0323720015585422
0.0304688140749931
0.028871739283204
0.0276809036731719
0.026944238692522
0.0266503728926181
0.0267277155071496
0.027050083503127
0.0274545326828956
0.0277712680399417
0.0278561133891344
0.0276135802268981
0.0270044971257448
0.0260426383465528
0.0247855484485626
0.0233213957399129
0.0217572711408138
0.0202120020985603
0.0188090186566114
0.0176654011011123
0.0168770868331193
0.0165027771145105
0.0165529660880565
0.0169917996972799
0.0177518837153911
0.0187504068017005
0.0198946259915828
0.0210778228938579
0.0221757180988788
0.023048847913742
0.0235485397279262
0.0235251765698194
0.0228413790464401
0.0213893949985504
0.0191097371280193
0.0160103291273117
0.0121835377067327
0.0078103439882397
0.003139398060739
-0.0015552639961242
-0.0060173934325575
-0.0100350007414817
-0.0134491566568613
-0.0161520838737487
-0.0180787518620491
-0.0192011948674917
-0.0195366814732551
-0.0191643089056015
-0.0182333420962095
-0.0169541854411363
-0.0155722387135028
-0.0143285477533936
-0.0134161030873656
-0.0129470461979508
-0.0129414293915033
-0.0133310109376907
-0.0139661207795143
-0.0146269956603646
-0.0150486025959253
-0.0149596901610493
-0.01412552036345
-0.0123831396922469
-0.0096663441509008
-0.0060196984559297
-0.0016006953082978
0.0033271834254264
0.0084108347073197
0.013239081017673
0.0173924751579761
0.0205063596367836
0.022331815212965
0.0227779857814311
0.0219303462654352
0.0200452860444784
0.0175207946449518
0.0148480804637074
0.0125534934923052
0.0111356256529688
0.0110027436167001
0.0124262832105159
0.0155238397419452
0.0202655531466007
0.0264874529093503
0.0339057818055152
0.0421431064605712
0.0507741644978523
0.0593744665384292
0.0675461217761039
0.0749190747737884
0.0811459496617317
0.0859031826257705
0.0889018326997757
0.0899068862199783
0.0887531340122222
0.0853479653596878
0.0796701088547706
0.0717747136950492
0.0617939382791519
0.0499234125018119
0.0364102274179458
0.0215567499399185
0.0057331547141075
-0.0106209740042686
-0.0270251482725143
-0.0430187173187732
-0.058231521397829
-0.0724369883537292
-0.0855724290013313
-0.0977234914898872
-0.1090759485960006
-0.1198453158140182
-0.1302060037851333
-0.1402398645877838
-0.149910032749176
-0.1590595543384552
-0.1674347519874572
-0.174729973077774
-0.1806455552577972
-0.1849475800991058
-0.1875218451023101
-0.1884094923734665
-0.1877945661544799
-0.1859243065118789
-0.1829937696456909
-0.1790601015090942
-0.1740380227565765
-0.167777270078659
-0.1601673811674118
-0.1512076258659362
-0.1410120576620102
-0.1297564953565597
-0.1176034063100814
-0.1046434938907623
-0.0908717736601829
-0.0761959254741668
-0.0604710169136524
-0.043555848300457
-0.0253787785768508
-0.0059922188520431
0.0144021213054656
0.035464871674776
0.0567702017724514
0.0778916031122207
0.0984828919172287
0.1182875260710716
0.1370659470558166
0.1545304656028747
0.1703849583864212
0.184466153383255
0.1968963742256164
0.208150714635849
0.2189935147762298
0.2303042113780975
0.24284029006958
0.2569937407970428
0.2726151049137115
0.2889662384986877
0.304812490940094
0.3186183273792267
0.3287854790687561
0.333878219127655
0.3328016102313995
0.3249114453792572
0.3100410401821136
0.2884427309036255
0.2606630027294159
0.2273914813995361
0.1893367022275924
0.1471863389015197
0.1016675606369972
0.0536434426903724
0.0041643679141998
-0.0455465018749237
-0.0941552370786666
-0.1403140574693679
-0.1827790290117263
-0.2205195426940918
-0.2527926862239837
-0.2791776657104492
-0.2995807528495788
-0.3142174184322357
-0.3235760927200317
-0.328366756439209
-0.3294530212879181
-0.3277661800384521
-0.324207603931427
-0.3195575475692749
-0.3144057989120483
-0.3091089725494385
-0.3037758469581604
-0.2982784509658813
-0.2922782599925995
-0.2852561771869659
-0.2765446305274963
-0.2653776407241821
-0.2509801983833313
-0.2326958030462265
-0.2101083993911743
-0.1831033378839492
-0.1518473178148269
-0.116715669631958
-0.0782212167978286
-0.0369681119918823
0.0064003393054008
0.0512609928846359
0.0970191434025764
0.1430509686470031
0.1886307746171951
0.2328814566135406
0.2747582793235779
0.3130673468112945
0.3465145230293274
0.3737782835960388
0.3936005234718323
0.4048921763896942
0.4068492949008941
0.3990576565265655
0.3815472424030304
0.3547783195972442
0.3195855319499969
0.2771169245243072
0.2287686020135879
0.176090806722641
0.1206671819090843
0.0640079751610755
0.0075025968253612
-0.0475639551877975
-0.0999719351530075
-0.1485536247491836
-0.1922293007373809
-0.2300822883844375
-0.2614430785179138
-0.2859539091587066
-0.3035967350006103
-0.3146775960922241
-0.319769948720932
-0.31962850689888
-0.3150881826877594
-0.3069619834423065
-0.2959572970867157
-0.282632052898407
-0.267395943403244
-0.2505444884300232
-0.232305958867073
-0.2128810882568359
-0.1924624890089035
-0.171233057975769
-0.149350494146347
-0.1269274055957794
-0.1040212586522102
-0.0806468576192855
-0.0568109303712844
-0.0325505137443542
-0.0079555064439773
0.016829028725624
0.0416133627295494
0.0661792904138565
0.0902920290827751
0.1136979833245277
0.1361139863729477
0.1572247147560119
0.1766952574253082
0.1941971778869629
0.2094512283802032
0.2222846746444702
0.2326800376176834
0.2407912760972976
0.2469285130500793
0.2515265941619873
0.2551063895225525
0.258234292268753
0.2614860832691192
0.2654210329055786
0.2705620527267456
0.2773652374744415
0.2861617803573608
0.2970690727233886
0.3098865747451782
0.3240202665328979
0.3384895920753479
0.3520376086235046
0.363315612077713
0.3710883557796478
0.3744062781333923
0.3727092146873474
0.3658459484577179
0.3540136814117431
0.3376404047012329
0.3172462880611419
0.2933214902877807
0.2662478685379028
0.2362714111804962
0.2035175114870071
0.1680422127246856
0.1299164891242981
0.0893229395151138
0.0466223955154418
0.0023639649152755
-0.0427571833133697
-0.0879794433712959
-0.1325723826885223
-0.1759276092052459
-0.2176177352666854
-0.2573970556259155
-0.2951362133026123
-0.3307201862335205
-0.3639540672302246
-0.3945058584213257
-0.421899139881134
-0.4455567598342895
-0.4648803770542145
-0.4793429374694824
-0.4885744452476501
-0.4924298822879791
-0.491030752658844
-0.4847723245620727
-0.4742920994758606
-0.4604016542434692
-0.4439915716648102
-0.4259241223335266
-0.4069314002990722
-0.3875390887260437
-0.3680326640605926
-0.348469614982605
-0.3287293612957001
-0.3085820078849792
-0.2877559065818786
-0.2659924030303955
-0.2430852353572845
-0.2189043760299682
-0.1934107840061187
-0.1666759550571441
-0.1389097571372985
-0.1104823276400566
-0.081922560930252
-0.0538778230547905
-0.0270276442170143
-0.0019746646285057
0.0208465754985809
0.0412211865186691
0.0591666102409362
0.0749144628643989
0.0888671800494194
0.1015341728925705
0.113458015024662
0.1251441836357116
0.1370033323764801
0.1493105143308639
0.1621824204921722
0.1755729466676712
0.1892885416746139
0.203021228313446
0.2163911461830139
0.22899030148983
0.2404246032238006
0.2503526508808136
0.2585176527500152
0.2647669911384582
0.269053041934967
0.2714152336120605
0.2719528079032898
0.2707996070384979
0.2681072354316711
0.264037936925888
0.258764773607254
0.252470314502716
0.2453387081623077
0.2375454157590866
0.2292467057704925
0.2205617129802703
0.2115423083305359
0.2021364569664001
0.1921626329421997
0.1813209950923919
0.1692515313625335
0.1556238830089569
0.1402333378791809
0.123078778386116
0.1044023036956787
0.0846809893846511
0.064575970172882
0.0448536612093448
0.0262949187308549
0.0096068270504474
-0.0046499092131853
-0.0161101445555686
-0.024627985432744
-0.0302754808217287
-0.033317707479
-0.034167256206274
-0.0333222225308418
-0.0312954485416412
-0.0285516493022441
-0.0254682414233684
-0.0223220828920602
-0.0192949846386909
-0.0164905525743961
-0.013955189846456
-0.0116969365626573
-0.0097007323056459
-0.0079421196132898
-0.0063981488347053
-0.0050529763102531
-0.0039002038538455
-0.0029457248747348
-0.0022129975259304
-0.0017527863383293
-0.0016583204269409
-0.0020795315504074
-0.0032242462038993
-0.0053386762738227
-0.008668728172779
-0.0134094357490539
-0.0196535363793373
-0.0273517072200775
-0.0362954884767532
-0.0461291037499904
-0.0563869588077068
-0.0665449202060699
-0.0760746151208877
-0.0844948291778564
-0.0914152264595031
-0.0965683683753013
-0.0998274981975555
-0.101209282875061
-0.1008631885051727
-0.0990488156676292
-0.0961045548319816
-0.0924154967069625
-0.0883825942873954
-0.0843867808580398
-0.08074851334095
-0.077694296836853
-0.0753405690193176
-0.0736975744366645
-0.0726879090070724
-0.0721729546785354
-0.0719827264547348
-0.071942925453186
-0.0718963965773582
-0.0717225819826126
-0.0713545307517051
-0.0707867667078971
-0.0700718015432357
-0.0693122595548629
-0.0686557441949844
-0.0682892426848411
-0.0684233605861663
-0.0692611932754516
-0.0709477439522743
-0.0735041871666908
-0.076785609126091
-0.0805012509226799
-0.0842763930559158
-0.087712824344635
-0.0904357433319091
-0.0921272709965705
-0.0925449132919311
-0.0915300101041793
-0.0890120565891265
-0.0850085467100143
-0.0796195715665817
-0.0730171352624893
-0.0654291212558746
-0.0571216009557247
-0.0483820885419845
-0.0395012721419334
-0.0307523217052221
-0.0223705079406499
-0.0145359952002763
-0.0073627214878797
-0.0008952263742685
0.0048875268548727
0.0100625492632389
0.0147484969347715
0.0190882608294487
0.0232299156486988
0.0273078307509422
0.0314245857298374
0.0356332287192344
0.0399207845330238
0.0441896691918373
0.0482291243970394
0.0516840144991874
0.0540547408163547
0.054764088243246
0.0532928928732872
0.0493404269218444
0.0429558604955673
0.0346136912703514
0.025224033743143
0.0161135531961917
0.0090743191540241
0.0065216645598411
0.0115533210337162
0.0275114029645919
0.0569840259850025
0.1007595136761665
0.1572892963886261
0.2228211462497711
0.2920535206794739
0.3590564131736755
0.4182284772396087
0.4651105999946594
0.4969039857387543
0.5126179456710815
0.5129061937332153
0.4996928572654724
0.4756424725055694
0.4435763657093048
0.406011551618576
0.3649071156978607
0.3215610980987549
0.2766118049621582
0.2301679104566574
0.1820187419652938
0.1318116188049316
0.0791527926921844
0.0236160308122634
-0.035316064953804
-0.0982966423034668
-0.1661055237054824
-0.2395589649677276
-0.3192678391933441
-0.4051775336265564
-0.495952844619751
-0.5885021686553955
-0.6779884696006775
-0.758404552936554
-0.823494553565979
-0.8677548766136169
-0.887309730052948
-0.8804939985275269
-0.848045289516449
-0.7929091453552246
-0.7197386026382446
-0.6342152953147888
-0.5423235893249512
-0.449688583612442
-0.3610579669475555
-0.2799661159515381
-0.208582192659378
-0.147734522819519
-0.0970900952816009
-0.0554396659135818
-0.0210291743278503
0.0081139057874679
0.0338958725333213
0.057939164340496
0.0814467146992683
0.1051484644412994
0.1293182075023651
0.1538436710834503
0.1783294975757599
0.2022130787372589
0.2248755544424057
0.2457315027713775
0.264286458492279
0.2801633477210998
0.293107122182846
0.3029787540435791
0.3097478151321411
0.3134888112545013
0.3143792748451233
0.3126927614212036
0.3087829649448395
0.303060233592987
0.2959650158882141
0.287941575050354
0.2794120907783508
0.2707521021366119
0.262269377708435
0.2541881799697876
0.2466408163309097
0.2396687120199203
0.2332312911748886
0.2272191941738128
0.2214705497026443
0.2157881557941436
0.2099556624889373
0.2037561535835266
0.1969967633485794
0.1895333379507064
0.1812876164913177
0.172254592180252
0.1625008583068847
0.15215465426445
0.1413902193307876
0.1304060071706771
0.1193972900509834
0.1085327267646789
0.0979428738355636
0.0877179950475692
0.0779098719358444
0.0685338228940963
0.0595662929117679
0.0509389974176883
0.0425390005111694
0.0342179425060749
0.0258039981126785
0.0171179343014955
0.0079998206347227
-0.0016581676900386
-0.0118857007473707
-0.0226215068250894
-0.0337118506431579
-0.0449203364551067
-0.0559515058994293
-0.0664851516485214
-0.0762145370244979
-0.0848844498395919
-0.0923229604959487
-0.0984574854373931
-0.1033151447772979
-0.1070143729448318
-0.1097467690706253
-0.1117490231990814
-0.1132804751396179
-0.1146193370223045
-0.1160567998886108
-0.1178549751639366
-0.1201703697443008
-0.1229768842458725
-0.1260019391775131
-0.1286651492118835
-0.1300432085990905
-0.1289094686508178
-0.1238572150468826
-0.1134963184595108
-0.0966540426015853
-0.0724453032016754
-0.0402826592326164
-5.145370960235596e-05
0.0475961416959762
0.1010643914341926
0.1578490436077118
0.2147690653800964
0.2683599293231964
0.3153380155563354
0.3530022799968719
0.3794643878936767
0.3936906456947326
0.3954502940177917
0.385256826877594
0.364253282546997
0.3339509963989258
0.295872688293457
0.2512893080711365
0.2012015134096145
0.1465392708778381
0.0884181857109069
0.0283127129077911
-0.0319136977195739
-0.09014892578125
-0.1443082988262176
-0.1926425546407699
-0.234001338481903
-0.2680148482322693
-0.2951215505599975
-0.3163715600967407
-0.3330551981925964
-0.3463245332241058
-0.3569742441177368
-0.3654442727565765
-0.3719958066940307
-0.3769418001174927
-0.3807759881019592
-0.3841010928153991
-0.3874069452285766
-0.3908536434173584
-0.3941988945007324
-0.3969132304191589
-0.3984385728836059
-0.3985031843185425
-0.3973621428012848
-0.3958312273025512
-0.3951055407524109
-0.396470844745636
-0.400998443365097
-0.40926393866539
-0.4211821258068084
-0.4360837936401367
-0.4529932737350464
-0.4708852469921112
-0.4887411594390869
-0.5054242610931396
-0.5195342898368835
-0.5294138193130493
-0.5333730578422546
-0.5299672484397888
-0.5180968046188354
-0.4969580769538879
-0.466020405292511
-0.4250852465629577
-0.3743816614151001
-0.3146380186080932
-0.2471030056476593
-0.1735155582427978
-0.0960160791873931
-0.0169949233531951
0.0611076354980468
0.1360144317150116
0.2057982683181762
0.2690176963806152
0.3247880041599273
0.3727830052375793
0.4131757020950317
0.4465325474739074
0.4736804068088531
0.4955705106258392
0.5131547451019287
0.5272802114486694
0.5386105179786682
0.5475847125053406
0.55441814661026
0.5591400861740112
0.5616594552993774
0.5618427991867065
0.5595865249633789
0.5548697113990784
0.5477837324142456
0.5385355949401855
0.5274289846420288
0.5148330926895142
0.5011447668075562
0.4867475628852844
0.4719739258289337
0.4570781588554382
0.4422245025634765
0.4274877309799194
0.4128609299659729
0.3982715904712677
0.3836044669151306
0.368725836277008
0.3535055518150329
0.3378375470638275
0.3216561079025268
0.3049448728561401
0.2877385020256042
0.2701186537742615
0.2522043883800506
0.2341364324092865
0.2160575985908508
0.1980966031551361
0.180359348654747
0.1629253625869751
0.1458467245101928
0.1291474997997284
0.1128205135464668
0.0968209877610206
0.081059955060482
0.0654064714908599
0.0497038476169109
0.0337949208915233
0.0175513178110122
0.0009019896388053
-0.0161456018686294
-0.033494085073471
-0.0509561896324157
-0.0682700276374816
-0.0851287841796875
-0.1012167036533355
-0.1162424907088279
-0.1299684941768646
-0.1422361731529235
-0.1529817581176757
-0.1622371077537536
-0.170116901397705
-0.1767956465482711
-0.182477667927742
-0.187364712357521
-0.1916314661502838
-0.1954172700643539
-0.1988281160593032
-0.2019368410110473
-0.2047796845436096
-0.2073561549186706
-0.2096376121044159
-0.2115810811519622
-0.2131396234035492
-0.2142658233642578
-0.2149139493703842
-0.2150464653968811
-0.2146420180797577
-0.2136995047330856
-0.2122387588024139
-0.210300862789154
-0.2079541385173797
-0.2053066343069076
-0.2025124728679657
-0.1997619271278381
-0.1972588151693344
-0.1951917856931686
-0.1937045902013778
-0.1928716003894806
-0.1926872283220291
-0.1930704712867736
-0.193870335817337
-0.1948609799146652
-0.1957390457391739
-0.1961425542831421
-0.1956927627325058
-0.1940453350543975
-0.1909367740154266
-0.186220183968544
-0.1798908412456512
-0.1720979660749435
-0.1631292998790741
-0.1533622741699218
-0.143199548125267
-0.1330154091119766
-0.1231263577938079
-0.1137817725539207
-0.1051582247018814
-0.0973433256149292
-0.0903101563453674
-0.0839011073112487
-0.0778443589806556
-0.0718079805374145
-0.0654699578881263
-0.0585759431123733
-0.0509750358760356
-0.0426403023302555
-0.0336760617792606
-0.0243054702877998
-0.0148375462740659
-0.005625195801258
0.002974173054099
0.0106367915868759
0.0171156171709299
0.0222831014543771
0.0261576268821954
0.0289021991193294
0.0308013595640659
0.0322269946336746
0.0335855707526207
0.035245593637228
0.0374785251915454
0.0404429249465465
0.0442026481032371
0.0487503968179225
0.0540168769657611
0.059866864234209
0.0660997778177261
0.072472408413887
0.0787470266222953
0.0847498700022697
0.0904155671596527
0.0958257541060447
0.1012815907597541
0.1073542684316635
0.1147809028625488
0.1242177784442901
0.1360003650188446
0.150013655424118
0.1656938195228576
0.1821377277374267
0.1982702314853668
0.213017001748085
0.2254480570554733
0.2348750233650207
0.2408960461616516
0.2433901131153106
0.2424726486206054
0.2384333610534668
0.2316757291555404
0.2226647734642028
0.2118831425905227
0.1997980922460556
0.1868397295475006
0.1733884811401367
0.1597695350646972
0.1462499350309372
0.1330357640981674
0.1202736273407936
0.1080588921904563
0.0964454263448715
0.0854533612728118
0.0750741437077522
0.0652718096971511
0.0559847317636013
0.0471312291920185
0.0386158712208271
0.0303365923464298
0.0221960395574569
0.0141141414642333
0.0060352683067321
-0.0020710155367851
-0.0102123990654945
-0.0183770582079887
-0.0265367105603218
-0.0346495173871517
-0.0426644571125507
-0.050526212900877
-0.0581791922450065
-0.0655718967318534
-0.0726623758673667
-0.0794250667095184
-0.0858589336276054
-0.0919958502054214
-0.0979058593511581
-0.1036926358938217
-0.1094755083322525
-0.1153618246316909
-0.1214160025119781
-0.1276335418224334
-0.1339295208454132
-0.1401435881853103
-0.1460570096969604
-0.151418000459671
-0.1559713184833526
-0.1594871878623962
-0.1617871224880218
-0.1627629548311233
-0.1623845249414444
-0.1606965363025665
-0.1578096449375152
-0.1538871973752975
-0.1491273939609527
-0.1437427550554275
-0.1379399597644806
-0.1319024264812469
-0.1257775127887725
-0.1196690425276756
-0.1136356815695762
-0.1076944470405578
-0.1018285155296325
-0.0959995836019516
-0.0901635810732841
-0.0842847675085067
-0.0783488154411315
-0.0723806321620941
-0.0664574354887008
-0.060700885951519
-0.055252019315958
-0.0502462573349475
-0.0457981079816818
-0.0419940501451492
-0.0388919934630394
-0.0365293994545936
-0.0349329300224781
-0.0341139063239097
-0.0340462103486061
-0.0346450060606002
-0.0357692614197731
-0.0372481308877468
-0.0389044992625713
-0.0405518524348735
-0.0419718846678733
-0.0429009720683097
-0.0430411696434021
-0.042092740535736
-0.039798654615879
-0.035989262163639
-0.0306130647659301
-0.0237408876419067
-0.0155499428510665
-0.0063055828213691
0.003660574555397
0.0139835625886917
0.0242994949221611
0.0342752113938331
0.043641522526741
0.0522248744964599
0.0599565878510475
0.0668564215302467
0.0730039626359939
0.0785082280635833
0.0834844559431076
0.088042676448822
0.0922813341021537
0.096275195479393
0.1000580340623855
0.1036123931407928
0.1068753451108932
0.1097549721598625
0.1121469140052795
0.11394864320755
0.1150746196508407
0.1154760643839836
0.1151642426848411
0.1142241507768631
0.1128045544028282
0.1110898703336715
0.109273225069046
0.1075387746095657
0.1060463562607765
0.1049137860536575
0.1042015850543975
0.1039086505770683
0.1039796471595764
0.1043172106146812
0.10479736328125
0.1052884608507156
0.1056672483682632
0.1058273687958717
0.105682872235775
0.1051705703139305
0.1042524427175521
0.102917656302452
0.1011823564767837
0.0990837141871452
0.0966680645942688
0.0939793214201927
0.0910514146089553
0.0879016369581222
0.0845236480236053
0.0808810368180275
0.0769016966223716
0.0724799484014511
0.0674981549382209
0.0618784092366695
0.0556978434324264
0.0493863821029663
0.0438639000058174
0.0403910875320434
0.0401584208011627
0.043885700404644
0.0516263358294963
0.0627820640802383
0.0762559622526168
0.0906708016991615
0.1045955717563629
0.1167433857917785
0.1261201947927475
0.1320986151695251
0.1344011276960373
0.1330459713935852
0.1283218562602996
0.1207616552710533
0.1110586151480674
0.0999445840716362
0.0880861058831214
0.0760276541113853
0.0641734451055526
0.0527808368206024
0.0419549942016601
0.0316604375839233
0.0217649787664413
0.0121073275804519
0.0025570392608642
-0.0069626718759536
-0.016485720872879
-0.0260143131017684
-0.0355110466480255
-0.0448922663927078
-0.0540551394224166
-0.062939241528511
-0.071584478020668
-0.0801462680101394
-0.088864728808403
-0.0980137884616851
-0.1078509762883186
-0.1185666918754577
-0.1302318274974823
-0.1427592933177948
-0.1558992713689804
-0.1692710071802139
-0.1824151426553726
-0.1948480606079101
-0.206110417842865
-0.2158111929893493
-0.2236671298742294
-0.2295285910367965
-0.2333840727806091
-0.2353431135416031
-0.2356007248163223
-0.2343906611204147
-0.2319390475749969
-0.2284282445907592
-0.2239736169576645
-0.2186102867126464
-0.212291732430458
-0.2049018889665603
-0.1962736994028091
-0.1862111687660217
-0.1745222508907318
-0.16106478869915
-0.1457956880331039
-0.1288126409053802
-0.1103808432817459
-0.0909409075975418
-0.0710942894220352
-0.0515602305531501
-0.033107005059719
-0.016480453312397
-0.002353511750698
0.0087036192417144
0.0162434428930282
0.0199559107422828
0.0196863412857055
0.0154619663953781
0.0075124576687812
-0.0037305355072021
-0.0176517888903617
-0.0334865003824234
-0.0503734648227691
-0.0674229264259338
-0.0837864279747009
-0.098717600107193
-0.1116191893815994
-0.122076541185379
-0.1298739910125732
-0.1349858045578003
-0.137543648481369
-0.1377953439950943
-0.1360642910003662
-0.132709726691246
-0.128087967634201
-0.1225166171789169
-0.1162462532520294
-0.109446682035923
-0.1022108718752861
-0.0945718958973884
-0.0865237116813659
-0.0780390426516532
-0.0690858066082
-0.059647798538208
-0.0497513934969902
-0.0394890382885932
-0.0290264189243316
-0.0185889080166816
-0.0084314346313476
0.0012009143829345
0.010111853480339
0.018185406923294
0.0254049897193908
0.0318551957607269
0.0377061516046524
0.0431880503892898
0.0485632866621017
0.0540990382432937
0.0600391775369644
0.0665749311447143
0.0738191902637481
0.0817894637584686
0.0904029235243797
0.0994879826903343
0.1088126525282859
0.1181209534406662
0.1271657943725586
0.1357342898845672
0.1436663568019867
0.1508651673793792
0.1572967767715454
0.1629799902439117
0.167970597743988
0.1723455041646957
0.1761898398399353
0.1795875132083892
0.1826143413782119
0.1853348016738891
0.1878028810024261
0.1900603473186493
0.1921256780624389
0.1939771473407745
0.1955392807722091
0.1966804563999176
0.1972275376319885
0.1969945430755615
0.1958140432834625
0.1935644000768661
0.1901918351650238
0.1857248544692993
0.1802767068147659
0.1740338653326034
0.1672313958406448
0.160120278596878
0.1529349833726883
0.1458682417869568
0.1390556842088699
0.1325695961713791
0.1264179944992065
0.1205471381545066
0.114850029349327
0.1091823428869247
0.1033831611275672
0.0972976684570312
0.0907998606562614
0.0838125869631767
0.076321080327034
0.0683771222829818
0.0600940659642219
0.0516325607895851
0.0431772172451019
0.0349121578037738
0.0270038209855556
0.0195893701165914
0.0127681642770767
0.0065976809710264
0.0010915203019976
-0.0037834723480045
-0.0081108203157782
-0.0120270922780036
-0.0157190132886171
-0.0194087922573089
-0.0233263745903968
-0.0276744589209556
-0.0325928218662738
-0.0381262078881263
-0.0442013144493103
-0.0506184361875057
-0.0570596270263195
-0.0631116926670074
-0.068303644657135
-0.0721598491072654
-0.0742643699049949
-0.0743259191513061
-0.0722319036722183
-0.0680787712335586
-0.0621702969074249
-0.0549870803952217
-0.0471365675330162
-0.0392919927835464
-0.0321251414716243
-0.0262362211942672
-0.0220911316573619
-0.0199828781187534
-0.0200255326926708
-0.0221720524132251
-0.0262394435703754
-0.0319342128932476
-0.0388795249164104
-0.0466443002223968
-0.0547734200954437
-0.0628194957971572
-0.0703748613595962
-0.0770986229181289
-0.0827338770031929
-0.0871146693825721
-0.0901649817824363
-0.0918896049261093
-0.0923540592193603
-0.0916538909077644
-0.0898822993040084
-0.087108626961708
-0.0833753049373626
-0.0787155777215957
-0.0731859356164932
-0.0668945983052253
-0.0600136145949363
-0.052782941609621
-0.0455145202577114
-0.0385883152484893
-0.0324320346117019
-0.0274866707623004
-0.0241651237010955
-0.0228100195527076
-0.0236544087529182
-0.0267930999398231
-0.0321724191308021
-0.0395911671221256
-0.0486982576549053
-0.0589876770973205
-0.0698065161705017
-0.0803909748792648
-0.0899343341588974
-0.0976716503500938
-0.1029509752988815
-0.1052712351083755
-0.1042907834053039
-0.099821537733078
-0.0918231979012489
-0.0804055407643318
-0.0658362731337547
-0.0485433712601661
-0.0291097350418567
-0.0082785710692405
0.0130148380994796
0.0336103253066539
0.0521501936018466
0.067204363644123
0.0774625986814498
0.0819272324442863
0.0800626724958419
0.0718841850757598
0.0579714626073837
0.0393965020775795
0.0175680071115493
-0.0059793405234813
-0.0297861602157354
-0.0525966435670852
-0.0734006538987159
-0.0914187580347061
-0.1060593053698539
-0.116864413022995
-0.1234804615378379
-0.1256854981184005
-0.1234378442168235
-0.1168844848871231
-0.1063242480158805
-0.0921584665775299
-0.074850708246231
-0.0549076907336711
-0.0328916348516941
-0.0094520999118685
0.0146539062261581
0.0385695062577724
0.061364147812128
0.0820644125342369
0.0996952354907989
0.113355815410614
0.1223331242799758
0.126212477684021
0.1249370500445365
0.1188017725944519
0.1083991676568985
0.0945415645837783
0.078171320259571
0.0602635145187377
0.0417333655059337
0.0233634747564792
0.0057581579312682
-0.0106683392077684
-0.0256620086729526
-0.0390638336539268
-0.0507276616990566
-0.0604467913508415
-0.0679248571395874
-0.072813369333744
-0.0747960060834884
-0.073675736784935
-0.0694349333643913
-0.0622606687247753
-0.052537377923727
-0.0408137962222099
-0.0277510732412338
-0.0140564702451229
-0.0004108510911464
0.0125983096659183
0.0245292410254478
0.0351165607571601
0.0442749485373497
0.052074771374464
0.0586965568363666
0.0643798187375068
0.0693803131580352
0.0739356353878974
0.0782315209507942
0.082371562719345
0.0863675028085708
0.0901610404253006
0.0936585068702697
0.096748948097229
0.0993012934923172
0.1011581569910049
0.1021433696150779
0.1020884066820144
0.1008694469928741
0.098440870642662
0.0948539450764656
0.0902559384703636
0.0848724693059921
0.0789761319756507
0.0728408098220825
0.0666868984699249
0.0606360249221324
0.0546964630484581
0.0487821921706199
0.042749099433422
0.0364327020943164
0.0296813920140266
0.0223829820752143
0.014484872110188
0.0060087377205491
-0.0029431916773319
-0.0121943075209856
-0.0215104632079601
-0.0306199714541435
-0.0392319299280643
-0.0470551550388336
-0.0538209602236747
-0.0593096725642681
-0.0633789598941803
-0.0659881085157394
-0.0672084018588066
-0.0672138035297393
-0.0662534460425376
-0.0646154284477233
-0.0625957697629928
-0.0604801140725612
-0.0585327818989753
-0.0569838434457778
-0.0560121238231658
-0.0557252205908298
-0.0561410933732986
-0.0571833997964859
-0.0586969926953315
-0.0604747124016284
-0.0622837282717227
-0.0638864859938621
-0.0650569126009941
-0.0655942261219024
-0.065336138010025
-0.0641706138849258
-0.0620426721870899
-0.0589550286531448
-0.0549651980400085
-0.0501809976994991
-0.0447523891925811
-0.0388530455529689
-0.0326515175402164
-0.0262894742190837
-0.0198871195316314
-0.0135721769183874
-0.0075102727860212
-0.0019205883145332
0.0029303226619958
0.0067605804651975
0.0093315578997135
0.0105255674570798
0.0104152299463748
0.0092918816953897
0.007648566737771
0.0061330236494541
0.0054732300341129
0.0063747800886631
0.0094186533242464
0.014972997829318
0.023078765720129
0.0333170741796493
0.0447607971727848
0.0560731589794158
0.0656946301460266
0.0719864964485168
0.0731795728206634
0.0671225190162658
0.0511798784136772
0.0227137338370084
-0.0198963917791843
-0.0762205421924591
-0.1432956159114837
-0.2159167677164077
-0.2874486446380615
-0.3507959842681885
-0.3993650674819946
-0.4278942048549652
-0.4330349564552307
-0.4135487079620361
-0.3700505495071411
-0.3045289516448974
-0.2199567258358001
-0.1200854331254959
-0.0093549042940139
0.1071746870875358
0.2239530980587005
0.3352040946483612
0.4353624582290649
0.5196324586868286
0.5845339298248291
0.6282967925071716
0.6510029435157776
0.6544395685195923
0.6417102813720703
0.6167029142379761
0.5835154056549072
0.5459222793579102
0.5069543123245239
0.4686540067195892
0.4320347309112549
0.397222489118576
0.363713651895523
0.3306675255298614
0.2971748411655426
0.2624726891517639
0.2260895371437072
0.1879186332225799
0.1482266336679458
0.1075985133647918
0.0668276846408844
0.026777297258377
-0.0117603838443756
-0.048184186220169
-0.0821487829089164
-0.1135398969054222
-0.1423885524272918
-0.168797492980957
-0.1929010450839996
-0.214834913611412
-0.234707310795784
-0.2525765299797058
-0.2684388756752014
-0.2822256088256836
-0.2938035726547241
-0.302976906299591
-0.3094938695430755
-0.3130671381950378
-0.3134072124958038
-0.3102537393569946
-0.3034012615680694
-0.2927361726760864
-0.2782989144325256
-0.2603615820407867
-0.2394807338714599
-0.2164810299873352
-0.1923644244670868
-0.1681798547506332
-0.1448925286531448
-0.1232818365097045
-0.1038867756724357
-0.0870007276535034
-0.0727029293775558
-0.0609086453914642
-0.0514237880706787
-0.0439972281455993
-0.0383661016821861
-0.0342891067266464
-0.0315670371055603
-0.0300539135932922
-0.0296596139669418
-0.0303418710827827
-0.0320879518985748
-0.0348889902234077
-0.0387090966105461
-0.0434530600905418
-0.0489417538046836
-0.0549061894416809
-0.0610066875815391
-0.0668719634413719
-0.0721468329429626
-0.0765404179692268
-0.0798664689064025
-0.0820643976330757
-0.0831965655088424
-0.0834274366497993
-0.0829962641000747
-0.0821918994188308
-0.0813290476799011
-0.0807231813669204
-0.0806653946638107
-0.0813959538936615
-0.0830712094902992
-0.0857268199324607
-0.089252732694149
-0.0933942049741745
-0.0977806150913238
-0.1019727736711502
-0.105522021651268
-0.108042225241661
-0.1092810183763504
-0.1091575324535369
-0.1077530905604362
-0.1052691489458084
-0.1019709408283233
-0.09813092648983
-0.0939833521842956
-0.0896956250071525
-0.0853564441204071
-0.0809772461652755
-0.0765040069818496
-0.0718364790081977
-0.0668504238128662
-0.0614198185503482
-0.0554383546113967
-0.0488371551036834
-0.0415944084525108
-0.0337377786636352
-0.0253437459468841
-0.0165315419435501
-0.0074482783675193
0.0017494112253189
0.0109080374240875
0.0198789685964584
0.0285103842616081
0.0366378799080848
0.0440837293863296
0.0506702214479446
0.0562467724084854
0.0607221871614456
0.064090184867382
0.0664417892694473
0.0679637119174003
0.0689221993088722
0.0696329325437545
0.0704223737120628
0.0715899616479873
0.0733787417411804
0.0759556591510772
0.0793993026018142
0.0836956351995468
0.0887440666556358
0.094372920691967
0.1003610417246818
0.1064628660678863
0.1124349385499954
0.1180614605545997
0.1231742426753044
0.1276630610227584
0.1314761638641357
0.1346149146556854
0.1371260285377502
0.1390912532806396
0.1406139135360717
0.1418037712574005
0.1427632570266723
0.1435776203870773
0.1443081498146057
0.1449861377477646
0.1456068456172943
0.1461215317249298
0.1464259326457977
0.146351471543312
0.1456705927848816
0.144123688340187
0.1414652615785598
0.1375151872634887
0.1321999728679657
0.125577762722969
0.1178437247872352
0.1093135103583335
0.1003886759281158
0.091510996222496
0.0831112712621688
0.0755608528852462
0.0691355690360069
0.0639966800808906
0.0601855479180812
0.0576276257634162
0.0561473444104194
0.0554940737783908
0.0553728267550468
0.0554770603775978
0.0555226914584636
0.0552764385938644
0.0545738786458969
0.0533269941806793
0.0515207201242446
0.0492002181708812
0.0464544110000133
0.0434003174304962
0.0401687175035476
0.0368905551731586
0.0336844064295291
0.0306456256657838
0.0278378836810588
0.0252872332930564
0.0229762569069862
0.0208347178995609
0.0187270306050777
0.0164452120661735
0.0137196704745292
0.0102535644546151
0.0057744435034692
8.920766413211823e-05
-0.0068711987696588
-0.015025888569653
-0.0241407491266727
-0.0338485389947891
-0.0436894074082374
-0.0531645491719245
-0.0617927089333534
-0.0691605135798454
-0.0749615356326103
-0.0790214613080024
-0.0813073143362999
-0.0819199234247207
-0.0810721069574356
-0.0790572166442871
-0.0762131512165069
-0.0728873088955879
-0.0694045647978782
-0.0660385191440582
-0.0629900097846984
-0.0603777319192886
-0.058239996433258
-0.0565443001687526
-0.055203590542078
-0.0540969930589199
-0.0530906990170478
-0.0520555116236209
-0.0508799329400062
-0.0494790598750114
-0.0478000752627849
-0.0458267554640769
-0.0435860008001327
-0.0411584861576557
-0.0386915765702724
-0.0364058092236518
-0.0345843620598316
-0.0335394069552421
-0.0335581041872501
-0.0348418802022933
-0.0374563336372375
-0.0413036346435546
-0.046123057603836
-0.0515194162726402
-0.0570113658905029
-0.0620885118842124
-0.0662695840001106
-0.0691554695367813
-0.0704696699976921
-0.0700803250074386
-0.0680024847388267
-0.0643850937485694
-0.059487335383892
-0.0536457449197769
-0.047234907746315
-0.0406276434659957
-0.0341593660414218
-0.0280993338674306
-0.0226313304156065
-0.0178461335599422
-0.0137459747493267
-0.0102586559951305
-0.0072590801864862
-0.0045949034392833
-0.0021101795136928
0.0003362912684679
0.0028567686676979
0.0055236555635929
0.0083620361983776
0.0113473236560821
0.0144074391573667
0.0174216441810131
0.0202125571668148
0.0225418638437986
0.0241231955587863
0.0246573500335216
0.0238839387893676
0.0216362345963716
0.017886709421873
0.01277263648808
0.0065937060862779
-0.0002183299511671
-0.0071505401283502
-0.0136700347065925
-0.0192848592996597
-0.0235954150557518
-0.0263303257524967
-0.0273644160479307
-0.0267198719084262
-0.0245532393455505
-0.0211303774267435
-0.0167922601103782
-0.0119150653481483
-0.0068676359951496
-0.001972900237888
0.0025188755244016
0.0064431191422045
0.0097227552905678
0.0123611958697438
0.014428561553359
0.0160427186638116
0.0173472911119461
0.018490033224225
0.0196035783737897
0.0207899641245603
0.0221116505563259
0.0235901642590761
0.0252100005745887
0.026924293488264
0.028658390045166
0.0303064584732055
0.0317199900746345
0.0326968543231487
0.0329852253198623
0.0323107987642288
0.0304236393421888
0.0271521918475627
0.0224513094872236
0.0164332762360572
0.0093724010512232
0.0016798293218016
-0.0061448854394257
-0.0135732162743806
-0.0201071575284004
-0.0253310892730951
-0.0289506893604993
-0.0308156516402959
-0.0309253372251987
-0.0294181089848279
-0.0265460163354873
-0.0226389020681381
-0.0180642083287239
-0.0131881088018417
-0.0083419708535075
-0.0037972477730363
0.0002502991410437
0.0036886895541101
0.0064892973750829
0.0086956117302179
0.0104046715423464
0.0117470184341073
0.0128671610727906
0.013904538936913
0.0149762667715549
0.0161647852510213
0.0175129491835832
0.0190256722271442
0.0206748023629188
0.0224050544202327
0.0241387113928794
0.0257735326886177
0.0271713808178901
