bvp
0.6978482604026794
0.7575873136520386
0.8110318183898926
0.860156774520874
0.9062546491622924
0.9497071504592896
0.9901623725891112
1.0267943143844604
1.0586026906967163
1.0847578048706057
1.1047536134719849
1.118130803108215
1.123951077461243
1.1205415725708008
1.10576331615448
1.0775041580200195
1.03404700756073
0.9742814898490906
0.8977478742599487
0.8043947219848633
0.6942086219787598
0.5671891570091248
0.4239871501922607
0.2669410705566406
0.100807249546051
-0.0673578381538391
-0.2291094064712524
-0.3758638501167297
-0.5000725984573364
-0.5961407423019409
-0.6610678434371948
-0.6948219537734985
-0.7003988027572632
-0.6834895610809326
-0.6517540216445923
-0.6137943267822266
-0.5779776573181152
-0.5513365268707275
-0.5387919545173645
-0.5427736639976501
-0.5631593465805054
-0.5975026488304138
-0.6415722966194153
-0.6901269555091858
-0.7377442717552185
-0.7795543670654297
-0.8117994070053101
-0.8321629762649536
-0.8398736715316772
-0.8356554508209229
-0.821571946144104
-0.8008080720901489
-0.7775455713272095
-0.7568962574005127
-0.7445160150527954
-0.7457916736602783
-0.7649380564689636
-0.8042545318603516
-0.8635567426681519
-0.939884066581726
-1.0277442932128906
-1.1200240850448608
-1.2093276977539062
-1.2892764806747437
-1.3553600311279297
-1.405214786529541
-1.4385195970535278
-1.4567310810089111
-1.4626410007476809
-1.459653615951538
-1.450901746749878
-1.4385181665420532
-1.4233042001724243
-1.4048335552215576
-1.3818492889404297
-1.3527413606643677
-1.315982222557068
-1.2704846858978271
-1.2158046960830688
-1.1521499156951904
-1.080275058746338
-1.0013508796691897
-0.9168535470962524
-0.8284769654273987
-0.7380491495132446
-0.647415280342102
-0.5582785606384277
-0.4720579385757446
-0.3898003697395324
-0.3120957016944885
-0.2389634847640991
-0.1697897911071777
-0.1034132838249206
-0.0383849143981933
0.0266722440719604
0.0927549004554748
0.1603686809539795
0.2296233773231506
0.3004109859466553
0.3725456595420837
0.4458218216896057
0.5200027227401733
0.5947677493095398
0.6696509122848511
0.7440080642700195
0.8170345425605774
0.8877990245819092
0.9552658200263976
1.0183645486831665
1.076141119003296
1.1278903484344482
1.1731643676757812
1.2116730213165283
1.2431453466415403
1.267236351966858
1.2835713624954224
1.2919247150421145
1.2924219369888306
1.2856593132019043
1.2726982831954956
1.2549396753311155
1.233923077583313
1.2111055850982666
1.1876859664916992
1.1645395755767822
1.142259955406189
1.1212310791015625
1.10166335105896
1.0835847854614258
1.066832184791565
1.0510852336883545
1.0359257459640503
1.02088725566864
1.0055023431777954
0.9893542528152466
0.972109079360962
0.9535266160964966
0.9334726929664612
0.9119362235069276
0.8890408277511597
0.8650371432304382
0.8402543663978577
0.815004825592041
0.7894747257232666
0.7636477947235107
0.7372999787330627
0.7100852727890015
0.6816797852516174
0.6519125699996948
0.6208244562149048
0.5886253714561462
0.5555779933929443
0.5218911170959473
0.487672358751297
0.4529181718826294
0.4175277948379516
0.3813391923904419
0.3441565036773681
0.3057731389999389
0.2660109996795654
0.2247460037469864
0.1819236278533935
0.1376133263111114
0.0920717492699623
0.0457338541746139
-0.0008724443614482
-0.0472195893526077
-0.0928307324647903
-0.1372744590044021
-0.180110901594162
-0.2208392769098281
-0.2589123547077179
-0.2938135862350464
-0.3251252770423889
-0.3525415062904358
-0.3758400678634643
-0.3948383629322052
-0.4093499183654785
-0.4191754162311554
-0.4241030216217041
-0.4238120317459106
-0.4176877737045288
-0.4047534465789795
-0.3839397132396698
-0.3546652495861053
-0.3173998594284057
-0.2738725543022156
-0.2268108427524566
-0.1793076992034912
-0.1341374814510345
-0.093386173248291
-0.0584485828876495
-0.0302166044712066
-0.0093753933906555
0.0032507181167602
0.0064985156059265
-0.0010565519332885
-0.0208883881568908
-0.0543717741966247
-0.1025663018226623
-0.1655987501144409
-0.2418390214443206
-0.3277212977409363
-0.418614774942398
-0.5100635886192322
-0.5985405445098877
-0.681608259677887
-0.7578738927841187
-0.8269416689872742
-0.8892598748207092
-0.9458297491073608
-0.9978914260864258
-1.046558141708374
-1.0923566818237305
-1.1349122524261477
-1.1730849742889404
-1.2056379318237305
-1.232114553451538
-1.2531521320343018
-1.2697497606277466
-1.2820751667022705
-1.2888758182525637
-1.2878066301345823
-1.276139736175537
-1.2514060735702517
-1.2119498252868652
-1.1574504375457764
-1.0893534421920776
-1.0110561847686768
-0.9276246428489684
-0.8449289798736572
-0.7684469223022461
-0.7021995186805725
-0.6479727625846863
-0.6047349572181702
-0.5684862732887268
-0.5329372882843018
-0.49094158411026
-0.4361318945884704
-0.3642353415489197
-0.2738683223724365
-0.1667582392692566
-0.0473209619522094
0.0782768726348877
0.2031909525394439
0.3207543492317199
0.4248998165130615
0.5101624727249146
0.5717660188674927
0.606378972530365
0.6133288145065308
0.5954426527023315
0.558995246887207
0.5128306150436401
0.4669505655765533
0.4308412373065948
0.4118761420249939
0.4142798483371734
0.4389698803424835
0.48412024974823
0.5460025668144226
0.6197812557220459
0.700181245803833
0.7820432186126709
0.8607227206230164
0.9322879910469056
0.9936281442642212
1.0425899028778076
1.0780528783798218
1.0998382568359375
1.1085203886032104
1.105280518531799
1.0918574333190918
1.0705084800720217
1.0438802242279053
1.0147292613983154
0.9855060577392578
0.9579890370368958
0.9331732392311096
0.9113824367523192
0.8924683332443237
0.8760015964508057
0.8613778352737427
0.8478474020957947
0.8345431089401245
0.8205440044403076
0.8050126433372498
0.7874013185501099
0.7675864696502686
0.7458200454711914
0.7225723266601562
0.6983368992805481
0.6733769178390503
0.6475073099136353
0.6201280951499939
0.5905433297157288
0.5583553910255432
0.523676872253418
0.4869887828826904
0.448728084564209
0.408970296382904
0.3674557507038116
0.3238655626773834
0.2781720161437988
0.2309384047985077
0.1833856999874115
0.137118399143219
0.0936667919158935
0.0541111826896667
0.0189499258995056
-0.0117117762565612
-0.0377368330955505
-0.0586950778961181
-0.074125587940216
-0.0840893983840942
-0.0894528031349182
-0.091717779636383
-0.0926682949066162
-0.0941463708877563
-0.0980561971664428
-0.1064901351928711
-0.1217605471611023
-0.1461406350135803
-0.1813181638717651
-0.2278531789779663
-0.2849684357643127
-0.3506873846054077
-0.4220845103263855
-0.4955329298973083
-0.5670444965362549
-0.6327865719795227
-0.6896724700927734
-0.7358325719833374
-0.770861029624939
-0.7958160042762756
-0.8129520416259766
-0.8251916170120239
-0.8354806900024414
-0.8462640047073364
-0.8591944575309753
-0.8750410079956055
-0.8937698602676392
-0.914762318134308
-0.9370549917221068
-0.9594955444335938
-0.980828046798706
-0.999811053276062
-1.0154110193252563
-1.0269674062728882
-1.0341978073120115
-1.0370467901229858
-1.0355504751205444
-1.0298751592636108
-1.020500898361206
-1.0084065198898315
-0.9951291084289552
-0.9825599193572998
-0.9723977446556092
-0.96549391746521
-0.9615512490272522
-0.9593489170074464
-0.9572360515594482
-0.9536082744598388
-0.947258472442627
-0.9374593496322632
-0.923649251461029
-0.9049476385116576
-0.8799626231193542
-0.8470609188079834
-0.8048502802848816
-0.7525702118873596
-0.6902896165847778
-0.6189401149749756
-0.5402538180351257
-0.4566599726676941
-0.3711033165454864
-0.2867105603218078
-0.2063015252351761
-0.131825178861618
-0.0639057755470275
-0.0017161071300506
0.0567489862442016
0.1141039282083511
0.1728914380073547
0.2349981367588043
0.3013389110565185
0.3718511760234833
0.4456906020641327
0.5214621424674988
0.5974165201187134
0.6716746091842651
0.7425090074539185
0.8085516691207886
0.8687609434127808
0.9222457408905028
0.9683011770248412
1.0068150758743286
1.0386784076690674
1.065621852874756
1.0894129276275637
1.1109750270843506
1.1299214363098145
1.1445320844650269
1.1520287990570068
1.14908766746521
1.1324788331985474
1.099616527557373
1.0489020347595217
0.9799516201019288
0.8938173055648804
0.7931515574455261
0.6821584701538086
0.5662316679954529
0.451325386762619
0.3431907892227173
0.2466331422328949
0.1649787425994873
0.0998857766389846
0.0514631122350692
0.0185808688402175
-0.0007222592830657
-0.0088253319263458
-0.0081838965415954
-0.0011348873376846
0.0101149380207061
0.023416131734848
0.0366789549589157
0.0479916483163833
0.0557834953069686
0.0589745938777923
0.057097852230072
0.0503532141447067
0.039532795548439
0.0258146822452545
0.0104946643114089
-0.0052511543035507
-0.0205278098583221
-0.0348191857337951
-0.0479841977357864
-0.0600937157869339
-0.071194976568222
-0.0811329782009124
-0.0894442200660705
-0.0953765362501144
-0.0981436818838119
-0.0973236411809921
-0.0931670516729354
-0.0867170840501785
-0.0797451436519622
-0.0744662880897522
-0.0730363726615905
-0.0769667625427246
-0.0866793841123581
-0.1013852804899215
-0.1193127632141113
-0.1381676495075225
-0.1556540876626968
-0.1698954701423645
-0.1796617358922958
-0.1844078302383422
-0.1841964125633239
-0.1795661002397537
-0.1713703423738479
-0.1606183648109436
-0.1483588069677353
-0.1356268376111984
-0.1234244555234909
-0.1126689910888671
-0.1040924936532974
-0.0981226414442062
-0.0947747826576232
-0.0935939997434616
-0.093697115778923
-0.0939316302537918
-0.0931081175804138
-0.0902089476585388
-0.0844644159078598
-0.0752876698970794
-0.0622160583734512
-0.0449907779693603
-0.0237261056900024
0.0009738653898239
0.0280550867319107
0.0562309622764587
0.0842701196670532
0.1111638993024826
0.1360982060432434
0.1583469212055206
0.1772347241640091
0.1922043561935424
0.2029110491275787
0.2092133611440658
0.2110187411308288
0.2081427574157714
0.2003488540649414
0.1875232309103012
0.1698392182588577
0.1478477269411087
0.1225228011608123
0.0952853411436081
0.0679412558674812
0.0424668416380882
0.0207013636827468
0.0040733963251113
-0.0065668299794197
-0.0109977051615715
-0.0095792040228843
-0.0031408220529556
0.0071646273136138
0.0200133025646209
0.0340511053800582
0.0480189733207225
0.0608569905161857
0.0717712864279747
0.080257162451744
0.0860942676663398
0.0893258899450302
0.0902174785733223
0.0891946256160736
0.0867728441953659
0.0834893509745597
0.0798413455486297
0.076237067580223
0.0729649439454078
0.0701797306537628
0.0679071843624115
0.0660679563879966
0.0645120218396186
0.0630532726645469
0.061498150229454
0.0596673488616943
0.0574151240289211
0.0546489208936691
0.051338791847229
0.0475000478327274
0.0431531704962253
0.0382813513278961
0.0328025668859481
0.0265670642256736
0.019382819533348
0.0110638216137886
0.0014920756220817
-0.0093244910240173
-0.0212219357490539
-0.033889066427946
-0.0469035655260086
-0.0597796663641929
-0.0720222145318985
-0.0831809788942337
-0.092895358800888
-0.1009289026260376
-0.107204645872116
-0.1118636652827262
-0.1153872236609458
-0.1187795922160148
-0.1236111968755722
-0.1316249370574951
-0.1439749002456665
-0.1606164425611496
-0.1802661120891571
-0.2008865177631378
-0.2204102277755737
-0.2374539971351623
-0.2517323195934295
-0.2639210820198059
-0.275240421295166
-0.2872955203056335
-0.3021320700645447
-0.3220055699348449
-0.348686009645462
-0.3825805783271789
-0.4220779538154602
-0.4634385704994201
-0.5013405680656433
-0.5298799872398376
-0.5436621904373169
-0.5387001037597656
-0.5129812359809875
-0.4666692018508911
-0.4019812941551208
-0.3228275179862976
-0.2342839986085891
-0.1419622600078582
-0.0513581931591033
0.0327262878417968
0.1066180989146232
0.1680193841457367
0.2160467654466629
0.2510778605937958
0.2744573950767517
0.2881450951099396
0.2943869233131408
0.2954517006874084
0.2934346199035644
0.2901186347007751
0.2868876457214355
0.2846846580505371
0.2840138673782348
0.2849855124950409
0.287396103143692
0.2908306717872619
0.294767826795578
0.2986682057380676
0.3020375669002533
0.3044654726982116
0.3056461811065674
0.305388331413269
0.3036154508590698
0.3003574013710022
0.2957316637039184
0.2899161577224731
0.2831185460090637
0.2755475640296936
0.2673899531364441
0.2587962746620178
0.2498772740364074
0.2407062202692031
0.2313245236873626
0.221750408411026
0.211987555027008
0.2020284533500671
0.1918538361787796
0.1814310550689697
0.1707084029912948
0.1596018373966217
0.1479840725660324
0.1356899589300155
0.1225465536117553
0.108332484960556
0.0924517959356308
0.0734276250004768
0.0487516671419143
0.0153425261378288
-0.029667817056179
-0.0881777256727218
-0.1605966985225677
-0.2456496953964233
-0.3405019640922546
-0.4411391615867615
-0.5429010391235352
-0.6410576105117798
-0.7313339710235596
-0.8103157877922058
-0.8756937980651855
-0.9263364672660828
-0.9622117280960084
-0.9841971397399902
-0.9938250780105592
-0.9930011630058287
-0.9837322235107422
-0.9678977131843568
-0.9470879435539246
-0.9225164651870728
-0.895002007484436
-0.8650038242340088
-0.8326958417892456
-0.7980583310127258
-0.7609751224517822
-0.7213205099105835
-0.6790281534194946
-0.6341322660446167
-0.5867821574211121
-0.5372347831726074
-0.4858294725418091
-0.4329543113708496
-0.3790170550346374
-0.3244267702102661
-0.26958829164505
-0.2148992419242859
-0.1607415676116943
-0.1074661612510681
-0.055370807647705
-0.0046766996383666
0.044491171836853
0.0921118259429931
0.1382585763931274
0.1830730438232422
0.226730465888977
0.2693997621536255
0.3112075328826904
0.3522109985351562
0.3923845887184143
0.431620717048645
0.4697415828704834
0.5065173506736755
0.5416897535324097
0.5750052332878113
0.606250524520874
0.6352788209915161
0.662017822265625
0.6864613890647888
0.7087430357933044
0.7294927835464478
0.7503515481948853
0.774113655090332
0.8042565584182739
0.8441321849822998
0.8961738348007202
0.9613295793533324
1.0388163328170776
1.1261918544769287
1.2196859121322632
1.314704656600952
1.4064133167266846
1.490298628807068
1.5626260042190552
1.620736837387085
1.6631678342819214
1.68960702419281
1.7007250785827637
1.6979281902313232
1.6830748319625854
1.6581958532333374
1.625248670578003
1.5859363079071045
1.5416107177734375
1.4932554960250854
1.4415160417556765
1.3867464065551758
1.3290636539459229
1.2684144973754885
1.2046563625335691
1.1376415491104126
1.0672903060913086
0.9936357140541076
0.9168343544006348
0.8371483087539673
0.7549128532409668
0.6705024242401123
0.5843085050582886
0.496737003326416
0.4082084894180298
0.3191476464271545
0.2299683690071106
0.1410732865333557
0.0528690814971923
-0.0342204570770263
-0.1197626590728759
-0.203351080417633
-0.2846508026123047
-0.3634278774261474
-0.4395482540130615
-0.5129501223564148
-0.5836066007614136
-0.6514958143234253
-0.7165848016738892
-0.7788296341896057
-0.8381884098052979
-0.8946374654769897
-0.9481770992279052
-0.9988219738006592
-1.0465829372406006
-1.0914486646652222
-1.1333668231964111
-1.1722270250320437
-1.2078518867492676
-1.240006446838379
-1.2684327363967896
-1.2929013967514038
-1.31326425075531
-1.3294939994812012
-1.3417021036148071
-1.3501262664794922
-1.3550913333892822
-1.3569575548171997
-1.356071710586548
-1.3527255058288574
-1.347118258476257
-1.339332938194275
-1.3293429613113403
-1.317052721977234
-1.3023523092269895
-1.285166621208191
-1.265489101409912
-1.2434020042419434
-1.2190803289413452
-1.192778706550598
-1.1648070812225342
-1.135505199432373
-1.1052191257476809
-1.0742801427841189
-1.042988657951355
-1.011596918106079
-0.9802818298339844
-0.9491122961044312
-0.918035924434662
-0.8869107365608215
-0.8555776476860046
-0.8239355087280273
-0.7919672131538391
-0.7596789598464966
-0.7269636392593384
-0.6934596300125122
-0.658520519733429
-0.6213563680648804
-0.581257700920105
-0.5377451777458191
-0.4905900359153747
-0.4397895038127899
-0.3855950534343719
-0.3285784423351288
-0.2696674764156341
-0.2101331651210785
-0.1515249013900756
-0.0955508947372436
-0.0439359508454799
0.0017180256545543
0.0400793626904487
0.0702594742178917
0.0920095592737197
0.1058937311172485
0.1133474558591842
0.1165583580732345
0.1181961372494697
0.1210679858922958
0.1277599036693573
0.1403167992830276
0.1600240916013717
0.1873233169317245
0.2218402326107025
0.2624935507774353
0.3076695203781128
0.355444461107254
0.4038259088993072
0.4509765207767486
0.4953822195529938
0.5359384417533875
0.5719607472419739
0.6031481027603149
0.6295240521430969
0.6513664722442627
0.6691261529922485
0.6833339929580688
0.6945086717605591
0.7030876874923706
0.7093991041183472
0.7136737108230591
0.7160817980766296
0.7167723774909973
0.7158977389335632
0.7136211395263672
0.7101112008094788
0.7055287957191467
0.7000120282173157
0.6936675906181335
0.6865725517272949
0.6787809729576111
0.67032790184021
0.6612259149551392
0.6514596939086914
0.6409856081008911
0.6297408938407898
0.6176603436470032
0.6046950221061707
0.5908274054527283
0.5760783553123474
0.5605065226554871
0.5442028045654297
0.5272809267044067
0.5098662972450256
0.4920855760574341
0.4740567803382873
0.4558790624141693
0.4376238286495209
0.4193321764469147
0.4010197520256042
0.3826856017112732
0.3643213510513305
0.3459202945232391
0.3274852335453033
0.3090314865112304
0.2905827164649963
0.2721571922302246
0.2537447810173034
0.2352765649557113
0.2165993899106979
0.197477176785469
0.1776317954063415
0.1568106710910797
0.1348523199558258
0.1117275953292846
0.0875531882047653
0.0625911131501197
0.0372438579797744
0.0120353586971759
-0.0124337151646614
-0.0355454459786415
-0.0567188523709774
-0.0754562467336654
-0.0913852602243423
-0.1042875349521637
-0.1141064763069152
-0.1209380179643631
-0.1250082105398178
-0.1266443431377411
-0.1262483596801757
-0.124272882938385
-0.1211999431252479
-0.117524079978466
-0.1137291640043258
-0.1102478429675102
-0.1074152216315269
-0.1054438650608062
-0.1044369488954544
-0.1044267863035202
-0.1054079085588455
-0.1073486134409904
-0.110185332596302
-0.1138088032603263
-0.1180507391691207
-0.1226811408996582
-0.1274217367172241
-0.1319747865200042
-0.136062666773796
-0.1394715309143066
-0.1420900523662567
-0.1439340114593505
-0.1451494395732879
-0.1459906846284866
-0.1467756032943725
-0.1478268504142761
-0.1494159698486328
-0.151723712682724
-0.1548198461532592
-0.1586652398109436
-0.1631384789943695
-0.1680760979652404
-0.1733076572418213
-0.1786759346723556
-0.1840421706438064
-0.1892817914485931
-0.1942790746688842
-0.1989273726940155
-0.2031364738941192
-0.2068425416946411
-0.2100126445293426
-0.2126396000385284
-0.2147311866283416
-0.216301143169403
-0.2173633724451065
-0.2179251164197921
-0.2179791331291198
-0.2175006717443466
-0.2164523303508758
-0.2147942036390304
-0.2124980092048645
-0.2095633894205093
-0.2060300707817077
-0.2019789963960647
-0.1975225359201431
-0.192788615822792
-0.1879008114337921
-0.1829572767019271
-0.178016796708107
-0.1730976700782776
-0.1681870520114898
-0.1632550805807113
-0.1582680642604828
-0.1531988680362701
-0.148035317659378
-0.1427850276231765
-0.1374740451574325
-0.1321394890546798
-0.1268174797296524
-0.1215278059244155
-0.1162597388029098
-0.1109661906957626
-0.1055695861577987
-0.0999750196933746
-0.094085656106472
-0.0878165364265441
-0.0811029598116874
-0.0739038586616516
-0.0662059336900711
-0.0580298863351345
-0.0494333542883396
-0.0405059792101383
-0.031356856226921
-0.0220985449850559
-0.0128324627876281
-0.0036398619413375
0.005417451262474
0.0142875611782073
0.0229171104729175
0.0312429890036582
0.0391877852380275
0.0466612391173839
0.0535708032548427
0.0598391331732273
0.0654202103614807
0.0703062862157821
0.0745275691151619
0.0781543552875518
0.0813058614730835
0.0841572433710098
0.0869345217943191
0.0898934602737426
0.0932776182889938
0.0972558408975601
0.1018618568778038
0.1069657057523727
0.112286239862442
0.1174362376332283
0.1219880431890487
0.1255466341972351
0.1278156191110611
0.1286420375108719
0.1280342787504196
0.1261563599109649
0.12330262362957
0.119857832789421
0.1162498369812965
0.112898513674736
0.110164538025856
0.1083046644926071
0.1074405014514923
0.1075493693351745
0.1084825247526168
0.1100042760372161
0.1118377149105072
0.1137065589427948
0.1153679713606834
0.1166332215070724
0.117375448346138
0.1175277382135391
0.117077350616455
0.116061545908451
0.1145629957318306
0.1126980111002922
0.1105964183807373
0.1083789467811584
0.1061389371752739
0.1039331331849098
0.101779781281948
0.0996597185730934
0.0975198298692703
0.0952812060713768
0.0928515046834945
0.0901357382535934
0.0870396345853805
0.0834682956337928
0.0793287754058837
0.0745411813259124
0.0690565556287765
0.0628740563988685
0.0560511350631713
0.0487054511904716
0.0410072281956672
0.0331616327166557
0.0253858063369989
0.0178872849792242
0.0108480732887983
0.0044161025434732
-0.0012981742620468
-0.0062247067689895
-0.0103361476212739
-0.0136466361582279
-0.0162073001265525
-0.0180998016148805
-0.0194294899702072
-0.0203192960470914
-0.0209035724401474
-0.0213218200951814
-0.0217115320265293
-0.0221968963742256
-0.0228749327361583
-0.0238051954656839
-0.0250043794512748
-0.0264450963586568
-0.0280606709420681
-0.0297566931694746
-0.0314272046089172
-0.0329718813300132
-0.0343081019818782
-0.0353741981089115
-0.0361297577619552
-0.0365589335560798
-0.0366728045046329
-0.0365056544542312
-0.0361071787774562
-0.0355371534824371
-0.0348663367331028
-0.0341812260448932
-0.0335885360836982
-0.0332146547734737
-0.033195324242115
-0.0336555987596511
-0.0346841998398304
-0.0363096222281456
-0.0384883694350719
-0.0411094054579734
-0.0440094769001007
-0.0469930768013
-0.0498527660965919
-0.0523861497640609
-0.0544100999832153
-0.0557759888470172
-0.0563850030303001
-0.056196317076683
-0.0552241653203964
-0.0535280853509902
-0.0512024611234664
-0.0483682490885257
-0.0451658144593238
-0.0417457409203052
-0.03825643658638
-0.034829057753086
-0.0315588638186454
-0.0284841191023588
-0.0255706682801246
-0.022714015096426
-0.0197638720273971
-0.0165626946836709
-0.012983901426196
-0.0089583788067102
-0.0044834618456661
0.0003817193210124
0.0055237738415598
0.0107820676639676
0.0159598775207996
0.0208421424031257
0.0252189207822084
0.028910107910633
0.0317828021943569
0.033754825592041
0.034786969423294
0.0348730608820915
0.0340340360999107
0.0323173813521862
0.0298001877963542
0.0265921093523502
0.0228345412760972
0.0186951700598001
0.014362895861268
0.0100424941629171
0.0059374179691076
0.0022198352962732
-0.0009957496076822
-0.0036629401147365
-0.0057987086474895
-0.0074697453528642
-0.0087758554145693
-0.0098341172561049
-0.010764941573143
-0.0116788931190967
-0.0126634072512388
-0.0137724140658974
-0.0150237902998924
-0.0164046231657266
-0.0178766530007123
-0.019377090036869
-0.0208202227950096
-0.0221054889261722
-0.0231322795152664
-0.0238194316625595
-0.0241251438856124
-0.0240596551448106
-0.0236823596060276
-0.0230818018317222
-0.0223478600382804
-0.0215501822531223
-0.0207314286381006
-0.0199141018092632
-0.019115662202239
-0.0183683224022388
-0.017736867070198
-0.017322864383459
-0.0172515604645013
-0.0176495350897312
-0.0186211019754409
-0.0202262476086616
-0.0224606171250343
-0.0252416059374809
-0.0284090787172317
-0.0317435748875141
-0.0349947549402713
-0.0379099026322364
-0.0402561947703361
-0.0418375022709369
-0.0425093881785869
-0.0421922095119953
-0.0408785082399845
-0.0386296883225441
-0.0355623736977577
-0.0318325087428092
-0.0276217497885227
-0.0231222789734601
-0.0185189433395862
-0.0139732342213392
-0.0096132829785346
-0.0055306386202573
-0.0017794352024793
0.0016262177377939
0.0047166608273983
0.0075703486800193
0.0103108659386634
0.0130910445004701
0.0160646382719278
0.0193552561104297
0.0230359099805355
0.0271230414509773
0.0315755382180213
0.036292377859354
0.0411167070269584
0.0458533726632595
0.0502932965755462
0.0542338676750659
0.057492010295391
0.0599127560853958
0.0613757669925689
0.0618024170398712
0.0611665174365043
0.0595066845417022
0.0569357573986053
0.0536438077688217
0.049889612942934
0.0459794178605079
0.0422379747033119
0.0389748960733413
0.0364495664834976
0.0348407849669456
0.0342248305678367
0.0345655567944049
0.0357227139174938
0.0374772846698761
0.0395631678402423
0.0416967533528804
0.0436032153666019
0.0450407192111015
0.045822225511074
0.0458319820463657
0.0450328066945076
0.0434621386229991
0.0412168726325035
0.0384312570095062
0.0352561250329017
0.0318434461951255
0.0283334981650114
0.0248424969613552
0.0214518290013074
0.018202256411314
0.0150965880602598
0.0121098645031452
0.009203266352415
0.0063382983207702
0.0034861788153648
0.0006265603005886
-0.0022663827985525
-0.0052427221089601
-0.0083865374326705
-0.0118095390498638
-0.0156312175095081
-0.0199520662426948
-0.0248237177729606
-0.0302185770124197
-0.036010306328535
-0.041979394853115
-0.04784432426095
-0.0533075630664825
-0.0581040643155574
-0.0620402321219444
-0.0650146454572677
-0.0670188218355178
-0.0681210607290268
-0.0684400126338005
-0.0681175589561462
-0.0672983229160308
-0.0661166980862617
-0.064688354730606
-0.0631043612957
-0.0614278577268123
-0.0596924982964992
-0.0579014495015144
-0.0560277476906776
-0.0540188625454902
-0.0518051199615001
-0.0493105798959732
-0.0464675202965736
-0.0432337373495101
-0.0396064855158329
-0.0356218740344047
-0.0313309803605079
-0.0267625655978918
-0.0219006054103374
-0.0166962277144193
-0.0111058857291936
-0.0051346467807888
0.0011288872919976
0.0074951006099581
0.0136841731145977
0.0193656738847494
0.0242124758660793
0.027952991425991
0.030410997569561
0.0315267406404018
0.031360950320959
0.0300894435495138
0.0279903933405876
0.0254186112433671
0.0227653905749321
0.0204114336520433
0.0186810791492462
0.0178035665303468
0.0178893692791461
0.0189296081662178
0.0208189636468887
0.0233917385339736
0.0264541208744049
0.0298035629093647
0.0332411415874958
0.0365849584341049
0.0396860316395759
0.0424420163035392
0.0448008328676223
0.0467516221106052
0.0483077876269817
0.0494869537651538
0.0502933971583843
0.0507104098796844
0.0507039874792099
0.0502327680587768
0.0492622442543506
0.0477823317050933
0.0458192601799964
0.0434314496815204
0.0406902581453323
0.0376553460955619
0.0343573689460754
0.0307997204363346
0.0269769020378589
0.0228904765099287
0.0185497570782899
0.0139645561575889
0.0091413203626871
0.0040833763778209
-0.0012071821838617
-0.0067234840244054
-0.0124424323439598
-0.0183114744722843
-0.0242386423051357
-0.0300899147987365
-0.0356939770281314
-0.0408513844013214
-0.0453504920005798
-0.0489951558411121
-0.0516386665403842
-0.0532099083065986
-0.0537238158285617
-0.053277738392353
-0.0520377121865749
-0.0502160191535949
-0.048040222376585
-0.0457186847925186
-0.0434121862053871
-0.0412202030420303
-0.0391849428415298
-0.0373066291213035
-0.0355586595833301
-0.0338989868760108
-0.0322807393968105
-0.0306619442999362
-0.0290113538503646
-0.0273094847798347
-0.0255461074411869
-0.0237164497375488
-0.021818209439516
-0.0198503471910953
-0.0178145319223403
-0.0157210733741521
-0.0135997012257575
-0.0115113472566008
-0.009554885327816
-0.0078628547489643
-0.0065843015909194
-0.0058607030659914
-0.0058017540723085
-0.0064628701657056
-0.0078273117542266
-0.0097993034869432
-0.0122115146368741
-0.0148447407409548
-0.0174550153315067
-0.0198019035160541
-0.0216718949377536
-0.0228960551321506
-0.0233637355268001
-0.0230275243520736
-0.0218950882554054
-0.0200146120041608
-0.0174612812697887
-0.0143227204680442
-0.0106812808662652
-0.0065995045006275
-0.0021158810704946
0.0027507301419973
0.0079898983240127
0.0135758388787508
0.0194352585822343
0.0254271440207958
0.0313474684953689
0.0369564704596996
0.0420198962092399
0.046350248157978
0.0498345270752906
0.0524433851242065
0.0542229786515235
0.055275984108448
0.0557404085993766
0.0557714588940143
0.0555303916335105
0.055177591741085
0.0548579916357994
0.0546731352806091
0.0546481274068355
0.0547096915543079
0.0546903684735298
0.0543603561818599
0.0534739196300506
0.051816888153553
0.04924788326025
0.0457290634512901
0.0413446761667728
0.0363036021590232
0.030918575823307
0.0255618132650852
0.0206092968583107
0.0163885187357664
0.013139383867383
0.0109922215342521
0.0099616488441824
0.0099532380700111
0.0107806175947189
0.0121898269280791
0.0138881970196962
0.0155773647129535
0.0169886443763971
0.017914917320013
0.0182321146130561
0.0179059375077486
0.0169836394488811
0.0155739150941371
0.0138200297951698
0.0118710808455944
0.0098546594381332
0.0078548826277256
0.0058993138372898
0.0039545595645904
0.0019315481185913
-0.0002947002649307
-0.0028508342802524
-0.0058265998959541
-0.0092488564550876
-0.013080159202218
-0.0172384418547153
-0.0216260310262441
-0.0261566191911697
-0.030767910182476
-0.0354147925972938
-0.040053479373455
-0.0446304455399513
-0.0490835756063461
-0.0533560588955879
-0.0574128627777099
-0.0612482316792011
-0.0648831278085708
-0.0683549419045448
-0.0717012211680412
-0.0749418064951896
-0.0780617743730545
-0.0809970423579216
-0.0836290270090103
-0.0857934802770614
-0.0873032882809639
-0.0879820883274078
-0.0876998752355575
-0.0863969326019287
-0.0840888693928718
-0.080857329070568
-0.0768347531557083
-0.0721874386072158
-0.0670978799462318
-0.0617473945021629
-0.0563008785247802
-0.050893098115921
-0.0456164106726646
-0.0405154339969158
-0.0355933345854282
-0.0308270100504159
-0.0261828489601612
-0.0216252189129591
-0.0171188507229089
-0.0126321204006671
-0.0081421118229627
-0.0036381036043167
0.0008768439292907
0.0053852964192628
0.009853882715106
0.014228543266654
0.0184289291501045
0.0223476067185401
0.0258606784045696
0.0288557521998882
0.0312710180878639
0.0331217497587204
0.0344963483512401
0.0355309918522834
0.0363853052258491
0.0372285917401313
0.0382289439439773
0.0395348146557807
0.0412475205957889
0.0433950275182724
0.045925598591566
0.0487283319234848
0.0516612380743026
0.05456518009305
0.0572705157101154
0.0596143528819084
0.0614663176238536
0.0627483129501342
0.0634375065565109
0.0635486096143722
0.0631013289093971
0.0620862320065498
0.0604440942406654
0.0580707415938377
0.0548477843403816
0.050682071596384
0.0455298572778701
0.0393948778510093
0.0323178581893444
0.0243874788284301
0.01577521674335
0.006763907149434
-0.0022524483501911
-0.0107935257256031
-0.0183349214494228
-0.0243634358048439
-0.028431486338377
-0.0301986746490001
-0.0294659957289695
-0.0262191109359264
-0.0206798799335956
-0.0133314132690429
-0.0048847198486328
0.0037981383502483
0.0117885861545801
0.0181872509419918
0.0222590398043394
0.0235826596617698
0.0221350453794002
0.0182642955332994
0.0125803835690021
0.0058230366557836
-0.0012488570064306
-0.0079284887760877
-0.0136043224483728
-0.0177992414683103
-0.0202144440263509
-0.0207644365727901
-0.0195828098803758
-0.0169909391552209
-0.0134362205862998
-0.0094152875244617
-0.0054027326405048
-0.00180085003376
0.0010876264423131
0.0030737221240997
0.0040920861065387
0.0042029600590467
0.0035783518105745
0.0024721939116716
0.001179814338684
-7.2605907917022705e-06
-0.0008433293551206
-0.0011589508503675
-0.0008739940822124
7.066875696182251e-06
0.001412471756339
0.0032267775386571
0.0053134467452764
0.00752560980618
0.0096981972455978
0.0116292908787727
0.0130683351308107
0.0137251010164618
0.0133037799969315
0.0115551799535751
0.0083316527307033
0.0036296546459198
-0.0023897271603345
-0.0094053000211715
-0.016964204609394
-0.0245307311415672
-0.0315465480089187
-0.0374901480972766
-0.0419287756085395
-0.0445595197379589
-0.0452343188226223
-0.043964996933937
-0.0409090556204319
-0.0363397672772407
-0.0306054167449474
-0.0240858048200607
-0.0171550624072551
-0.010152943432331
-0.0033625550568103
0.0030039884150028
0.0088110975921154
0.0139976125210523
0.0185670368373394
0.0225732550024986
0.0261062756180763
0.0292769186198711
0.0321985930204391
0.0349707752466201
0.0376693680882453
0.0403431579470634
0.0430134683847427
0.0456765219569206
0.048309426754713
0.0508775189518928
0.0533373951911926
0.0556303337216377
0.0576625391840934
0.0592765286564827
0.0602326318621635
0.0602206289768219
0.0589029900729656
0.0559775456786155
0.0512449853122234
0.0446642488241195
0.0363813526928424
0.0267269872128963
0.0161857884377241
0.0053444989025592
-0.0051710391417145
-0.0147594464942812
-0.0228993855416774
-0.0291921179741621
-0.0333891436457634
-0.0354051366448402
-0.0353160835802555
-0.0333426669239997
-0.0298215840011835
-0.0251673180609941
-0.0198259092867374
-0.0142270326614379
-0.0087430970743298
-0.0036606020294129
0.0008331966819241
0.0046493974514305
0.0077881137840449
0.0103231649845838
0.0123786469921469
0.014099801890552
0.0156271513551473
0.0170799829065799
0.0185484960675239
0.0200914181768894
0.0217358153313398
0.0234771911054849
0.025280961766839
0.0270881950855255
0.0288248043507337
0.0304053016006946
0.0317207351326942
0.0326136872172355
0.0328607633709907
0.0321825072169303
0.0302825607359409
0.0269035995006561
0.0218827798962593
0.0151917673647403
0.0069564543664455
-0.0025415793061256
-0.012881513684988
-0.0235378164798021
-0.0339293032884597
-0.0434771962463855
-0.0516648776829242
-0.0580896846950054
-0.0624984875321388
-0.0648025274276733
-0.0650708451867103
-0.063506931066513
-0.0604146420955657
-0.0561573505401611
-0.0511139705777168
-0.0456385985016822
-0.0400312580168247
-0.0345223098993301
-0.0292681045830249
-0.0243553221225738
-0.0198107175529003
-0.0156143195927143
-0.0117166228592395
-0.0080577973276376
-0.0045836791396141
-0.0012535713613033
0.0019594281911849
0.0050692893564701
0.0080769024789333
0.0109716355800628
0.0137328803539276
0.0163242928683757
0.018675684928894
0.0206575654447078
0.022063959389925
0.0226207599043846
0.0220244191586971
0.0199996493756771
0.0163599997758865
0.0110578350722789
0.0042128264904022
-0.0038860328495502
-0.0128032565116882
-0.022000253200531
-0.0308935809880495
-0.0389172434806823
-0.0455779582262039
-0.0504994541406631
-0.0534542798995971
-0.0543789118528366
-0.0533683337271213
-0.0506520420312881
-0.0465594083070755
-0.0414801351726055
-0.0358226522803306
-0.0299744103103876
-0.0242676399648189
-0.0189538765698671
-0.0141909997910261
-0.0100442301481962
-0.006498746573925
-0.0034797489643096
-0.0008754227310419
0.0014407094568014
0.0035905241966247
0.0056770388036966
0.00777586735785
0.0099319610744714
0.0121603719890117
0.0144500937312841
0.0167707502841949
0.0190799925476312
0.0213258452713489
0.0234358385205268
0.0252905804663896
0.026696478947997
0.027381632477045
0.0270262360572814
0.0253197252750396
0.022027650848031
0.0170501563698053
0.0104584023356437
0.0025025606155395
-0.0064084902405738
-0.0157502591609954
-0.0249402895569801
-0.0334011502563953
-0.0406181812286376
-0.0461843684315681
-0.0498308539390563
-0.0514431409537792
-0.0510617308318614
-0.0488668605685234
-0.0451498329639434
-0.0402750968933105
-0.0346380658447742
-0.0286245942115783
-0.0225769430398941
-0.0167694091796875
-0.0113951601088047
-0.0065627261064946
-0.0023001888766884
0.0014323103241622
0.0047231540083885
0.0076880822889506
0.0104499571025371
0.0131207443773746
0.0157886128872632
0.0185098573565483
0.0213049612939357
0.0241612903773784
0.0270414631813764
0.0298920087516307
0.0326473414897918
0.0352229326963424
0.037495668977499
0.0392834655940532
0.0403424426913261
0.0403909087181091
0.0391560904681682
0.0364306308329105
0.0321245491504669
0.0262999832630157
0.0191798117011785
0.0111297704279422
0.0026197931729257
-0.0058269863948225
-0.0136883789673447
-0.0204933956265449
-0.0258640497922897
-0.0295457635074853
-0.0314230136573314
-0.0315184481441974
-0.0299788732081651
-0.0270512085407972
-0.0230498854070901
-0.0183210298418998
-0.0132094174623489
-0.0080304779112339
-0.0030479202978312
0.0015416606329381
0.0056159193627536
0.0091259479522705
0.012088805437088
0.0145742446184158
0.0166864525526762
0.0185434874147176
0.0202588513493537
0.0219281744211912
0.0236211344599723
0.0253779385238885
0.0272101089358329
0.0291042998433113
0.0310271680355072
0.0329295583069324
0.0347447656095027
0.0363746471703052
0.0376696623861789
0.0384204052388668
0.0383724905550479
0.0372636094689369
0.0348727814853191
0.0310690961778163
0.0258484426885843
0.0193500984460115
0.0118500804528594
0.0037345569580793
-0.0045403307303786
-0.0124962078407406
-0.0196806974709033
-0.0257086418569087
-0.0302934702485799
-0.0332683250308036
-0.0345945060253143
-0.0343562103807926
-0.0327436551451683
-0.0300271846354007
-0.0265247765928506
-0.0225666668266057
-0.0184627398848533
-0.0144764361903071
-0.0108059719204902
-0.0075743896886706
-0.0048299930058419
-0.0025555463507771
-0.000682913698256
0.0008895748760551
0.002279280917719
0.0036025713197886
0.0049601877108216
0.0064255530014634
0.0080376360565423
0.0098002478480339
0.0116874389350414
0.0136529263108968
0.015640489757061
0.0175907183438539
0.0194401163607835
0.0211096927523612
0.0224855039268732
0.0234042834490537
0.0236581414937973
0.0230207983404397
0.0212881248444318
0.0183224845677614
0.0140897445380687
0.0086800251156091
0.0023091686889529
-0.0046971309930086
-0.0119342915713787
-0.0189610589295625
-0.0253457184880971
-0.0307093486189842
-0.0347613543272018
-0.0373232588171958
-0.0383381731808185
-0.0378674566745758
-0.0360781326889991
-0.0332214720547199
-0.0296020451933145
-0.0255417004227638
-0.0213458109647035
-0.0172752421349287
-0.0135252634063363
-0.0102146752178668
-0.0073863654397428
-0.0050161555409431
-0.0030273394659161
-0.0013102642260491
0.0002558151027187
0.0017830680590122
0.0033602695912122
0.0050439639016985
0.0068563371896743
0.0087894247844815
0.0108136134222149
0.0128866489976644
0.0149594135582447
0.0169759076088666
0.0188645310699939
0.0205215793102979
0.0217975098639726
0.0224990714341402
0.0224115904420614
0.0213362332433462
0.0191327761858701
