bvp
-0.0064012492075562
-0.004339737817645
-0.0023189755156636
-0.0003614891320466
0.0015015136450529
0.003220671787858
0.0047208471223711
0.0059007350355386
0.0066422643139958
0.0068285763263702
0.0063669960945844
0.005211410112679
0.0033779889345169
0.0009509036317467
-0.0019227978773415
-0.0050471895374357
-0.0081962356343865
-0.0111354012042284
-0.0136452186852693
-0.0155431376770138
-0.0166994482278823
-0.0170458164066076
-0.0165770519524812
-0.0153464414179325
-0.0134554840624332
-0.0110402507707476
-0.0082554407417774
-0.0052567310631275
-0.0021836473606526
0.0008537736721336
0.0037812073715031
0.0065582306124269
0.0091713620349764
0.011625638231635
0.0139365401118993
0.0161233376711606
0.0182040520012378
0.0201901271939277
0.022080261260271
0.0238567218184471
0.0254876464605331
0.0269353408366441
0.0281677469611167
0.0291694030165672
0.0299490168690681
0.0305420942604541
0.0310069303959608
0.0314120985567569
0.0318163409829139
0.0322470515966415
0.0326867848634719
0.0330719128251075
0.0333004482090473
0.0332472510635852
0.032786838710308
0.031821459531784
0.0303080007433891
0.0282752849161624
0.0258266665041446
0.0231302678585052
0.0204018857330083
0.0178813990205526
0.0158022101968526
0.0143590476363897
0.0136825777590274
0.0138237858191132
0.0147462822496891
0.0163292754441499
0.0183881036937236
0.0207119286060333
0.0231065563857555
0.0254289787262678
0.0276090167462825
0.0296545773744583
0.0316345244646072
0.0336471125483512
0.0357948243618011
0.038173958659172
0.0408682003617286
0.0439329892396926
0.0473628714680671
0.0510470755398273
0.0547372549772262
0.0580538995563983
0.0605518147349357
0.0618343688547611
0.0616551525890827
0.0599542409181594
0.0568358153104782
0.05252006649971
0.047294694930315
0.0414818115532398
0.035422183573246
0.0294645950198173
0.0239420011639595
0.0191171094775199
0.0151079446077346
0.0118415355682373
0.0090627297759056
0.0063785910606384
0.0033262595534324
-0.000531643629074
-0.0055084154009819
-0.0117309913039207
-0.019129641354084
-0.0274728834629058
-0.0364283807575702
-0.0456269904971122
-0.0547165796160697
-0.0633992999792099
-0.0714496821165084
-0.0787173137068748
-0.085119217634201
-0.0906249806284904
-0.0952406302094459
-0.0989967063069343
-0.1019399687647819
-0.1041260063648223
-0.1056124120950698
-0.106453888118267
-0.1067008599638938
-0.1064009889960289
-0.1056014075875282
-0.1043493822216987
-0.1026892662048339
-0.1006576418876648
-0.098281979560852
-0.095583438873291
-0.0925795435905456
-0.0892849862575531
-0.085715927183628
-0.0819029733538627
-0.077909454703331
-0.073844313621521
-0.0698607787489891
-0.0661386102437973
-0.0628540217876434
-0.0601457245647907
-0.0580869764089584
-0.0566702559590339
-0.0558038987219333
-0.0553198903799057
-0.0549951866269111
-0.0545828081667423
-0.0538437776267528
-0.0525735802948474
-0.0506203025579452
-0.0478948131203651
-0.044374793767929
-0.0401037000119686
-0.0351842902600765
-0.0297655649483203
-0.0240242909640073
-0.0181447640061378
-0.0122992787510156
-0.0066306367516517
-0.0012403167784214
0.0038149394094944
0.0085190497338771
0.0128884799778461
0.0169644430279731
0.0208054259419441
0.0244757682085037
0.0280319694429636
0.031514935195446
0.0349498577415943
0.0383470840752124
0.0417015962302684
0.0449942871928215
0.0481958650052547
0.0512725934386253
0.054192341864109
0.0569258444011211
0.059440080076456
0.0616864562034606
0.0635907873511314
0.0650511234998703
0.0659464448690414
0.0661563575267791
0.0655870735645294
0.0641965940594673
0.0620130710303783
0.0591405108571052
0.0557500272989273
0.0520610138773918
0.0483160763978958
0.044753298163414
0.0415822714567184
0.0389677211642265
0.0370190292596817
0.035783614963293
0.0352454781532287
0.0353309884667396
0.035922322422266
0.0368752777576446
0.0380368381738662
0.0392605997622013
0.040420439094305
0.041421890258789
0.0422085598111152
0.0427611991763114
0.0430907644331455
0.0432288125157356
0.0432177484035491
0.0431023016571998
0.0429235436022281
0.0427161902189254
0.0425077453255653
0.0423182100057601
0.0421604588627815
0.042040929198265
0.0419591665267944
0.0419070310890674
0.0418692603707313
0.0418216697871685
0.0417230688035488
0.0415047407150268
0.0410643555223941
0.040269523859024
0.0389730334281921
0.0370372980833053
0.0343612916767597
0.0309034995734691
0.0266989413648843
0.0218665897846221
0.0166009441018104
0.0111491419374942
0.0057811811566352
0.0007591359317302
-0.0036893915385007
-0.0073900073766708
-0.0102330520749092
-0.0121789909899234
-0.0132565088570117
-0.0135527253150939
-0.0131983924657106
-0.0123526528477668
-0.0111887771636247
-0.0098792146891355
-0.0085794925689697
-0.007413269020617
-0.0064618457108736
-0.0057607786729931
-0.0053038336336612
-0.0050522917881608
-0.004947024397552
-0.0049200868234038
-0.0049035949632525
-0.004835539497435
-0.0046636527404189
-0.0043494259007275
-0.0038729268126189
-0.0032349685207009
-0.0024536973796784
-0.0015604471554979
-0.0006032128003425
0.0003411825164221
0.0011545255547389
0.0016750099603086
0.0017112952191382
0.0010712384246289
-0.0004021213389933
-0.0027967290952801
-0.0061078979633748
-0.0102296900004148
-0.0149620668962597
-0.0200319252908229
-0.0251251570880413
-0.0299228206276893
-0.0341316573321819
-0.0375071056187152
-0.0398727767169475
-0.0411338806152343
-0.041280910372734
-0.0403853096067905
-0.0385874062776565
-0.0360764935612678
-0.033067550510168
-0.0297787617892026
-0.0264115110039711
-0.0231346189975738
-0.0200738087296485
-0.0173055995255708
-0.0148558942601084
-0.0127054303884506
-0.010802187025547
-0.0090767722576856
-0.0074558574706315
-0.0058715874329209
-0.0042672934941947
-0.002600991167128
-0.000848532654345
0.0009940424934029
0.0029107774607837
0.004868266172707
0.0068195820786058
0.0087093152105808
0.0104751717299222
0.0120396837592124
0.0132947601377964
0.0140924528241157
0.0142525602132081
0.0135868964716792
0.0119337840005755
0.0091951200738549
0.0053679179400205
0.0005616154521703
-0.0050047170370817
-0.0110245496034622
-0.0171393156051635
-0.0229783598333597
-0.0281959064304828
-0.0325020141899585
-0.0356854870915412
-0.0376262851059436
-0.038298450410366
-0.0377655029296875
-0.0361675769090652
-0.0337011702358722
-0.0305951088666915
-0.0270858276635408
-0.0233944952487945
-0.0197094939649105
-0.0161755159497261
-0.0128887621685862
-0.0098978988826274
-0.0072094504721462
-0.0047955922782421
-0.0026026121340692
-0.0005606589838862
0.001403896138072
0.0033560167066752
0.0053437054157257
0.0073945755138993
0.0095159262418746
0.0116978054866194
0.0139176500961184
0.0161447003483772
0.0183429382741451
0.0204684250056743
0.0224578510969877
0.0242130048573017
0.025590892881155
0.0264074020087718
0.0264574699103832
0.0255494136363267
0.0235451962798833
0.0203954726457595
0.0161616690456867
0.0110212061554193
0.0052540227770805
-0.0007866150699555
-0.0067124613560736
-0.0121405664831399
-0.0167302433401346
-0.0202152281999588
-0.0224274843931198
-0.0233076959848403
-0.0229021050035953
-0.021347027271986
-0.0188449546694755
-0.0156386923044919
-0.0119860703125596
-0.0081360964104533
-0.0043094512075185
-0.0006835497915744
0.0026192544028162
0.0055369101464748
0.0080619137734174
0.0102279465645551
0.0120960753411054
0.0137429777532815
0.0152504276484251
0.016695337370038
0.0181411951780319
0.0196322593837976
0.0211902968585491
0.0228142775595188
0.0244834180921316
0.026161540299654
0.0278020091354846
0.0293526016175746
0.030754629522562
0.0319318771362304
0.0327752716839313
0.0331356786191463
0.0328327007591724
0.0316796638071537
0.0295202154666185
0.0262664761394262
0.021927360445261
0.0166215784847736
0.0105743091553449
0.0040985355153679
-0.0024372902698814
-0.0086503531783819
-0.0141838788986206
-0.0187410842627286
-0.0221114549785852
-0.0241864249110221
-0.0249623395502567
-0.0245323311537504
-0.0230693817138671
-0.0208023153245449
-0.0179880838841199
-0.0148853054270148
-0.0117320148274302
-0.0087281111627817
-0.0060227424837648
-0.0037068962119519
-0.0018123640911653
-0.0003189700655639
0.0008318272884935
0.0017223611939698
0.0024458009283989
0.0030946559272706
0.00375143205747
0.0044813877902925
0.005327193532139
0.0063067832961678
0.0074135633185505
0.0086179822683334
0.0098709836602211
0.0111054591834545
0.0122308116406202
0.0131238149479031
0.0136256106197834
0.0135525735095143
0.0127218384295701
0.0109862340614199
0.0082695968449115
0.004593051970005
8.542276918888092e-05
-0.0050241313874721
-0.0104286726564168
-0.0157767515629529
-0.0207105912268161
-0.0249038524925708
-0.0280950181186199
-0.0301118083298206
-0.0308836847543716
-0.0304425694048404
-0.028912641108036
-0.026490818709135
-0.0234205238521099
-0.019962590187788
-0.0163682401180267
-0.0128569575026631
-0.0095994845032691
-0.0067072371020913
-0.004230298101902
-0.0021637519821524
-0.0004599052481353
0.000956839416176
0.0021753041073679
0.003284272737801
0.0043616783805191
0.0054680444300174
0.006643486674875
0.0079061081632971
0.0092534534633159
0.0106683373451232
0.0121246967464685
0.0135906562209129
0.0150299808010458
0.0163995083421468
0.0176383294165134
0.0186522081494331
0.0193046443164348
0.0194236114621162
0.018824603408575
0.0173440873622894
0.0148746343329548
0.0113947987556457
0.0069877365604043
0.0018414892256259
-0.0037702731788158
-0.0095193069428205
-0.0150573160499334
-0.0200502648949623
-0.0242104642093181
-0.0273236744105815
-0.0292676426470279
-0.0300190337002277
-0.0296476446092128
-0.0282993428409099
-0.0261723902076482
-0.0234927684068679
-0.0204912889748811
-0.0173829328268766
-0.0143497046083211
-0.0115288710221648
-0.0090068094432353
-0.0068177748471498
-0.004947992041707
-0.0033460911363363
-0.0019382331520318
-0.0006439376156777
0.000611035618931
0.0018870492931455
0.0032267824281007
0.0046525890938937
0.0061664138920605
0.0077541172504425
0.0093909716233611
0.0110449260100722
0.0126794930547475
0.0142568470910191
0.0157363284379243
0.0170640051364898
0.0181562937796115
0.0188892222940921
0.0191036835312843
0.0186269059777259
0.0173040181398391
0.0150318294763565
0.0117866080254316
0.0076400581747293
0.0027608950622379
-0.0025983001105487
-0.0081270467489957
-0.0134907681494951
-0.0183659754693508
-0.0224717129021883
-0.0255939662456512
-0.0276010632514953
-0.0284493789076805
-0.0281801745295524
-0.0269089806824922
-0.0248084925115108
-0.0220871437340974
-0.0189667399972677
-0.0156619064509868
-0.0123630808666348
-0.0092233717441558
-0.0063499342650175
-0.0038015525788068
-0.0015912894159555
0.0003083511255681
0.0019563913810998
0.0034295781515538
0.0048079453408718
0.0061641214415431
0.0075566535815596
0.0090257516130805
0.0105915898457169
0.0122557505965232
0.0140040256083011
0.0158091615885496
0.0176352281123399
0.0194432586431503
0.0211934056133031
0.022839780896902
0.0243178345263004
0.0255287755280733
0.0263311844319105
0.0265499893575906
0.0260029546916484
0.0245349872857332
0.0220510698854923
0.0185423120856285
0.0140995867550373
0.0089117418974637
0.0032496419735252
-0.0025616069324314
-0.008178113028407
-0.0132736461237072
-0.0175707638263702
-0.0208630338311195
-0.0230283513665199
-0.0240348000079393
-0.0239385124295949
-0.0228725634515285
-0.0210287049412727
-0.0186334699392318
-0.015920927748084
-0.0131077039986848
-0.010374192148447
-0.0078524854034185
-0.0056204977445304
-0.0037023955956101
-0.0020760432817041
-0.0006858776323497
0.0005428157746791
0.0016908175311982
0.0028323540464043
0.0040234928019344
0.0052963811904191
0.0066609955392777
0.0081093963235616
0.0096190199255943
0.011156702414155
0.012684766203165
0.0141676533967256
0.0155766997486352
0.0168914198875427
0.0180956274271011
0.0191658977419137
0.0200527887791395
0.0206631030887365
0.0208569467067718
0.0204666946083307
0.0193297937512397
0.0173223670572042
0.0143877705559134
0.0105576608330011
0.0059605734422802
0.0008146801264956
-0.0045933215878903
-0.0099386926740407
-0.0148941790685057
-0.0191655419766902
-0.0225210487842559
-0.0248107872903347
-0.0259756408631801
-0.0260463971644639
-0.0251319576054811
-0.0233987942337989
-0.0210482086986303
-0.0182957965880632
-0.0153521699830889
-0.0124045573174953
-0.0096032712608575
-0.0070552923716604
-0.0048222122713923
-0.0029201759025454
-0.0013229725882411
2.881232649087906e-05
0.0012129573151469
0.0023104408755898
0.0033950491342693
0.0045277155004441
0.0057522719725966
0.0070921424776315
0.008549659512937
0.0101073216646909
0.0117308003827929
0.013374681584537
0.0149877769872546
0.0165125112980604
0.0178763400763273
0.0189790502190589
0.0196863859891891
0.019839234650135
0.0192774590104818
0.0178715866059064
0.0155545445159077
0.012344823218882
0.0083554666489362
0.0037878050934523
-0.001088042743504
-0.005962785333395
-0.0105230836197733
-0.0144845582544803
-0.017617454752326
-0.0197642352432012
-0.020848948508501
-0.0208793003112077
-0.0199419930577278
-0.0181911662220954
-0.0158300399780273
-0.0130864307284355
-0.010187336243689
-0.0073374840430915
-0.0047009014524519
-0.0023870421573519
-0.0004462534561753
0.0011252448894083
0.0023746606893837
0.0033789379522204
0.0042297570034861
0.0050198268145322
0.0058318735100328
0.0067292442545294
0.0077488543465733
0.0088999439030885
0.0101688038557767
0.0115257138386368
0.0129314931109547
0.0143427290022373
0.0157157853245735
0.0170098673552274
0.0181855987757444
0.0191939901560544
0.0199584737420082
0.0203619226813316
0.0202494356781244
0.0194482393562793
0.0177987068891525
0.0151885282248258
0.0115825720131397
0.007042468059808
0.0017325594089925
-0.0040895706042647
-0.0100980196148157
-0.0159346498548984
-0.0212484560906887
-0.0257311798632144
-0.0291463267058134
-0.0313498452305793
-0.0322990790009498
-0.0320490524172782
-0.0307390876114368
-0.0285723842680454
-0.0257903710007667
-0.0226450208574533
-0.0193728804588317
-0.0161731410771608
-0.0131918909028172
-0.0105150053277611
-0.0081703504547476
-0.0061372239142656
-0.0043596844188869
-0.0027611376717686
-0.0012592813000082
0.000220498535782
0.0017357573378831
0.0033213468268513
0.0049877492710947
0.006724958308041
0.0085101313889026
0.0103152180090546
0.012112227268517
0.0138750122860074
0.0155787197872996
0.0171994715929031
0.0187119618058204
0.0200781933963298
0.0212272275239229
0.0220381245017051
0.0223398432135581
0.0219315979629755
0.0206191837787628
0.0182581562548875
0.0147914765402674
0.0102730151265859
0.0048731244169175
-0.001135179423727
-0.0074057457968592
-0.013557905331254
-0.0192187745124101
-0.0240632127970457
-0.0278436969965696
-0.0304059013724327
-0.0316920578479766
-0.0317353755235672
-0.0306477956473827
-0.0286032240837812
-0.0258173681795597
-0.0225259698927402
-0.0189642161130905
-0.0153490770608186
-0.011863512918353
-0.0086424555629491
-0.0057653579860925
-0.0032584471628069
-0.0011025704443454
0.0007580127567052
0.0024058073759078
0.0039371652528643
0.0054474421776831
0.007018172647804
0.0087078278884291
0.0105460230261087
0.0125321969389915
0.0146395713090896
0.0168221034109592
0.0190211962908506
0.0211736168712377
0.023221593350172
0.0251172631978988
0.0268129743635654
0.028240542858839
0.0292916670441627
0.0298110544681549
0.0296083875000476
0.0284886695444583
0.0262935254722833
0.0229415278881788
0.0184566956013441
0.0129798799753189
0.0067624514922499
0.0001436786260455
-0.0064851641654968
-0.0127236796543002
-0.0182036962360143
-0.0226231887936592
-0.0257705524563789
-0.0275378711521625
-0.027923809364438
-0.0270286202430725
-0.0250406339764595
-0.0222118310630321
-0.0188257005065679
-0.0151643846184015
-0.0114808194339275
-0.0079795736819505
-0.0048054885119199
-0.0020377784967422
0.0003081825561821
0.0022696335799992
0.0039194719865918
0.0053489794954657
0.0066527086310088
0.0079164067283272
0.009209013544023
0.0105779431760311
0.012047404423356
0.0136204166337847
0.0152824334800243
0.0170046929270029
0.0187477841973304
0.020466050133109
0.0221128575503826
0.0236453190445899
0.0250242445617914
0.026204315945506
0.0271144695580005
0.0276375748217105
0.0276051461696624
0.0268172863870859
0.0250808969140052
0.0222518742084503
0.0182732604444026
0.0132026942446827
0.0072222892194986
0.0006277300417423
-0.0062032113783061
-0.0128568280488252
-0.0189326182007789
-0.0240846090018749
-0.028051234781742
-0.0306745246052742
-0.0319079384207725
-0.0318118631839752
-0.0305385384708642
-0.028309877961874
-0.0253905560821294
-0.0220592468976974
-0.0185815617442131
-0.0151871563866734
-0.0120527697727084
-0.0092926928773522
-0.0069580748677253
-0.0050440928898751
-0.003501582192257
-0.0022505884990096
-0.0011933383066207
-0.0002257868181914
0.0007499100174754
0.001813116017729
0.0030169144738465
0.0043850261718034
0.0059127192944288
0.0075723128393292
0.0093199480324983
0.011100236326456
0.0128490831702947
0.0144907617941498
0.0159256495535373
0.017017288133502
0.0175923258066177
0.0174587294459342
0.0164377093315124
0.014400259591639
0.0112995412200689
0.0071919141337275
0.002242861315608
-0.0032821255736052
-0.0090415524318814
-0.0146555881947278
-0.01974992826581
-0.0239956136792898
-0.0271398592740297
-0.02902671135962
-0.0296063087880611
-0.0289326477795839
-0.0271509364247322
-0.0244768001139163
-0.0211697220802307
-0.0175036303699016
-0.0137394191697239
-0.010103115811944
-0.0067699225619435
-0.003853817936033
-0.0014042272232472
0.0005890438333153
0.0021844068542122
0.0034737500827759
0.004566385410726
0.0055733053013682
0.0065937736071646
0.0077043771743774
0.008950300514698
0.0103423353284597
0.0118615413084626
0.0134671991690993
0.0151047045364975
0.0167146436870098
0.0182430371642112
0.0196480862796306
0.020898014307022
0.0219587385654449
0.0227740500122308
0.0232456196099519
0.0232252813875675
0.022528301924467
0.0209650881588459
0.0183819979429245
0.014700767584145
0.0099473698064684
0.0042645335197448
-0.0020943135023117
-0.0087888929992914
-0.0154287777841091
-0.0216157883405685
-0.0269859731197357
-0.0312454383820295
-0.0341956913471221
-0.0357474386692047
-0.0359229072928428
-0.0348463729023933
-0.0327227972447872
-0.0298080146312713
-0.0263777468353509
-0.0227006282657384
-0.0190157759934663
-0.0155148617923259
-0.012330612167716
-0.009532980620861
-0.0071320147253572
-0.0050867996178567
-0.0033206644002348
-0.0017399808857589
-0.0002510868362151
0.001227967091836
0.0027601746842265
0.0043863859027624
0.0061259311623871
0.0079777985811233
0.0099210329353809
0.0119177987799048
0.0139203993603587
0.0158798489719629
0.0177526511251926
0.0195001941174268
0.0210769064724445
0.0224102735519409
0.0233821999281644
0.0238258335739374
0.0235455986112356
0.0223532952368259
0.020108725875616
0.0167563892900943
0.0123504176735877
0.0070613538846373
0.0011625452898442
-0.0049996399320662
-0.0110440291464328
-0.0165962688624858
-0.0213290080428123
-0.0249927565455436
-0.0274327043443918
-0.0285928528755903
-0.0285102929919958
-0.0273028910160064
-0.0251533202826976
-0.0222890824079513
-0.0189589671790599
-0.0154092824086546
-0.0118623571470379
-0.0084992107003927
-0.0054486119188368
-0.0027830670587718
-0.0005204337649047
0.0013700393028557
0.0029571624472737
0.0043335850350558
0.0055999932810664
0.0068498277105391
0.0081576751545071
0.0095730246976017
0.0111182862892746
0.0127901304513216
0.014563163742423
0.0163949914276599
0.0182327944785356
0.0200203824788332
0.0217040367424488
0.0232356321066617
0.0245685130357742
0.0256426986306905
0.0263666845858097
0.0266094710677862
0.0262098591774702
0.0250018406659364
0.0228493213653564
0.0196806136518716
0.0155156645923852
0.0104805324226617
0.004804098047316
-0.001202608924359
-0.0071798474527895
-0.01276052929461
-0.0176121555268764
-0.0214699450880289
-0.0241572950035333
-0.0255955215543508
-0.0258043929934501
-0.0248933024704456
-0.0230443086475133
-0.020489864051342
-0.0174875408411026
-0.0142936175689101
-0.0111381709575653
-0.0082048270851373
-0.0056176716461777
-0.003436186350882
-0.0016580533701926
-0.0002303011715412
0.0009326883591711
0.0019301114371046
0.0028596825432032
0.0038069733418524
0.0048372065648436
0.0059888274408876
0.0072714840061962
0.0086708646267652
0.0101568708196282
0.0116899767890572
0.0132266888394951
0.0147243030369281
0.0161377806216478
0.0174057371914386
0.0184344798326492
0.0190915074199438
0.0192133206874132
0.0186268370598554
0.0171807408332824
0.0147805539891123
0.0114194452762603
0.0071962461806833
0.0023144604638218
-0.0029374551959335
-0.0082191489636898
-0.0131785469129681
-0.017492689192295
-0.0209017619490623
-0.0232310388237237
-0.0244012642651796
-0.0244299322366714
-0.023422872647643
-0.0215560905635356
-0.0190516784787178
-0.0161518696695566
-0.0130927357822656
-0.0100802648812532
-0.0072735976427793
-0.0047770338132977
-0.0026394876185804
-0.0008605882176198
0.0005989867495372
0.0018059583380818
0.0028416807763278
0.0037892195396125
0.0047232815995812
0.0057032662443816
0.006768534425646
0.0079367998987436
0.0092059038579463
0.0105575378984212
0.0119620840996503
0.0133833829313516
0.0147821893915534
0.0161182843148708
0.0173480585217475
0.0184127874672412
0.0192214809358119
0.0196412075310945
0.0195042602717876
0.0186316445469856
0.0168668553233146
0.0141117693856358
0.0103555340319871
0.0056895595043897
0.0003063231706619
-0.0055166552774608
-0.0114450948312878
-0.0171250011771917
-0.0222226195037364
-0.0264588296413421
-0.0296319834887981
-0.0316288173198699
-0.0324257127940654
-0.0320832058787345
-0.0307347252964973
-0.0285689309239387
-0.0258073266595602
-0.0226805880665779
-0.0194074101746082
-0.0161787904798984
-0.0131467301398515
-0.0104148890823125
-0.0080327549949288
-0.0059974491596221
-0.004262841772288
-0.0027518272399902
-0.001370562473312
-2.43049580603838e-05
0.0013681433629244
0.0028637400828301
0.004489928483963
0.0062459958717226
0.008109719492495
0.010045095346868
0.0120067922398447
0.0139434058219194
0.0158036109060049
0.0175406411290168
0.0191075727343559
0.0204425975680351
0.0214518345892429
0.0220017693936824
0.0219291187822818
0.021066416054964
0.0192754846066236
0.0164806526154279
0.0126952258870005
0.0080351829528808
0.0027165478095412
-0.0029631769284605
-0.0086568361148238
-0.0140068037435412
-0.0186834800988435
-0.0224175509065389
-0.0250227134674787
-0.0264070685952901
-0.0265741478651762
-0.0256153680384159
-0.0236951168626546
-0.0210296213626861
-0.0178615022450685
-0.0144338048994541
-0.0109677389264106
-0.007646070793271
-0.0046016736887395
-0.001911349594593
0.0004032161086797
0.0023674783296883
0.0040417215786874
0.0055072139948606
0.006852937862277
0.0081627005711197
0.0095031904056668
0.0109176374971866
0.0124257253482937
0.0140256658196449
0.0156981498003005
0.0174122583121061
0.0191309191286563
0.0208151955157518
0.0224271975457668
0.0239299219101667
0.0252809785306453
0.0264186672866344
0.0272464901208877
0.0276267547160387
0.0273896306753158
0.0263582095503807
0.0243847444653511
0.0213882569223642
0.01738260127604
0.0124876787886023
0.0069230538792908
0.0009866337059065
-0.0049779643304646
-0.0106193916872143
-0.0156155582517385
-0.019704520702362
-0.0227056574076414
-0.0245298836380243
-0.0251787975430488
-0.024735365062952
-0.0233500897884368
-0.0212230253964662
-0.0185815058648586
-0.0156567655503749
-0.0126630589365959
-0.0097809266299009
-0.0071453056298196
-0.0048397104255855
-0.0028963729273527
-0.0013002560008317
3.4782569855451584e-06
0.001097293687053
0.002075474942103
0.0030286409892141
0.0040326244197785
0.0051422235555946
0.0063881473615765
0.0077769914641976
0.0092933783307671
0.0109027735888957
0.0125566637143492
0.0142002310603857
0.01577571593225
0.017215296626091
0.0184272862970829
0.0192861929535865
0.0196356829255819
0.0193072743713855
0.0181501470506191
0.0160630960017442
0.013020833954215
0.0090906750410795
0.0044367425143718
-0.0006910213269293
-0.0059819035232067
-0.0110987294465303
-0.0157154202461242
-0.0195502173155546
-0.0223900601267814
-0.0241067931056022
-0.0246653575450181
-0.0241213794797658
-0.0226075761020183
-0.0203140340745449
-0.0174669548869133
-0.0143064372241497
-0.0110640851780772
-0.0079421158879995
-0.0050965305417776
-0.0026272111572325
-0.0005750790005549
0.0010736419353634
0.0023761414922773
0.0034187431447207
0.0043026925995945
0.0051287394016981
0.0059820637106895
0.0069222189486026
0.0079794209450483
0.0091559942811727
0.0104310726746916
0.0117670968174934
0.0131179746240377
0.0144370310008525
0.0156819466501474
0.0168166067451238
0.0178097374737262
0.0186264831572771
0.0192110687494277
0.0194691028445959
0.0192632731050252
0.0184285193681716
0.0168027207255363
0.0142634119838476
0.0107611007988452
0.0063420683145523
0.0011555459350347
-0.0045560002326965
-0.0104812523350119
-0.0162749346345663
-0.0215969774872064
-0.0261488314718008
-0.0297008156776428
-0.0321082100272178
-0.0333178490400314
-0.0333656631410121
-0.0323645062744617
-0.0304849278181791
-0.0279335007071495
-0.0249318480491638
-0.0216968450695276
-0.0184227935969829
-0.0152683202177286
-0.0123492777347564
-0.0097365844994783
-0.0074570020660758
-0.0054962118156254
-0.0038066650740802
-0.0023197652772068
-0.0009579721372574
0.0003549579996615
0.0016853716224431
0.0030826102010905
0.0045737586915493
0.0061623891815543
0.0078322710469365
0.0095534361898899
0.0112869581207633
0.0129882525652647
0.0146114202216267
0.0161130726337432
0.0174497161060571
0.0185662433505058
0.0193815249949693
0.0197814479470253
0.0196266025304794
0.0187742337584495
0.0171072650700807
0.0145624810829758
0.01115233451128
0.0069760549813508
0.00221773609519
-0.0028682686388492
-0.0079833250492811
-0.0128178102895617
-0.0170836113393306
-0.0205397680401802
-0.0230113621801137
-0.0244025345891714
-0.0247022323310375
-0.0239810403436422
-0.0223784260451793
-0.0200823675841093
-0.0173062123358249
-0.0142678190022706
-0.0111720608547329
-0.0081947110593318
-0.005468470044434
-0.0030745123513042
-0.0010413717245683
0.0006487725768238
0.0020474588964134
0.003225099761039
0.004259125329554
0.0052258223295211
0.0061927358619868
0.0072112027555704
0.0083112781867384
0.0094995032995939
0.0107608139514923
0.0120657701045274
0.0133788269013166
0.0146633833646774
0.0158839393407106
0.01700503192842
0.0179840438067913
0.018758337944746
0.0192347262054681
0.0192908160388469
0.0187900569289922
0.0176053512841463
0.0156456138938665
0.0128807760775089
0.0093603339046239
0.0052206218242645
0.0006769732572138
-0.0039996183477342
-0.0085149109363555
-0.012583871372044
-0.0159593299031257
-0.0184563975781202
-0.0199695397168397
-0.0204783026129007
-0.0200422145426273
-0.0187879484146833
-0.016890525817871
-0.0145516265183687
-0.011978656053543
-0.0093647893518209
-0.0068706022575497
-0.0046120295301079
-0.0026573815848678
-0.0010302553419023
0.0002846622955985
0.0013330688234418
0.0021802401170134
0.002899573650211
0.0035625472664833
0.0042311972938477
0.0049528987146914
0.0057571828365325
0.006654467433691
0.007636419031769
0.0086790677160024
0.0097498632967472
0.0108150439336895
0.0118414657190442
0.012790797278285
0.0136069180443882
0.0142022557556629
0.0144538981840014
0.014215413480997
0.0133421514183282
0.0117232408374547
0.0093099270015954
0.0061331931501626
0.0023091747425496
-0.0019685099832713
-0.0064477883279323
-0.0108448453247547
-0.0148758925497531
-0.018288679420948
-0.0208867080509662
-0.022543666884303
-0.023210559040308
-0.0229167360812425
-0.0217624101787805
-0.0199024323374032
-0.0175255071371793
-0.0148326708003878
-0.0120169091969728
-0.0092465002089738
-0.0066544008441269
-0.0043327608145773
-0.0023305427748709
-0.0006548254750669
0.0007229028269648
0.001857619266957
0.0028213206678628
0.0036925009917467
0.0045449305325746
0.005438226275146
0.0064118392765522
0.0074838483706116
0.0086537469178438
0.0099054891616106
0.011209575459361
0.0125261303037405
0.0138092515990138
0.0150113087147474
0.0160874500870704
0.0169984139502048
0.0177052840590477
0.018155600875616
0.0182712022215127
0.0179475359618663
0.0170649755746126
0.0155078563839197
0.0131883397698402
0.0100724473595619
0.0062018716707825
0.0017033261246979
-0.0032187227625399
-0.008302666246891
-0.0132579682394862
-0.0177967175841331
-0.0216628722846508
-0.0246546305716037
-0.0266396813094615
-0.027563776820898
-0.0274518392980098
-0.0264010690152645
-0.0245665162801742
-0.0221412628889083
-0.01933603733778
-0.0163607522845268
-0.0134062450379133
-0.0106270909309387
-0.0081299636512994
-0.005969300866127
-0.0041488511487841
-0.0026293937116861
-0.0013422528281807
-0.0002043461427092
0.0008686622604727
0.0019522714428603
0.0031057256273925
0.0043665114790201
0.0057489955797791
0.0072475201450288
0.0088405217975378
0.0104952976107597
0.0121742617338895
0.0138406213372945
0.0154609382152557
0.0170041993260383
0.0184379592537879
0.0197200439870357
0.020786453038454
0.0215422678738832
0.0218620058149099
0.0216016378253698
0.0206207819283008
0.0188092049211263
0.0161125287413597
0.0125543577596545
0.0082483394071459
0.0033945275936275
-0.0017382828518748
-0.0068402825854718
-0.0115959104150533
-0.0157207828015089
-0.018990408629179
-0.0212560594081878
-0.0224507451057434
-0.0225885063409805
-0.0217580329626798
-0.0201100334525108
-0.0178378000855445
-0.0151547119021415
-0.0122736413031816
-0.0093882381916046
-0.006655741482973
-0.0041854009032249
-0.0020356383174657
-0.0002184072509407
0.001292404718697
0.0025509856641292
0.003628737758845
0.0046026706695556
0.005545413121581
0.0065183797851204
0.0075665493495762
0.0087147913873195
0.0099673541262745
0.0113098733127117
0.0127127720043063
0.0141369327902793
0.0155410524457693
0.0168874897062778
0.0181428752839565
0.0192705728113651
0.020216541364789
0.0208958014845848
0.021187450736761
0.0209425445646047
0.0200049933046102
0.0182423181831836
0.015579393133521
0.0120255472138524
0.0076874727383255
0.0027656578458845
-0.0024651063140481
-0.0076872087083756
-0.0125759439542889
-0.0168331675231456
-0.0202159099280834
-0.0225578378885984
-0.0237812343984842
-0.023898696526885
-0.0230050943791866
-0.0212611071765422
-0.0188719984143972
-0.0160647351294755
-0.0130649842321872
-0.0100770853459835
-0.0072688409127295
-0.0047605745494365
-0.0026192776858806
-0.0008594449609518
0.0005501001141965
0.001675593201071
0.0026050277519971
0.0034333355724811
0.004248559474945
0.0051216408610343
0.0061014480888843
0.007214842364192
0.0084688765928149
0.0098521336913108
0.011337075382471
0.0128857269883155
0.0144561268389225
0.016006926074624
0.0174983236938714
0.0188859682530164
0.020107377320528
0.0210673250257968
0.0216313470155
0.0216325968503952
0.0208931844681501
0.0192571468651294
0.0166265722364187
0.0129907606169581
0.0084415776655077
0.0031724390573799
-0.0025380104780197
-0.0083549777045845
-0.0139242140576243
-0.0189089588820934
-0.0230231173336505
-0.026058480143547
-0.02790093049407
-0.0285327732563018
-0.0280250050127506
-0.0265236105769872
-0.024230632930994
-0.0213810056447982
-0.0182175412774086
-0.0149672348052263
-0.0118211191147565
-0.0089179081842303
-0.0063331229612231
-0.0040776552632451
-0.00210747634992
-0.0003416584804654
0.0013177760411053
0.0029700761660933
0.0047031873837113
0.0065806345082819
0.0086302608251571
0.0108387283980846
0.0131523804739117
0.0154868345707654
0.0177454594522714
0.0198381021618843
0.0216916725039482
0.0232541989535093
0.0244973134249448
0.0254166666418313
0.0260247439146041
0.0263315346091985
0.0263170450925827
0.0259095299988985
0.0249846875667572
0.0233893245458602
0.020979143679142
0.0176581516861915
0.0134113300591707
0.0083234813064336
0.0025787195190787
-0.0035582249984145
-0.0097719160839915
-0.0157310515642166
-0.0211230926215648
-0.0256841611117124
-0.0292232371866703
-0.0316390395164489
-0.0329240038990974
-0.0331528410315513
-0.0324609130620956
-0.0310212150216102
-0.0290257968008518
-0.0266714766621589
-0.024146731942892
-0.0216175448149442
-0.0192132107913494
-0.017017813399434
-0.0150705780833959
-0.0133708147332072
-0.0118845095857977
-0.0105551732704043
-0.0093187727034091
-0.0081163812428712
-0.0068994611501693
-0.0056305360049009
-0.0042844810523092
-0.0028508713003247
-0.0013347876956686
0.0002449320163577
0.0018580555915832
0.003462791442871
0.005000882782042
0.006389464251697
0.0075152139179408
0.0082370424643158
0.0084017179906368
0.0078693833202123
0.0065385121852159
0.0043648248538374
0.0013756065163761
-0.0023222547024488
-0.0065451618283987
-0.0110482946038246
-0.0155516248196363
-0.0197729635983705
-0.0234624352306127
-0.0264306459575891
-0.0285639744251966
-0.029823487624526
-0.0302306823432445
-0.0298505220562219
-0.0287785083055496
-0.0271295476704835
-0.0250254347920417
-0.0225813500583171
-0.0198947638273239
-0.0170410946011543
-0.0140766454860568
-0.0110446829348802
-0.0079799890518188
-0.0049101170152425
-0.0018558762967586
0.0011666845530271
0.0041433116421103
0.0070572942495346
0.0098864138126373
0.0126062864437699
0.0151974130421876
0.0176486670970916
0.0199564006179571
0.0221225190907716
0.0241533517837524
0.026058055460453
0.0278426744043827
0.0294974260032176
0.0309795252978801
0.032198779284954
0.0330145768821239
0.0332491546869277
0.0327151753008365
0.0312502086162567
0.0287515297532081
0.0252067390829324
0.0207135025411844
0.015481162816286
0.0098121361806988
0.0040677171200513
-0.0013733329251408
-0.0061564138159155
-0.0099875945597887
-0.0126596912741661
-0.0140653029084205
-0.014198537915945
-0.0131486412137746
-0.0110867694020271
-0.0082458276301622
-0.0048947818577289
-0.0013091061264276
0.0022593140602111
0.0056064752861857
0.0085910465568304
0.0111383702605962
0.0132339559495449
0.0149111161008477
0.0162375997751951
0.0173024758696556
0.0182026494294405
0.019030038267374
0.0198622625321149
0.0207568183541297
0.0217467341572046
0.0228392090648412
0.0240188278257846
0.0252523273229599
0.0264934916049242
0.0276895873248577
0.0287861432880163
0.0297233313322067
0.0304225347936153
0.0307706966996192
0.0306139197200536
0.029768206179142
0.0280470810830593
0.0252985004335641
0.0214407071471214
0.0164882633835077
0.0105639565736055
0.0038966354914009
-0.0031944212969392
-0.0103286588564515
-0.0171038098633289
-0.0231376402080059
-0.0281046330928802
-0.0317648611962795
-0.0339831933379173
-0.034737903624773
-0.0341187641024589
-0.0323127321898937
-0.0295774657279253
-0.026209058240056
-0.0225105620920658
-0.0187638346105813
-0.015207065269351
-0.0120199806988239
-0.0093148127198219
-0.0071312556974589
-0.0054389834403991
-0.0041518337093293
-0.0031499175820499
-0.0023016387131065
-0.001482673920691
-0.0005920971743762
0.000437197741121
0.0016370066441595
0.0030092229135334
0.0045323148369789
0.0061672157607972
0.0078643793240189
0.0095701767131686
0.011230856180191
0.0127945197746157
0.014207424595952
0.0153999142348766
0.0162671003490686
0.0166586600244045
0.0163884069770574
0.0152620924636721
0.0131156677380204
0.0098553989082574
0.0054892245680093
0.0001413226127624
-0.0059513403102755
-0.0124585032463073
-0.0189904756844043
-0.0251416750252246
-0.0305347256362438
-0.0348575003445148
-0.037890188395977
-0.0395216941833496
-0.0397534556686878
-0.0386893190443515
-0.0365153588354587
-0.0334754511713981
-0.0298457443714141
-0.0259084440767765
-0.0219254679977893
-0.01811552233994
-0.014638502150774
-0.0115884598344564
-0.0089948857203125
-0.0068311500363051
-0.0050279395654797
-0.0034883609041571
-0.0021023524459451
-0.0007607208099216
0.0006314702332019
0.0021444403100758
0.0038178542163223
0.0056596775539219
0.0076493816450238
0.0097448462620377
0.01189068518579
0.0140255605801939
0.0160889662802219
0.0180278047919273
0.0197970382869243
0.0213481038808822
0.0226089023053646
0.0234675481915473
0.0237709414213895
0.023341592401266
0.0220086853951215
0.0196468848735094
0.0162144545465707
0.0117793912068009
0.0065258648246526
0.0007401024922728
-0.0052216076292097
-0.0109764449298381
-0.0161591954529285
-0.0204577166587114
-0.0236384198069572
-0.0255640130490064
-0.026202393695712
-0.025623470544815
-0.0239839404821395
-0.0215039420872926
-0.0184402633458375
-0.0150592243298888
-0.0116111245006322
-0.0083095235750079
-0.0053167603909969
-0.0027346145361661
-0.0006018431740812
0.0011003562249243
0.0024376693181693
0.0035089103039354
0.004429155960679
0.0053102974779903
0.0062440312467515
0.0072927726432681
0.0084879072383046
0.009832264855504
0.0113048776984214
0.0128670260310173
0.0144700659438967
0.0160639733076095
0.0176010988652706
0.0190298147499561
0.0202793069183826
0.0212441124022007
0.021779540926218
0.0217142887413501
0.0208777748048305
0.0191338658332824
0.0164126530289649
0.0127349887043237
0.008225679397583
0.0031101675704121
-0.0023071127943694
-0.0076771862804889
-0.0126464068889617
-0.0168955735862255
-0.0201722532510757
-0.0223132967948913
-0.0232564471662044
-0.023039124906063
-0.0217851940542459
-0.0196843594312667
-0.016968484967947
-0.0138865262269973
-0.0106799537315964
-0.0075614741072058
-0.0046986178494989
-0.0022039080504328
-0.0001327905338257
0.001512644579634
0.0027762162499129
0.003736384678632
0.0044915578328073
0.0051446268334984
0.0057897055521607
0.0065017193555831
0.0073292413726449
0.0082927905023098
0.00938849337399
0.0105928145349025
0.0118662919849157
0.013159092515707
0.0144196497276425
0.0156016862019896
0.0166631545871496
0.0175560526549816
0.0182117279618978
0.0185274500399827
0.0183623954653739
0.0175520982593297
0.0159399807453155
0.0134141901507973
0.0099390214309096
0.00557442009449
0.0004802318289875
-0.0050943382084369
-0.0108352629467844
-0.0164006128907203
-0.0214611738920211
