bvp
-0.1300849914550781
-0.1431961357593536
-0.1567462384700775
-0.1704562902450561
-0.1840693652629852
-0.197372555732727
-0.2102112770080566
-0.2224940061569214
-0.23418790102005
-0.2453059554100036
-0.2558884024620056
-0.2659860849380493
-0.2756508588790893
-0.284933865070343
-0.2938913702964782
-0.3025943636894226
-0.3111338317394256
-0.3196142315864563
-0.3281324505805969
-0.3367478251457214
-0.3454541862010956
-0.3541642427444458
-0.362710177898407
-0.3708609342575073
-0.3783507943153381
-0.3849118649959564
-0.3903031945228576
-0.394333928823471
-0.3968776762485504
-0.3978754878044128
-0.3973289728164673
-0.3952905833721161
-0.3918553590774536
-0.3871523439884186
-0.3813323080539703
-0.3745531439781189
-0.3669672012329101
-0.3587129116058349
-0.3499104082584381
-0.3406589329242706
-0.3310348391532898
-0.3210915327072143
-0.3108622431755066
-0.3003649413585663
-0.2896216809749603
-0.2787151038646698
-0.2678611278533935
-0.2574295401573181
-0.2478834092617035
-0.2396737486124038
-0.2331359684467315
-0.2284162938594818
-0.2254454493522644
-0.2239626348018646
-0.2235732972621917
-0.2238151431083679
-0.2242171019315719
-0.2243469357490539
-0.2238431870937347
-0.2224286645650863
-0.2199088484048843
-0.2161599695682525
-0.2111101448535919
-0.2047206163406372
-0.1969751566648483
-0.1878770887851715
-0.1774509698152542
-0.1657477766275406
-0.1528501212596893
-0.138873353600502
-0.1239627450704574
-0.1082886904478073
-0.0920393764972686
-0.0754095241427421
-0.0585880950093269
-0.041748397052288
-0.0250401645898818
-0.0085803717374801
0.0075556933879852
0.0233345031738281
0.0387530177831649
0.053823322057724
0.0685602277517318
0.0829729586839675
0.0970599502325058
0.1108080446720123
0.1241968125104904
0.1372061073780059
0.1498237252235412
0.1620488464832306
0.1738871037960052
0.1853372454643249
0.1963733434677124
0.2069296836853027
0.2168973386287689
0.2261367738246917
0.2345031052827835
0.241877019405365
0.2481908351182937
0.253442645072937
0.257699579000473
0.261093407869339
0.2638071477413177
0.2660529315471649
0.2680451869964599
0.2699728906154632
0.2719744145870209
0.2741202116012573
0.276406854391098
0.2787635922431946
0.2810697257518768
0.2831770777702331
0.2849316000938415
0.2861919999122619
0.2868462204933166
0.2868226170539856
0.286092460155487
0.2846650779247284
0.2825793027877807
0.2798927128314972
0.2766697704792022
0.2729717493057251
0.2688502967357635
0.2643447816371918
0.2594830691814422
0.2542849779129028
0.2487663030624389
0.2429406493902206
0.2368143498897552
0.230373665690422
0.2235721945762634
0.2163282185792923
0.2085351645946502
0.2000821232795715
0.1908803135156631
0.1808902472257614
0.170141115784645
0.1587374657392501
0.146854743361473
0.1347260475158691
0.1226209700107574
0.1108173727989196
0.0995712131261825
0.0890905410051345
0.079512745141983
0.0708857476711273
0.0631611943244934
0.0562044233083725
0.0498193614184856
0.0437822565436363
0.0378759577870368
0.0319191962480545
0.025788964703679
0.0194337107241153
0.0128741636872291
0.0061908960342407
-0.0004976000636816
-0.0070609832182526
-0.0133819747716188
-0.0193741116672754
-0.0249903313815593
-0.0302244909107685
-0.0351048335433006
-0.0396801345050334
-0.0440063849091529
-0.0481401532888412
-0.0521390289068222
-0.056066695600748
-0.0599972866475582
-0.0640140250325203
-0.0681992769241333
-0.0726177841424942
-0.0773009583353996
-0.0822359919548034
-0.0873591750860214
-0.0925577282905578
-0.0976822972297668
-0.1025630086660385
-0.1070234254002571
-0.110893577337265
-0.1140241175889968
-0.1163010746240615
-0.1176573783159256
-0.1180785074830055
-0.1176043897867202
-0.116328977048397
-0.1143970191478729
-0.1119960471987724
-0.1093395799398422
-0.1066426709294319
-0.1040942966938018
-0.1018308103084564
-0.0999186635017395
-0.098353125154972
-0.0970706194639206
-0.0959687680006027
-0.0949291065335273
-0.0938390642404556
-0.0926102474331855
-0.091190330684185
-0.0895666927099227
-0.0877612829208374
-0.0858203023672103
-0.0838065445423126
-0.0817971527576446
-0.0798820704221725
-0.0781593322753906
-0.0767258256673812
-0.0756620541214943
-0.0750135332345962
-0.074778713285923
-0.074910007417202
-0.075324110686779
-0.0759151130914688
-0.0765667632222175
-0.0771626159548759
-0.077592983841896
-0.0777598395943641
-0.0775835290551185
-0.0770091116428375
-0.0760052874684333
-0.0745560824871063
-0.072652131319046
-0.0702903196215629
-0.0674866288900375
-0.0642953440546989
-0.0608199872076511
-0.0572055242955684
-0.0536120235919952
-0.050180185586214
-0.0470014587044715
-0.0441020466387271
-0.0414442270994186
-0.0389408320188522
-0.0364755392074584
-0.033923901617527
-0.0311718955636024
-0.0281290188431739
-0.0247360952198505
-0.0209713503718376
-0.0168561022728681
-0.012458992190659
-0.0078976489603519
-0.0033325473777949
0.0010526827536523
0.005081518087536
0.0086158020421862
0.0115794744342565
0.0139695489779114
0.0158528424799442
0.0173495281487703
0.0186067670583724
0.019770573824644
0.0209642760455608
0.0222756061702966
0.0237518232315778
0.0254026483744382
0.0272086691111326
0.0291309896856546
0.0311202425509691
0.0331261456012725
0.0351061150431633
0.0370286740362644
0.0388712175190448
0.0406155586242675
0.0422439873218536
0.043737307190895
0.0450752303004264
0.0462371371686458
0.0472030490636825
0.0479584485292434
0.0485022589564323
0.0488516837358474
0.0490412227809429
0.04911894723773
0.0491412542760372
0.0491624101996421
0.0492163486778736
0.0492960326373577
0.0493407323956489
0.049238983541727
0.048848383128643
0.0480251461267471
0.0466543287038803
0.0446776002645492
0.0421145781874656
0.0390686988830566
0.0357152298092842
0.0322764553129673
0.0289884489029645
0.0260644163936376
0.0236631389707326
0.0218694545328617
0.0206889361143112
0.0200565382838249
0.0198552533984184
0.0199379902333021
0.0201495680958032
0.020349072292447
0.0204308331012725
0.0203379038721323
0.020063005387783
0.0196391586214303
0.0191229693591594
0.0185736157000064
0.0180360749363899
0.0175336617976427
0.0170670188963413
0.0166173875331878
0.0161540918052196
0.0156456548720598
0.0150714740157127
0.0144271505996584
0.0137188760563731
0.0129495421424508
0.0121039329096674
0.0111403437331318
0.0099918823689222
0.0085776569321751
0.006821425165981
0.0046713100746273
0.0021154847927391
-0.000807185890153
-0.0040032481774687
-0.007330329157412
-0.0106116980314254
-0.0136551037430763
-0.0162735506892204
-0.0183080360293388
-0.0196481812745332
-0.0202467814087867
-0.0201282631605863
-0.0193883869796991
-0.0181810893118381
-0.016694076359272
-0.0151199102401733
-0.0136290397495031
-0.0123481415212154
-0.0113461995497345
-0.0106300711631774
-0.0101499389857053
-0.0098156118765473
-0.0095213456079363
-0.00917090754956
-0.0086963344365358
-0.0080697434023022
-0.0073072384111583
-0.00646248832345
-0.0056123747490346
-0.0048419963568449
-0.0042350622825324
-0.003869995009154
-0.0038165408186614
-0.0041284118779003
-0.0048334505409002
-0.0059265503659844
-0.0073693264275789
-0.0090960003435611
-0.0110223572701215
-0.0130552453920245
-0.0151008367538452
-0.0170699153095483
-0.0188787747174501
-0.020447552204132
-0.0216998364776372
-0.0225647613406181
-0.0229813605546951
-0.0229055657982826
-0.0223193578422069
-0.0212394297122955
-0.0197219140827655
-0.0178612321615219
-0.0157828815281391
-0.0136304516345262
-0.0115475552156567
-0.0096568455919623
-0.0080411098897457
-0.0067319818772375
-0.005707811564207
-0.0049000396393239
-0.0042083053849637
-0.0035217404365539
-0.0027402713894844
-0.001791669987142
-0.0006441500154323
0.0006843634182587
0.0021200703922659
0.0035329444799572
0.0047476897016167
0.0055695609189569
0.0058218645863235
0.0053848829120397
0.0042246412485837
0.0024045479949563
7.780198939144611e-05
-0.0025376484263688
-0.0051955045200884
-0.0076599428430199
-0.0097380876541137
-0.0112998066470026
-0.0122831901535391
-0.0126883005723357
-0.0125625990331172
-0.0119814286008477
-0.0110279535874724
-0.0097781065851449
-0.0082937832921743
-0.0066237496212124
-0.0048109218478202
-0.0029024789109826
-0.0009566042572259
0.0009575169533491
0.0027656243182718
0.0043980260379612
0.0058006853796541
0.0069452789612114
0.0078360233455896
0.0085112759843468
0.0090383337810635
0.0095028774812817
0.0099965166300535
0.0106024332344532
0.011375562287867
0.0123189240694046
0.0133656533434987
0.0143759027123451
0.0151533372700214
0.0154798254370689
0.0151602961122989
0.0140673145651817
0.0121736750006675
0.0095642656087875
0.0064270943403244
0.0030272915028035
-0.0003321319818496
-0.0033559864386916
-0.0057979011908173
-0.0074879750609397
-0.0083466554060578
-0.0083855343982577
-0.0076947417110204
-0.0064212568104267
-0.0047431802377104
-0.0028421487659215
-0.0008771838620305
0.0010346500203013
0.0028261002153158
0.0044749733060598
0.0059905955567955
0.0073973168618977
0.0087191667407751
0.0099683245643973
0.0111392391845583
0.0122093874961137
0.01314702257514
0.0139237642288208
0.0145274251699447
0.0149711770936846
0.015295791439712
0.0155609995126724
0.0158228725194931
0.0161016061902046
0.0163546334952116
0.0164692569524049
0.016277827322483
0.0155910607427358
0.0142422271892428
0.0121293868869543
0.009243406355381
0.0056793973781168
0.0016335644759237
-0.00261498009786
-0.0067372503690421
-0.010398169979453
-0.0133023625239729
-0.0152332643046975
-0.0160802286118268
-0.0158500168472528
-0.0146611593663692
-0.0127215785905718
-0.0102934092283248
-0.0076536489650607
-0.0050561325624585
-0.0026970384642481
-0.0006923507899045
0.0009255213662981
0.0021966700442135
0.0032142573036253
0.0040975268930196
0.0049605341628193
0.005884242709726
0.0069005005061626
0.0079918764531612
0.0091040953993797
0.010166797786951
0.0111164469271898
0.0119087528437376
0.0125135416164994
0.0128993187099695
0.0130186267197132
0.0128022115677595
0.0121666211634874
0.0110311573371291
0.0093351798132061
0.0070534190163016
0.0042109536007046
0.0008937838720157
-0.0027511839289218
-0.0065254811197519
-0.0101931188255548
-0.0134999044239521
-0.0162000153213739
-0.0180869363248348
-0.0190214961767196
-0.0189509261399507
-0.0179168954491615
-0.0160509143024683
-0.0135577842593193
-0.0106907906010746
-0.0077203717082738
-0.0048993551172316
-0.0024317887146025
-0.0004489245766308
0.0010058162733912
0.0019758832640945
0.0025722754653543
0.0029443074017763
0.0032477106433361
0.0036149304360151
0.0041341492906212
0.0048399874940514
0.0057154921814799
0.0067027304321527
0.0077154315076768
0.0086458446457982
0.0093641560524702
0.0097207287326455
0.0095607107505202
0.0087474510073661
0.0071888077072799
0.0048614218831062
0.0018228306435048
-0.0017932746559381
-0.0057930992916226
-0.0099453395232558
-0.0140047324821352
-0.0177291687577962
-0.0208922885358333
-0.0232977978885173
-0.0247939899563789
-0.0252853725105524
-0.024742828682065
-0.0232109799981117
-0.0208082441240549
-0.0177183654159307
-0.0141733279451727
-0.0104289259761571
-0.0067386785522103
-0.0033285657409578
-0.0003723088884726
0.002028010552749
0.0038512907922267
0.0051558436825871
0.0060649784281849
0.0067403623834252
0.0073510045185685
0.0080457655712962
0.008931741118431
0.0100588724017143
0.0114143211394548
0.0129294889047741
0.0144933247938752
0.015961630269885
0.0171611979603767
0.0178978685289621
0.0179766416549682
0.0172326751053333
0.0155647695064544
0.0129611063748598
0.0095100728794932
0.0053937854245305
0.0008641148451715
-0.0037941641639918
-0.0082996515557169
-0.0123995821923017
-0.0158863011747598
-0.0186068676412105
-0.020463740453124
-0.0214095506817102
-0.0214407760649919
-0.0205939356237649
-0.0189449470490217
-0.016607891768217
-0.0137312114238739
-0.0104921953752636
-0.0070873852819204
-0.0037165493704378
-0.0005630523664876
0.0022255750373005
0.00455390708521
0.0063881399109959
0.0077582653611898
0.0087533462792634
0.0095072630792856
0.0101729109883308
0.0108894808217883
0.0117563065141439
0.0128220506012439
0.0140818180516362
0.015474796295166
0.016883997246623
0.0181383825838565
0.0190198570489883
0.0192852895706892
0.0187081340700387
0.0171276032924652
0.0144875301048159
0.0108558684587478
0.0064235217869281
0.0014819232746958
-0.0036190941464155
-0.0085227042436599
-0.0129107423126697
-0.0165350921452045
-0.0192324444651603
-0.0209232829511165
-0.0216007754206657
-0.0213158130645751
-0.0201619323343038
-0.0182640887796878
-0.015772620216012
-0.012856918387115
-0.0096951546147465
-0.006465355399996
-0.0033401013351976
-0.000477329827845
0.0019964769016951
0.0040034377016127
0.0055244858376681
0.0066016148775815
0.0073310839943587
0.0078460248187184
0.0082924077287316
0.008805975317955
0.0094937952235341
0.0104199470952153
0.0115966107696294
0.0129809603095054
0.0144736533984541
0.0159175116568803
0.0171020310372114
0.0177806392312049
0.0177042186260223
0.0166689343750476
0.014566333964467
0.0114168934524059
0.0073765106499195
0.0027174889110028
-0.0022108000703155
-0.0070341438986361
-0.0114071229472756
-0.0150551386177539
-0.0177966803312301
-0.0195476450026035
-0.0203129481524229
-0.0201673172414302
-0.0192299056798219
-0.0176428109407424
-0.0155577436089515
-0.0131259057670831
-0.0104885287582874
-0.0077718091197311
-0.005088148638606
-0.0025381832383573
-0.0002086190506815
0.0018310088198632
0.0035313400439918
0.004870313219726
0.0058621843345463
0.0065599805675446
0.007049074396491
0.0074365716427564
0.007837826386094
0.0083573041483759
0.009068252518773
0.0099982526153326
0.0111185209825634
0.0123331854119896
0.0134739503264427
0.0143111143261194
0.0145849334076046
0.0140511989593505
0.0125317350029945
0.0099593102931976
0.0064058871939778
0.0020842282101511
-0.0026814388111233
-0.0075065614655613
-0.0120016885921359
-0.0158224217593669
-0.0187120046466588
-0.0205299519002437
-0.021259132772684
-0.0209909193217754
-0.0198935568332672
-0.0181744284927845
-0.0160464309155941
-0.0137019287794828
-0.011295941658318
-0.0089395269751548
-0.0067020617425441
-0.0046207248233258
-0.0027136881835758
-0.0009916888084262
0.0005364380776882
0.0018648779951035
0.0029929452575743
0.0039244876243174
0.0046707834117114
0.0052600586786866
0.0057454397901892
0.0062028053216636
0.0067170988768339
0.0073608900420367
0.0081678600981831
0.0091045033186674
0.0100516956299543
0.0108082760125398
0.0111201852560043
0.010730498470366
0.0094383545219898
0.0071513270959258
0.0039165117777884
-7.743015885353088e-05
-0.0045250472612679
-0.0090483985841274
-0.013251032680273
-0.0167715512216091
-0.0193296745419502
-0.0207588542252779
-0.0210195295512676
-0.0201931670308113
-0.0184620320796966
-0.0160769037902355
-0.0133159551769495
-0.0104423472657799
-0.0076692644506692
-0.0051394132897257
-0.0029195493552833
-0.0010081031359732
0.0006441414006985
0.0021071871742606
0.0034504975192248
0.0047285864129662
0.0059688165783882
0.0071669430471956
0.0082972338423132
0.0093294298276305
0.0102422935888171
0.0110328178852796
0.0117216063663363
0.0123515278100967
0.0129749057814478
0.0136267347261309
0.0142917018383741
0.0148813193663954
0.0152331115677952
0.015133062377572
0.0143551547080278
0.0127101996913552
0.01009629573673
0.0065382933244109
0.0022004614584147
-0.0026324884966015
-0.0075964676216244
-0.0122993001714348
-0.0163740683346986
-0.0195256955921649
-0.021563570946455
-0.0224188696593046
-0.0221446584910154
-0.0208972804248332
-0.0189039595425128
-0.0164237227290868
-0.013708334416151
-0.0109689030796289
-0.0083541125059127
-0.0059464266523718
-0.0037726021837443
-0.0018169516697525
-3.429083153605461e-05
0.0016325784381479
0.0032316213473677
0.0047856122255325
0.0062893349677324
0.0077191479504108
0.0090470220893621
0.0102523369714617
0.0113302506506443
0.0122959706932306
0.0131821800023317
0.0140273468568921
0.0148543883115053
0.015642961487174
0.0163058247417211
0.0166847445070743
0.0165748782455921
0.0157710593193769
0.014118724502623
0.0115549452602863
0.0081325946375727
0.0040241084061563
-0.0004947587149217
-0.0050781434401869
-0.0093571515753865
-0.0129924323409795
-0.0157199017703533
-0.0173822492361068
-0.0179429221898317
-0.0174789391458034
-0.0161562208086252
-0.0141986217349767
-0.011853945441544
-0.0093566915020346
-0.0068963868543505
-0.0045998129062354
-0.0025278832763433
-0.000684767961502
0.0009654192253947
0.002478712471202
0.0039105173200368
0.0052977344021201
0.0066491467878222
0.0079477950930595
0.0091625060886144
0.0102609070017933
0.011220620945096
0.0120378164574503
0.012730672955513
0.0133369648829102
0.013903185725212
0.0144620873034
0.0150054525583982
0.0154641270637512
0.0157024729996919
0.0155329862609505
0.0147515255957841
0.0131838181987404
0.0107326917350292
0.0074138608761131
0.0033675325103104
-0.0011560061248019
-0.0058287698775529
-0.0102877067402005
-0.0141826588660478
-0.0172227099537849
-0.0192114226520061
-0.0200659651309251
-0.0198210608214139
-0.018617445603013
-0.0166740007698535
-0.014248851686716
-0.0115991495549678
-0.0089470017701387
-0.0064545734785497
-0.0042118709534406
-0.0022406096104532
-0.0005115787498652
0.0010312057565897
0.0024464773014187
0.0037782599683851
0.0050477711483836
0.0062522822991013
0.0073698917403817
0.0083729354664683
0.009246121160686
0.0099980309605598
0.0106614278629422
0.0112869599834084
0.0119318403303623
0.0126414597034454
0.0134259741753339
0.0142367528751492
0.0149510353803634
0.015375935472548
0.0152781968936324
0.0144346104934811
0.0126865524798631
0.009982937015593
0.0064040482975542
0.0021614432334899
-0.0024293265305459
-0.0069983312860131
-0.0111794248223304
-0.0146615728735923
-0.0172238070517778
-0.0187533516436815
-0.0192483514547348
-0.0188047345727682
-0.017592879012227
-0.0158296339213848
-0.0137448301538825
-0.0115480814129114
-0.0094047142192721
-0.0074200266972184
-0.0056332009844481
-0.0040297964587807
-0.0025702673010528
-0.0012177554890513
4.781014285981655e-05
0.0012296957429498
0.0023200130090117
0.0033047480974346
0.0041695502586662
0.0049080736935138
0.0055309413000941
0.0060713263228535
0.006583391688764
0.0071316738612949
0.0077699553221464
0.0085129793733358
0.0093110855668783
0.0100375711917877
0.01049673743546
0.0104561662301421
0.0096966605633497
0.0080655682832002
0.0055181663483381
0.0021378546953201
-0.0018671585712581
-0.0061909323558211
-0.0104755787178874
-0.0143628967925906
-0.0175414904952049
-0.0197846069931983
-0.0209730435162782
-0.0211006589233875
-0.0202663131058216
-0.0186533592641353
-0.0164957679808139
-0.0140379713848233
-0.0114996945485472
-0.0090501131489872
-0.0067921318113803
-0.0047614886425435
-0.0029411474242806
-0.0012831055792048
0.0002691582776606
0.0017621361184865
0.0032206843607127
0.0046436386182904
0.0060089048929512
0.0072881476953625
0.0084621384739875
0.0095288269221782
0.0105042858049273
0.0114180352538824
0.0123042948544025
0.0131911225616931
0.0140870008617639
0.0149631788954138
0.0157346799969673
0.0162521973252296
0.0163164213299751
0.0157138109207153
0.0142648480832576
0.0118721444159746
0.0085531212389469
0.0044493777677416
-0.0001857795286923
-0.0050202244892716
-0.0096915187314152
-0.0138600533828139
-0.0172552559524774
-0.0197037514299154
-0.0211355779320001
-0.0215763468295335
-0.0211318489164114
-0.0199640747159719
-0.0182615220546722
-0.0162113402038812
-0.0139758419245481
-0.0116760209202766
-0.0093878060579299
-0.007149645127356
-0.0049743484705686
-0.0028628369327634
-0.0008186839986592
0.0011426850687712
0.0029929634183645
0.0046956590376794
0.0062161260284483
0.0075343633070588
0.0086548775434494
0.0096102077513933
0.0104571981355547
0.0112678874284029
0.0121170040220022
0.0130642196163535
0.0141309965401887
0.0152779575437307
0.016390910372138
0.0172841325402259
0.0177250131964683
0.0174753442406654
0.0163410529494285
0.0142196845263242
0.0111327711492776
0.0072325645014643
0.0027798991650342
-0.0018980994354933
-0.0064577837474644
-0.0105860996991395
-0.014035333879292
-0.0166419129818677
-0.0183322913944721
-0.0191169455647468
-0.0190721191465854
-0.018314367160201
-0.0169771891087293
-0.0151950763538479
-0.0130933867767453
-0.0107812657952308
-0.0083484081551432
-0.0058691948652267
-0.0034120185300707
-0.0010447101667523
0.0011673385743051
0.0031665207352489
0.0049101505428552
0.0063788341358304
0.0075824130326509
0.0085604107007384
0.0093781948089599
0.010118712671101
0.0108665190637111
0.0116875125095248
0.0126135423779487
0.0136364176869392
0.0147106684744358
0.0157594867050647
0.0166771728545427
0.017332362011075
0.017580147832632
0.0172801353037357
0.016316195949912
0.0146189695224165
0.0121848545968532
0.009081364609301
0.0054400502704083
0.0014417723286896
-0.0027052850928157
-0.0067894235253334
-0.0106136044487357
-0.0140067059546709
-0.0168285854160785
-0.018969852477312
-0.0203512553125619
-0.0209274981170892
-0.0206936616450548
-0.0196909140795469
-0.0180092360824346
-0.015783729031682
-0.0131843276321887
-0.0104007115587592
-0.0076231313869357
-0.0050215325318276
-0.0027263932861387
-0.0008134974632412
0.0007052576402202
0.0018818310927599
0.0028189243748784
0.0036442345008254
0.0044825095683336
0.0054340995848178
0.0065579703077673
0.0078609390184283
0.0092989867553114
0.0107888858765363
0.0122268525883555
0.0135118290781974
0.0145658738911151
0.0153427617624402
0.0158228632062673
0.0159980338066816
0.0158510692417621
0.0153386481106281
0.0143892467021942
0.012919089756906
0.0108585506677627
0.0081779137253761
0.0049044257029891
0.0011282199993729
-0.003000849392265
-0.0072825471870601
-0.0114791672676801
-0.0153317358344793
-0.0185830444097518
-0.0210073441267013
-0.0224402025341987
-0.0228032730519771
-0.0221202466636896
-0.0205177310854196
-0.0182073228061199
-0.0154537837952375
-0.0125377792865037
-0.0097180008888244
-0.0071968208067119
-0.0050956872291862
-0.0034449819941073
-0.0021914488170295
-0.0012219609925523
-0.0003942640614695
0.0004329420044086
0.0013711070641875
0.0024796358775347
0.0037595829926431
0.0051624737679958
0.006607589777559
0.0080029536038637
0.0092669492587447
0.0103469658643007
0.01122613158077
0.0119106424972414
0.0124039053916931
0.0126819983124732
0.0126806534826755
0.0122993411496281
0.0114215835928916
0.0099425558000803
0.0077987848781049
0.0049960352480411
0.0016240840777754
-0.0021467795595526
-0.0060811918228864
-0.009900938719511
-0.0133148478344082
-0.0160553753376007
-0.0179142653942108
-0.0187690202146768
-0.0185968782752752
-0.017476761713624
-0.0155793726444244
-0.013143484480679
-0.0104390596970915
-0.0077254711650311
-0.0052159340120851
-0.0030540893785655
-0.0013037668541073
4.907627590000629e-05
0.0010834388667717
0.0019198374357074
0.002690318506211
0.0035093452315777
0.0044517684727907
0.0055406400933861
0.0067460658028721
0.0079984795302152
0.0092140976339578
0.0103198941797018
0.0112684741616249
0.012041944079101
0.0126448301598429
0.0130863999947905
0.0133572062477469
0.0134088527411222
0.0131477927789092
0.0124486377462744
0.0111819058656692
0.0092472545802593
0.0066055781207978
0.0033030747435986
-0.0005205570487305
-0.0046429866924881
-0.0087850745767354
-0.0126441987231373
-0.0159294623881578
-0.0183962229639291
-0.0198762919753789
-0.0202980656176805
-0.0196936130523681
-0.018193531781435
-0.0160095207393169
-0.0134025029838085
-0.0106394793838262
-0.0079503552988171
-0.0054966369643807
-0.0033586891368031
-0.0015403870493173
1.391349360346794e-05
0.0013945151586085
0.0026991325430572
0.0040088025853037
0.0053710341453552
0.0067932102829217
0.0082467375323176
0.0096796452999114
0.011032679118216
0.0122551098465919
0.013319089077413
0.0142279742285609
0.0150138894096016
0.0157258696854114
0.0164103601127862
0.0170855168253183
0.0177154317498207
0.01819415576756
0.0183496326208114
0.0179705023765563
0.0168492011725902
0.0148309748619794
0.0118568334728479
0.0079890228807926
0.0034129784908145
-0.0015828338218852
-0.006645088084042
-0.0114072859287261
-0.015544761903584
-0.0188177227973938
-0.0210925564169883
-0.0223425980657339
-0.0226337164640426
-0.022099258378148
-0.0209098272025585
-0.0192437954246997
-0.0172647479921579
-0.015108959749341
-0.0128789581358432
-0.010641916655004
-0.0084371324628591
-0.006289486773312
-0.0042205885984003
-0.0022548995912075
-0.0004202628042548
0.0012568921083584
0.0027579045854508
0.0040773698128759
0.0052283937111496
0.0062461453489959
0.0071857925504446
0.0081137921661138
0.0090944878756999
0.0101751303300261
0.0113730709999799
0.0126657327637076
0.0139818880707025
0.0151966465637087
0.016135923564434
0.0165945049375295
0.0163682010024786
0.0152956927195191
0.0132972598075866
0.0103960782289505
0.0067193931899964
0.0024839024990797
-0.00203268090263
-0.0065290769562125
-0.0107169803231954
-0.0143511220812797
-0.0172516629099845
-0.0193148870021104
-0.0205108579248189
-0.020871128886938
-0.020470056682825
-0.0194073375314474
-0.0177959538996219
-0.015752900391817
-0.0133935268968343
-0.0108297783881425
-0.0081684459000825
-0.0055093597620725
-0.0029447360429912
-0.0005571315996348
0.0015857985708862
0.0034392420202493
0.0049901474267244
0.0062621627002954
0.0073132012039422
0.0082272896543145
0.0091012986376881
0.010026984848082
0.0110728302970528
0.0122700817883014
0.013605666346848
0.0150241442024707
0.0164371225982904
0.0177335776388645
0.0187874361872673
0.0194662790745496
0.0196425095200538
0.0192031245678663
0.0180594325065612
0.0161611344665288
0.0135125946253538
0.010183623060584
0.0063083614222705
0.00207159970887
-0.002313544973731
-0.0066300150938332
-0.0106736151501536
-0.0142585495486855
-0.01722077652812
-0.0194266755133867
-0.0207838639616966
-0.0212503653019666
-0.0208401791751384
-0.0196229573339223
-0.0177200324833393
-0.0152977714315056
-0.0125538781285285
-0.009697476401925
-0.0069278380833566
-0.0044134091585874
-0.0022724834270775
-0.0005590961081907
0.0007415272993966
0.0017057654913514
0.0024553500115871
0.0031345360912382
0.0038815075531601
0.0048001618124544
0.0059390850365161
0.0072827888652682
0.0087602920830249
0.0102667212486267
0.0116867423057556
0.0129128964617848
0.0138537036255002
0.0144295832142233
0.0145653691142797
0.0141893960535526
0.0132395178079605
0.0116736171767115
0.0094836959615349
0.0067086154595017
0.0034386774059385
-0.0001890405546873
-0.0040016337297856
-0.0078050908632576
-0.0114002916961908
-0.0145966252312064
-0.0172209329903125
-0.0191245172172784
-0.0201944671571254
-0.0203703641891479
-0.0196585115045309
-0.0181373078376054
-0.0159536097198724
-0.0133100859820842
-0.0104420119896531
-0.0075848647393286
-0.0049408315680921
-0.002653990406543
-0.0007971158483996
0.0006331178592517
0.0017118997639045
0.0025669457390904
0.0033463481813669
0.004185710567981
0.0051825419068336
0.0063815182074904
0.0077722677960991
0.0092957811430096
0.0108577907085418
0.0123496726155281
0.0136711364611983
0.0147466585040092
0.0155281666666269
0.0159812588244676
0.0160659290850162
0.0157272778451442
0.0148992557078599
0.0135152004659175
0.0115213794633746
0.0088926749303936
0.0056487438268959
0.0018671532161533
-0.0023107365705072
-0.0066835568286478
-0.011004558764398
-0.0150063578039407
-0.018429547548294
-0.0210498291999101
-0.0227035619318485
-0.0233089365065097
-0.0228778664022684
-0.0215156339108943
-0.0194071941077709
-0.0167924799025058
-0.0139341037720441
-0.0110802920535206
-0.0084296315908432
-0.0061075603589415
-0.004159013275057
-0.0025535686872899
-0.0012011886574327
1.9690953195095066e-05
0.0012277103960514
0.0025114791933447
0.0039151608943939
0.0054343426600098
0.0070233540609478
0.0086131915450096
0.0101329879835248
0.011526963673532
0.0127631928771734
0.0138364806771278
0.0147643340751528
0.01556964404881
0.0162517726421356
0.0167599599808454
0.0169833693653345
0.0167624726891517
0.0159187093377113
0.0142963426187634
0.0118080079555511
0.0084700640290975
0.0044127823784947
-0.0001344947377219
-0.0048719253391027
-0.0094677368178963
-0.0136033715680241
-0.0170133337378501
-0.0195110123604536
-0.0209999158978462
-0.0214734598994255
-0.0210067220032215
-0.0197422448545694
-0.0178705230355262
-0.015603169798851
-0.0131414094939827
-0.0106512615457177
-0.0082504032179713
-0.0060021830722689
-0.003917564637959
-0.0019677467644214
-0.0001021679490804
0.0017356409225612
0.003598759882152
0.0055330200120806
0.0075719589367508
0.0097291404381394
0.011993215419352
0.0143268313258886
0.0166675187647342
0.0189323350787162
0.0210260041058063
0.0228485073894262
0.024300193414092
0.0252838265150785
0.0257016010582447
0.0254477225244045
0.0244046691805124
0.0224524289369583
0.0194935798645019
0.0154899777844548
0.0104971220716834
0.0046794712543487
-0.0016974385362118
-0.0082912016659975
-0.0147183984518051
-0.0206004790961742
-0.025611137971282
-0.0295116584748029
-0.0321688577532768
-0.0335568077862262
-0.0337448827922344
-0.0328784696757793
-0.0311558432877063
-0.0288023520261049
-0.0260480009019374
-0.0231110751628875
-0.0201836936175823
-0.0174165479838848
-0.0149045065045356
-0.0126787163317203
-0.0107095632702112
-0.0089183552190661
-0.0071954573504626
-0.0054220245219767
-0.0034859078004956
-0.0012864395976066
0.001266642473638
0.0042510232888162
0.0077188308350741
0.0116728693246841
0.0160420909523963
0.0206693857908248
0.0253208335489034
0.0297168027609586
0.0335768163204193
0.0366680324077606
0.038843460381031
0.0400552712380886
0.0403430499136447
0.039810474961996
0.0386008992791175
0.0368715897202491
0.0347690470516681
0.0324182137846946
0.0299300570040941
0.0274156965315341
0.0249935314059257
0.02278408780694
0.0208953656256198
0.0194049179553985
0.0183452479541301
0.0176965910941362
0.0173877272754907
0.0173052884638309
0.017310906201601
0.0172638855874538
0.0170464385300874
0.0165834669023752
0.0158486440777778
0.014857979491353
0.0136575009673833
0.0123094599694013
0.0108802989125251
0.0094333253800868
0.0080250781029462
0.0067005958408117
0.0054847914725542
0.0043729338794946
0.003326877951622
0.0022818520665168
0.0011638738214969
-8.921325206756592e-05
-0.0015130676329135
-0.0031152591109275
-0.0048883445560932
-0.0068336389958858
-0.0089856702834367
-0.0114245396107435
-0.0142671409994363
-0.0176385976374149
-0.0216360725462436
-0.0262973755598068
-0.031579241156578
-0.0373473800718784
-0.0433825701475143
-0.0494045093655586
-0.0551073551177978
-0.06019838899374
-0.0644324049353599
-0.0676335915923118
-0.0697033926844596
-0.0706213265657424
-0.0704432651400566
-0.0692948028445243
-0.0673543736338615
-0.064826413989067
-0.0619133599102497
-0.0587929487228393
-0.0556009113788604
-0.0524184554815292
-0.0492670238018035
-0.0461160391569137
-0.042902871966362
-0.0395533815026283
-0.0359958373010158
-0.0321718715131282
-0.0280445665121078
-0.0236010290682315
-0.0188555940985679
-0.013853951357305
-0.0086682587862014
-0.0033862334676086
0.0018965480849146
0.0070822872221469
0.0120727010071277
0.0167604237794876
0.0210137199610471
0.0246663484722375
0.0275241825729608
0.0293922424316406
0.0301122516393661
0.0295970421284437
0.0278547704219818
0.0249993056058883
0.0212456807494163
0.0168920494616031
0.0122896619141101
0.0078074317425489
0.0037976764142513
0.0005633849650621
-0.0016693621873855
-0.0027671381831169
-0.002692874521017
-0.0015014726668596
0.0006714593619108
0.0036281440407037
0.0071343332529067
0.0109477937221527
0.0148408133536577
0.0186156257987022
0.0221183262765407
0.025249982252717
0.0279701650142669
0.0302914325147867
0.0322644561529159
0.0339588746428489
0.0354481860995292
0.0367987900972366
0.0380603075027465
0.0392596535384655
0.0404002293944358
0.0414631143212318
0.0424097590148448
0.0431881435215473
0.0437384322285652
0.0439923927187919
0.0438658595085144
0.0432473197579383
0.0419907346367836
0.0399227738380432
0.036869291216135
0.0326973386108875
0.0273565836250782
0.0209026373922824
0.0135020408779382
0.005426678340882
-0.0029649995267391
-0.0112624773755669
-0.0190456621348857
-0.0259271468967199
-0.03158875182271
-0.0358080603182315
-0.038472656160593
-0.0395790673792362
-0.039217758923769
-0.0375530123710632
-0.0348025485873222
-0.031215101480484
-0.0270472671836614
-0.0225420743227005
-0.0179080143570899
-0.0133028244599699
-0.008830688893795
-0.004551712423563
-0.0004947381094098
0.0033317077904939
0.0069323368370532
0.0103225680068135
0.0135260578244924
0.0165675785392522
0.0194631852209568
0.0222129188477993
0.0247997194528579
0.027195231989026
0.0293675195425748
0.0312834382057189
0.0329047963023185
0.0341821424663066
0.0350473001599311
0.0354052670300006
0.0351301506161689
0.0340735353529453
0.032088566571474
0.0290609896183013
0.0249385274946689
0.0197542198002338
0.0136373061686754
0.0068104919046163
-0.0004231203347444
-0.0077053746208548
-0.0146605260670185
-0.0209350697696208
-0.026230476796627
-0.0303278230130672
-0.0331040136516094
-0.0345345698297023
-0.0346853733062744
-0.0337014384567737
-0.0317906849086284
-0.0291985422372818
-0.0261788349598646
-0.0229695290327072
-0.0197750758379697
-0.0167521629482507
-0.0140014765784144
-0.0115707572549581
-0.0094651076942682
-0.0076565891504287
-0.0060922810807824
-0.004703773651272
-0.003417364321649
-0.0021638765465468
-0.0008890968747437
0.0004402389749884
0.001839708071202
0.0033131120726466
0.0048540052957832
0.0064431563951075
0.00804512668401
0.0096058286726474
0.011047763749957
0.0122620221227407
0.0131048457697033
0.0134053602814674
0.0129866637289524
0.0116981798782944
0.009448816999793
0.0062302267178893
0.0021276995539665
-0.0026806201785802
-0.007936785928905
-0.0133284209296107
-0.0185240041464567
-0.0232104193419218
-0.0271236039698123
-0.0300695709884166
-0.0319340713322162
-0.0326816365122795
-0.0323529355227947
-0.0310584660619497
-0.0289597287774086
-0.0262459944933652
-0.0231177974492311
-0.0197750069200992
-0.0164037980139255
-0.0131621425971388
-0.0101686073467135
-0.0074989437125623
-0.0051906667649745
-0.0032525255810469
-0.0016753623494878
-0.000442466000095
0.0004624349530786
0.0010516354814171
0.0013378704898059
0.0013465001247823
0.001125001348555
0.0007438745815306
0.0002932362258434
-0.000118903350085
-0.0003572176210582
-0.0002435119822621
0.0004347623325884
0.0018798885866999
0.0042294687591493
0.0075096460059285
0.0115941520780324
0.0161862410604953
0.0208553560078144
0.0251452960073947
0.028760265558958
0.0317915678024292
0.0348517149686813
0.0390861928462982
0.0461992360651493
0.0583850182592868
0.0778733417391777
0.1061528846621513
0.1432421952486038
0.1873512715101242
0.2351540029048919
0.2825677096843719
0.3255637288093567
0.3606760799884796
0.3852604031562805
0.3976007103919983
0.3969035148620605
0.3832310438156128
0.357399046421051
0.3208823204040527
0.2757472395896911
0.2245294451713562
0.1699976176023483
0.1148510724306106
0.0614321827888488
0.0115192681550979
-0.0337570160627365
-0.073871225118637
-0.1087750941514968
-0.1387474238872528
-0.1642552465200424
-0.1858237385749817
-0.2039207369089126
-0.2188680917024612
-0.2308108359575271
-0.2397986650466919
-0.2459555715322494
-0.2496155053377151
-0.2513415217399597
-0.2518471777439117
-0.2518744468688965
-0.2520614564418793
-0.2528323233127594
-0.2543546557426452
-0.256569355726242
-0.2592489421367645
-0.2620499730110168
-0.2645620703697204
-0.2663660049438476
-0.2670924663543701
-0.26646488904953
-0.2643288373947143
-0.2606690526008606
-0.2556027173995971
-0.2493505775928497
-0.2422010898590088
-0.2344676852226257
-0.2264335453510284
-0.2182984799146652
-0.210149198770523
-0.2019574493169784
-0.1935987621545791
-0.1848901510238647
-0.1756479889154434
-0.1657517105340957
-0.1551821827888488
-0.144014835357666
-0.132385715842247
-0.120466262102127
-0.1084630265831947
-0.09663026034832
-0.085265077650547
-0.0746586769819259
-0.0650207847356796
-0.0564330518245697
-0.0488559007644653
-0.0421693325042724
-0.0362227410078048
-0.0308637171983718
-0.0259275585412979
-0.0212089270353317
-0.016451247036457
-0.0113672241568565
-0.0056776851415634
0.0008541196584701
0.0083981752395629
0.0170341581106185
0.0267376154661178
0.037392109632492
0.0488150715827941
0.060779295861721
0.0730331167578697
0.0853194519877433
0.0973833501338958
0.1089729070663452
0.1198488697409629
0.12980717420578
0.1387099325656891
0.1465151757001876
0.15329010784626
0.1592003554105758
0.1644734740257263
0.1693376004695892
0.1739573180675506
0.1784061342477798
0.1826882660388946
0.1867719143629074
0.1905972361564636
0.1940720975399017
0.1970856189727783
0.1995429843664169
0.2013946026563644
0.2026335299015045
0.2032667845487594
0.203280508518219
0.2026074528694152
0.2011014968156814
0.1985328495502472
0.194618821144104
0.1890865415334701
0.1817472875118255
0.172562837600708
0.161693200469017
0.1495196372270584
0.1366298049688339
0.1237475723028183
0.1116151213645935
0.1008733287453651
0.0919841974973678
0.085195668041706
0.0805337950587272
0.0778217613697052
0.0767266675829887
0.0768282711505889
0.0776937752962112
0.0789286941289901
0.0801842510700225
0.0811413899064064
0.0815079882740974
0.0810416489839553
0.0795811712741851
0.0770628079771995
0.0735136792063713
0.0690314397215843
0.0637574642896652
0.0578490570187568
0.0514651834964752
0.0447713993489742
0.0379473678767681
0.0311855785548686
0.0246851556003093
0.0186358820647001
0.0131838712841272
0.0083973556756973
0.0042614107951521
0.0006919824518263
-0.0024595074355602
-0.0054093329235911
-0.0084303691983222
-0.0118176024407148
-0.0158406421542167
-0.020700629800558
-0.0265054311603307
-0.0332637317478656
-0.0408842712640762
-0.0491715818643569
-0.0578233934938907
-0.0664405524730682
-0.0745611041784286
-0.0817196667194366
-0.0875140056014061
-0.0916556492447853
-0.0939979702234268
-0.094551958143711
