bvp
-0.0279551483690738
-0.0288886725902557
-0.0286544300615787
-0.0273620747029781
-0.0251862239092588
-0.0223441496491432
-0.0190715193748474
-0.0155989099293947
-0.0121317841112613
-0.0088357273489236
-0.0058280704542994
-0.0031762132421135
-0.0009000562131404
0.0010230857878923
0.002648863941431
0.0040513705462217
0.0053084474056959
0.0064909365028142
0.0076554138213396
0.0088398270308971
0.0100628361105918
0.0113251097500324
0.0126107353717088
0.0138898026198148
0.0151242110878229
0.0162756331264972
0.0173104424029588
0.0181976743042469
0.0188994091004133
0.019355995580554
0.0194742828607559
0.0191282927989959
0.0181750804185867
0.0164818484336137
0.0139565225690603
0.0105740148574113
0.0063930824398994
0.0015602633357048
-0.0037003345787525
-0.0091091804206371
-0.0143616646528244
-0.0191615764051675
-0.0232518669217824
-0.026437971740961
-0.0286011137068271
-0.0297023840248584
-0.0297804549336433
-0.0289438050240278
-0.0273569785058498
-0.0252213086932897
-0.0227514747530221
-0.0201517343521118
-0.0175968762487173
-0.015219734981656
-0.0131049863994121
-0.0112889651209115
-0.0097632342949509
-0.0084810350090265
-0.0073685524985194
-0.0063396394252777
-0.005310395732522
-0.0042124539613723
-0.0030032554641366
-0.0016701323911547
-0.000227783806622
0.0012886710464954
0.0028333272784948
0.0043596010655164
0.0058258632197976
0.0071911150589585
0.0084019917994737
0.0093813203275203
0.0100279916077852
0.0102287326008081
0.0098755834624171
0.0088842036202549
0.0072120279073715
0.0048734387382864
0.0019467314705252
-0.0014286758378148
-0.0050634583458304
-0.0087370984256267
-0.0122210923582315
-0.015300846658647
-0.0177927538752555
-0.0195569992065429
-0.0205068401992321
-0.0206137634813785
-0.0199069157242774
-0.0184654798358678
-0.0164056979119777
-0.0138655677437782
-0.0109900832176208
-0.0079219164326787
-0.0048004295676946
-0.0017657945863902
0.0010365375783294
0.0034533999860286
0.0053244163282215
0.006488874554634
0.0068044457584619
0.0061763911508023
0.0045874402858316
0.002117681549862
-0.0010522324591875
-0.004655425902456
-0.0083679258823394
-0.0118484701961278
-0.0147814135998487
-0.0169142354279756
-0.0180847533047199
-0.0182384327054023
-0.0174383297562599
-0.015864472836256
-0.0137954046949744
-0.0115714529529213
-0.0095469644293189
-0.0080390414223074
-0.0072808545082807
-0.007389579899609
-0.0083547858521342
-0.0100464466959238
-0.0122391544282436
-0.0146467983722686
-0.016959898173809
-0.0188806932419538
-0.0201539266854524
-0.0205899290740489
-0.0200778096914291
-0.0185897070914506
-0.016177138313651
-0.0129591226577758
-0.0091024972498416
-0.0047986973077058
-0.0002415124326944
0.0043922252953052
0.0089567266404628
0.0133435931056737
0.0174813158810138
0.0213314332067966
0.0248833708465099
0.028147418051958
0.0311463121324777
0.033907763659954
0.0364586934447288
0.0388213284313678
0.0410130098462104
0.0430488660931587
0.0449426546692848
0.0467053800821304
0.0483453944325447
0.0498683080077171
0.0512718260288238
0.0525349676609039
0.0536036118865013
0.0543779768049716
0.0547123700380325
0.054432988166809
0.0533702597022056
0.0513956882059574
0.0484512671828269
0.0445647314190864
0.0398514457046985
0.0345047712326049
0.0287754815071821
0.0229440871626138
0.0172906313091516
0.0120646562427282
0.0074592647142708
0.0035936012864112
0.0005066704470664
-0.0018366067670285
-0.0035301526077091
-0.0047061000950634
-0.005510976538062
-0.006081991828978
-0.0065278401598334
-0.006918080151081
-0.0072823627851903
-0.0076170139946043
-0.007896551862359
-0.0080874320119619
-0.0081595927476882
-0.0080944215878844
-0.0078902347013354
-0.0075641814619302
-0.0071488702669739
-0.0066842101514339
-0.0062072738073766
-0.0057436544448137
-0.0053024804219603
-0.0048755761235952
-0.0044402969069778
-0.0039673675782978
-0.0034363660961389
-0.0028560142964124
-0.0022809337824583
-0.0018176985904574
-0.0016157962381839
-0.0018429541960358
-0.0026520425453782
-0.0041508935391902
-0.0063798194751143
-0.009296691045165
-0.0127732772380113
-0.0166070312261581
-0.0205460917204618
-0.0243199598044157
-0.0276696290820837
-0.0303752925246953
-0.0322795137763023
-0.0333023965358734
-0.0334471575915813
-0.0327954143285751
-0.0314913131296634
-0.0297159943729639
-0.0276585649698972
-0.025490716099739
-0.0233476739376783
-0.021316535770893
-0.019433706998825
-0.0176913999021053
-0.0160513613373041
-0.0144629292190074
-0.012880640104413
-0.0112770367413759
-0.0096489703282713
-0.0080163842067122
-0.006413584575057
-0.0048763118684291
-0.0034296764060854
-0.0020808146800845
-0.0008174311369657
0.0003876476548612
0.0015658624470233
0.0027371700853109
0.0038910815492272
0.0049701714888215
0.0058650868013501
0.0064260521903634
0.0064888214692473
0.0059084831736981
0.0045925434678792
0.0025258848909288
-0.0002176396083086
-0.003478946397081
-0.0070302775129675
-0.0106004597619175
-0.0139049533754587
-0.0166774429380893
-0.0187009125947952
-0.0198340117931365
-0.020025810226798
-0.0193159114569425
-0.0178229641169309
-0.0157246515154838
-0.0132310111075639
-0.0105538666248321
-0.0078769251704216
-0.0053336368873715
-0.0029980642721056
-0.0008877646178007
0.0010253633372485
0.0027995659038424
0.0045053553767502
0.0062073883600533
0.007949324324727
0.0097453529015183
0.0115804122760891
0.0134180253371596
0.0152124091982841
0.0169205293059349
0.0185105055570602
0.0199658386409282
0.0212855897843837
0.0224774666130542
0.023540373891592
0.0244400426745414
0.0250913985073566
0.0253599621355533
0.0250824782997369
0.0240996591746807
0.0222922191023826
0.0196113511919975
0.0160985179245471
0.0118917915970087
0.0072164530865848
0.0023612193763256
-0.0023556258529424
-0.0066247973591089
-0.0101822419092059
-0.0128374528139829
-0.0144917517900466
-0.0151446051895618
-0.0148860849440097
-0.0138757731765508
-0.01231175288558
-0.0103987231850624
-0.0083232782781124
-0.0062365275807678
-0.0042430767789483
-0.0023981193080544
-0.0007130713202059
0.0008318605832755
0.0022718682885169
0.0036429681349545
0.0049713519401848
0.0062684132717549
0.0075325891375541
0.0087558552622795
0.0099303061142563
0.0110526932403445
0.012127636000514
0.0131696546450257
0.0142017183825373
0.0152484681457281
0.0163261611014604
0.0174311473965644
0.0185261312872171
0.0195261240005493
0.0202914159744977
0.0206363350152969
0.0203566644340753
0.0192701872438192
0.0172583200037479
0.0142954336479306
0.0104605248197913
0.0059335501864552
0.0009770866017788
-0.0040960954502224
-0.0089633995667099
-0.013331756927073
-0.0169685073196887
-0.0197204537689685
-0.0215210411697626
-0.0223855748772621
-0.0223958976566791
-0.0216791946440935
-0.0203855168074369
-0.0186673048883676
-0.0166644286364316
-0.0144966254010796
-0.0122614232823252
-0.0100342854857444
-0.0078701637685298
-0.0058075911365449
-0.0038742532487958
-0.0020905239507555
-0.0004694556409958
0.0009855147218331
0.0022843913175165
0.0034546623937785
0.0045414590276777
0.0056011569686234
0.0066908812150359
0.0078586265444755
0.0091360127553343
0.0105324378237128
0.0120299430564045
0.0135800456628203
0.0151021182537078
0.0164809636771678
0.017566105350852
0.0181808993220329
0.0181458853185176
0.0173109751194715
0.0155860753729939
0.0129621550440788
0.0095188152045011
0.0054178675636649
0.0008840318769216
-0.0038238265551626
-0.0084431869909167
-0.0127328000962734
-0.016490064561367
-0.0195617042481899
-0.0218481980264186
-0.0233024284243583
-0.0239242948591709
-0.0237539187073707
-0.022864993661642
-0.0213575754314661
-0.0193506740033626
-0.0169767402112483
-0.0143773537129163
-0.0116971749812364
-0.0090748667716979
-0.0066319964826107
-0.0044614607468247
-0.002617232967168
-0.0011087083257734
9.88536048680544e-05
0.0010787351056933
0.0019307783804833
0.0027629004325717
0.003671636339277
0.0047278851270675
0.0059692813083529
0.0073969247750937
0.0089752981439232
0.01063690520823
0.0122929047793149
0.0138478288426995
0.0152131114155054
0.0163134261965751
0.0170831996947526
0.0174582153558731
0.0173716694116592
0.0167589411139488
0.0155680701136589
0.0137712797150015
0.0113746915012598
0.008425255306065
0.0050140181556344
0.001273333095014
-0.0026325080543756
-0.0065197958610951
-0.0101978480815887
-0.0134815638884902
-0.0162047185003757
-0.0182330161333084
-0.01947583258152
-0.0198954790830612
-0.019512590020895
-0.0184063613414764
-0.0167088434100151
-0.0145928394049406
-0.0122529957443475
-0.0098818149417638
-0.0076454333029687
-0.0056641367264091
-0.0040013371035456
-0.0026624186430126
-0.0016019199974834
-0.0007373881526291
3.1649600714445114e-05
0.0008039502426981
0.0016599101945757
0.0026483507826924
0.003778554033488
0.0050209276378154
0.0063164988532662
0.007592546287924
0.0087790768593549
0.0098207164555788
0.010682363063097
0.0113482540473341
0.0118135195225477
0.0120698614045977
0.0120922159403562
0.0118342787027359
0.011234444566071
0.0102277062833309
0.0087601160630583
0.006804752163589
0.0043749315664172
0.0015301071107387
-0.0016248449683189
-0.0049460842274129
-0.008263811469078
-0.0114000178873538
-0.0141866356134414
-0.0164803713560104
-0.0181737057864666
-0.0192033648490905
-0.019555240869522
-0.0192631259560585
-0.0184019096195697
-0.017077948898077
-0.0154165523126721
-0.013547008857131
-0.0115892523899674
-0.0096453931182622
-0.0077946363016963
-0.0060889506712555
-0.0045511438511312
-0.0031778838019818
-0.0019466344965621
-0.0008239281596615
0.000227054930292
0.0012402853462845
0.0022425218485295
0.0032513667829334
0.0042746746912598
0.005310398992151
0.0063477023504674
0.0073696430772542
0.0083572026342153
0.0092936297878623
0.0101655861362814
0.0109580848366022
0.0116444388404488
0.012176152318716
0.0124784456565976
0.0124553740024566
0.0120048075914382
0.0110393119975924
0.0095074260607361
0.0074103865772485
0.0048099397681653
0.0018246287945657
-0.0013834648998454
-0.0046266983263194
-0.0077114859595894
-0.0104577913880348
-0.0127172917127609
-0.0143881291151046
-0.0154214482754468
-0.0158185753971338
-0.0156232574954628
-0.0149123836308717
-0.0137862563133239
-0.0123575162142515
-0.0107380496338009
-0.0090276952832937
-0.0073079741559922
-0.0056393481791019
-0.004060604609549
-0.002589986892417
-0.001227781875059
3.866571933031082e-05
0.0012281439267098
0.0023602300789207
0.0034528432879596
0.0045206490904092
0.0055727208964526
0.0066115418449044
0.007634887471795
0.0086381081491708
0.0096150022000074
0.0105584245175123
0.0114614712074399
0.0123184770345687
0.013124780729413
0.0138746853917837
0.0145568624138832
0.0151465106755495
0.0155959222465753
0.0158284157514572
0.0157425142824649
0.015229295939207
0.0141973793506622
0.0125960428267717
0.0104296207427978
0.0077613554894924
0.004708357155323
0.0014294859720394
-0.0018923046300187
-0.0050697955302894
-0.0079297693446278
-0.010327897965908
-0.0121601847931742
-0.0133710233494639
-0.0139560177922248
-0.0139572443440556
-0.0134518006816506
-0.012538100592792
-0.0113234734162688
-0.0099138021469116
-0.0084059396758675
-0.006882220506668
-0.0054051559418439
-0.0040138103067874
-0.0027251467108726
-0.0015391351189464
-0.0004436713643372
0.0005813585594296
0.001559906406328
0.0025161404628306
0.0034715784713625
0.0044414517469704
0.0054312073625624
0.00643672933802
0.0074478695169091
0.0084514711052179
0.009432703256607
0.0103762988001108
0.0112685933709144
0.0120994122698903
0.0128615945577621
0.0135450726374983
0.0141253760084509
0.0145528921857476
0.0147500522434711
0.0146185448393225
0.0140550639480352
0.0129721751436591
0.0113189918920397
0.0090964399278163
0.0063633732497692
0.0032319813035428
-0.0001450437121093
-0.003591256448999
-0.0069247763603925
-0.0099759250879287
-0.0126010831445455
-0.0146920476108789
-0.0161820333451032
-0.017048330977559
-0.0173102505505085
-0.0170222204178571
-0.0162644386291503
-0.0151328956708312
-0.0137295732274651
-0.012153928168118
-0.0104954224079847
-0.0088278176262974
-0.00720721995458
-0.0056717940606176
-0.0042408164590597
-0.002916224533692
-0.0016883632633835
-0.0005422817775979
0.0005373299354687
0.0015628088731318
0.002544208895415
0.0034918377641588
0.0044152531772851
0.0053203962743282
0.0062092756852507
0.00708131166175
0.0079339928925037
0.0087631791830062
0.0095636788755655
0.0103293880820274
0.0110517842695117
0.011715454980731
0.0122900493443012
0.0127215599641203
0.0129297384992241
0.0128156207501888
0.0122773991897702
0.0112308198586106
0.0096283853054046
0.0074721914716064
0.0048197829164564
0.0017830994911491
-0.0014819032512605
-0.0047948583960533
-0.0079735741019248
-0.0108530633151531
-0.0132990721613168
-0.0152158718556165
-0.016549089923501
-0.0172861330211162
-0.0174549333751201
-0.017119200900197
-0.0163686517626047
-0.0153056625276803
-0.0140336919575929
-0.0126496916636824
-0.011236872524023
-0.0098577616736292
-0.0085515994578599
-0.0073362314142286
-0.0062117725610733
-0.0051648262888193
-0.0041734809055924
-0.003212708979845
-0.0022589655127376
-0.0012938936706632
-0.0003070584498345
0.0007035494199953
0.0017327455570921
0.0027699552010744
0.0038015488535165
0.004813402891159
0.0057934429496526
0.0067325769923627
0.0076220873743295
0.0084479264914989
0.0091824075207114
0.0097759943455457
0.0101556396111845
0.0102325221523642
0.0099159553647041
0.0091304183006286
0.0078339064493775
0.0060320775955915
0.0037827847991138
0.0011919772950932
-0.0015961299650371
-0.0044140177778899
-0.0070895436219871
-0.0094644920900464
-0.0114091169089078
-0.0128317214548587
-0.0136839048936963
-0.0139608969911932
-0.0136974155902862
-0.0129613792523741
-0.0118457684293389
-0.0104575343430042
-0.0089054629206657
-0.0072900634258985
-0.0056955586187541
-0.0041834921576082
-0.002789459656924
-0.0015236786566674
-0.0003747977316379
0.0006832238286733
0.001682267524302
0.0026522227562963
0.0036169446539133
0.0045930100604891
0.0055883112363517
0.0066008088178932
0.0076193185523152
0.0086263520643115
0.0096025867387652
0.0105319283902645
0.0114042581990361
0.0122145824134349
0.0129614397883415
0.0136454850435256
0.0142650110647082
0.0148071264848113
0.0152375362813472
0.0154938288033008
0.0154865281656384
0.0151096824556589
0.014258706010878
0.0128513192757964
0.0108480490744113
0.0082674520090222
0.0051912548951804
0.0017577914986759
-0.0018548681400716
-0.0054507437162101
-0.0088368570432066
-0.0118421101942658
-0.0143323168158531
-0.016217403113842
-0.0174522548913955
-0.0180347822606563
-0.0180017054080963
-0.0174223724752664
-0.0163908824324607
-0.0150160072371363
-0.0134099423885345
-0.0116781163960695
-0.0099120177328586
-0.0081841461360454
-0.0065430924296379
-0.0050113564357161
-0.0035887183621525
-0.0022588791325688
-0.0009967316873371
0.0002247053198516
0.0014288206584751
0.0026320139877498
0.0038426788523793
0.0050626574084162
0.0062893852591514
0.0075165620073676
0.0087340585887432
0.0099288094788789
0.0110863205045461
0.0121922679245471
0.0132336672395467
0.014197539538145
0.0150649966672062
0.015801029279828
0.0163450203835964
0.0166080500930547
0.0164795871824026
0.0158448070287704
0.0146097233518958
0.0127255488187074
0.0102049531415104
0.0071271359920501
0.0036311489529907
-0.0001004944206215
-0.0038631467614322
-0.0074507873505353
-0.0106732957065105
-0.0133705316111445
-0.0154243856668472
-0.0167677160352468
-0.01738703250885
-0.017318682745099
-0.0166414305567741
-0.0154670355841517
-0.0139285661280155
-0.0121656516566872
-0.0103076444938778
-0.0084595587104558
-0.006695554126054
-0.0050588794983923
-0.0035646352916955
-0.002205123193562
-0.0009572142735123
0.0002110097557306
0.0013338823337107
0.0024413419887423
0.0035544466227293
0.0046845837496221
0.0058348104357719
0.0070011001080274
0.008173412643373
0.0093389535322785
0.0104863410815596
0.0116060273721814
0.0126870088279247
0.0137144159525632
0.0146699361503124
0.0155313853174448
0.0162667445838451
0.0168237723410129
0.0171229504048824
0.0170611850917339
0.0165264215320348
0.0154188442975282
0.0136740077286958
0.0112814949825406
0.0082936519756913
0.0048235086724162
0.001033789711073
-0.0028803362511098
-0.0067111002281308
-0.010257295332849
-0.0133418021723628
-0.0158264711499214
-0.0176221039146184
-0.018692024052143
-0.0190499182790517
-0.0187544096261262
-0.0179010480642318
-0.016610600054264
-0.0150154316797852
-0.0132464449852705
-0.0114210015162825
-0.0096331005915999
-0.0079469382762908
-0.0063950670883059
-0.0049825147725641
-0.0036940302234143
-0.0025009107775986
-0.0013685463927686
-0.000264304166194
0.0008380848448723
0.0019564956892281
0.0030979760922491
0.0042587374337017
0.0054275444708764
0.0065891882404685
0.0077271815389394
0.0088262148201465
0.0098735550418496
0.0108588598668575
0.0117724128067493
0.0126018477603793
0.0133271366357803
0.0139132170006632
0.0143022099509835
0.0144104864448308
0.0141350338235497
0.0133701870217919
0.0120311863720417
0.0100768422707915
0.0075241508893668
0.0044530211016535
0.0010022148489952
-0.0026438096538186
-0.006276685744524
-0.0096884462982416
-0.0126925706863403
-0.0151412356644868
-0.0169370975345373
-0.0180377922952175
-0.0184546131640672
-0.0182455759495496
-0.01750373467803
-0.0163448005914688
-0.0148952808231115
-0.0132799670100212
-0.0116104315966367
-0.0099767474457621
-0.0084422510117292
-0.0070405574515461
-0.0057764640077948
-0.0046326182782649
-0.0035787196829915
-0.0025785185862332
-0.0015943759353831
-0.0005919951363466
0.0004535249900072
0.0015532299876213
0.0027047023177146
0.0038954396732151
0.0051061832346022
0.0063145998865365
0.0074990852735936
0.0086403284221887
0.0097207129001617
0.010721412487328
0.0116147063672542
0.0123540889471769
0.0128690032288432
0.0130673758685588
0.0128460489213466
0.0121093690395355
0.0107927042990922
0.0088813360780477
0.0064182817004621
0.003502657637
0.0002804198302328
-0.0030711919534951
-0.00636244751513
-0.0094107398763298
-0.0120580643415451
-0.0141830248758196
-0.0157073400914669
-0.0165977384895086
-0.0168634206056594
-0.0165516138076782
-0.0157420225441455
-0.0145367691293358
-0.0130465170368552
-0.0113786915317177
-0.0096297143027186
-0.0078790951520204
-0.0061852475628256
-0.0045841042883694
-0.003090470097959
-0.001701729837805
-0.0004037499893456
0.0008222111500799
0.0019941374193876
0.0031266752630472
0.0042302659712731
0.0053112222813069
0.0063725942745804
0.0074151419103145
0.0084378346800804
0.009438008069992
0.0104116722941398
0.0113533679395914
0.0122547419741749
0.0131033742800354
0.0138834472745656
0.0145746171474456
0.015144670382142
0.0155406314879655
0.0156864766031503
0.0154878944158554
0.0148419309407472
0.0136535186320543
0.0118578486144542
0.0094406940042972
0.0064497743733227
0.002995372749865
-0.0007591024041175
-0.0046146111562848
-0.0083590289577841
-0.0117901163175702
-0.0147338453680276
-0.0170570015907287
-0.0186761450022459
-0.0195628888905048
-0.0197432786226272
-0.0192907247692346
-0.0183131620287895
-0.0169363114982843
-0.0152885084971785
-0.0134904496371746
-0.0116477096453309
-0.009844422340393
-0.0081386622041463
-0.0065611796453595
-0.0051183141767978
-0.0037972738500684
-0.002572861732915
-0.0014147456968203
-0.0002930324408225
0.0008179489523172
0.0019372538663446
0.0030767568387091
0.0042411596514284
0.0054266960360109
0.0066200466826558
0.0078004300594329
0.008943997323513
0.0100283045321702
0.0110360858961939
0.011956169269979
0.0127784851938486
0.0134839182719588
0.0140343345701694
0.0143683915957808
0.0144059611484408
0.0140606276690959
0.0132564976811409
0.0119445165619254
0.0101151969283819
0.0078063560649752
0.0051045026630163
0.0021380055695772
-0.0009371796622872
-0.0039549437351524
-0.0067557077854871
-0.0092004323378205
-0.0111810797825455
-0.0126269273459911
-0.0135067645460367
-0.0138284200802445
-0.0136356428265571
-0.0130009604617953
-0.0120158167555928
-0.0107806241139769
-0.0093959728255867
-0.0079548126086592
-0.0065344553440809
-0.005189583171159
-0.0039499970152974
-0.0028237344231456
-0.0018021907890215
-0.0008651973912492
1.352047547698021e-05
0.0008613170357421
0.0017027606954798
0.0025556390173733
0.0034275578800588
0.0043161320500075
0.0052126105874776
0.0061055528931319
0.0069828662090003
0.0078330701217055
0.0086460746824741
0.0094128893688321
0.0101251164451241
0.010773753747344
0.0113438628613948
0.0118053741753101
0.0121067501604557
0.0121765760704875
0.0119324373081326
0.0112951714545488
0.0102061470970511
0.0086433589458465
0.0066312057897448
0.0042409533634781
0.0015833741053938
-0.0012035237159579
-0.0039697899483144
-0.00656917411834
-0.008872540667653
-0.0107777202501893
-0.0122148841619491
-0.0131486384198069
-0.0135787660256028
-0.0135390013456344
-0.0130921965464949
-0.0123219285160303
-0.0113214803859591
-0.010181313380599
-0.0089785140007734
-0.0077717639505863
-0.0066013867035508
-0.0054914532229304
-0.0044518420472741
-0.0034802909940481
-0.0025654311757534
-0.0016911167185753
-0.0008409328293055
-1.5618570614606142e-06
0.0008355226600542
0.0016742295119911
0.0025152524467557
0.0033569287043064
0.0041951900348067
0.0050242156721651
0.0058378065004944
0.0066297859884798
0.0073933191597461
0.0081200627610087
0.0087976912036538
0.0094034373760223
0.0098957596346735
0.0102107040584087
0.0102679869160056
0.0099850492551922
0.0092930682003498
0.0081508746370673
0.0065550031140446
0.0045443326234817
0.002198411617428
-0.0003704249393194
-0.0030296363402158
-0.005640254355967
-0.0080685932189226
-0.0101964278146624
-0.0119310449808835
-0.0132123474031686
-0.0140141583979129
-0.0143419150263071
-0.0142294513061642
-0.0137343658134341
-0.0129310134798288
-0.0119008645415306
-0.010722778737545
-0.009467177093029
-0.0081927496939897
-0.0069425138644874
-0.0057412199676036
-0.0045966957695782
-0.0035034380853176
-0.0024472863879054
-0.0014116287929937
-0.0003826038446277
0.0006484788609668
0.001684246934019
0.0027219874318689
0.0037545929662883
0.0047700656577944
0.0057529490441083
0.0066891526803374
0.0075701558962464
0.0083935922011733
0.0091609414666891
0.0098743019625544
0.0105320028960704
0.0111222118139266
0.0116165708750486
0.0119666997343301
0.0121054416522383
0.0119542311877012
0.011435835622251
0.0104887224733829
0.0090795774012804
0.0072124213911592
0.0049324468709528
0.0023240365553647
-0.0004956218181177
-0.0033875363878905
-0.006205219309777
-0.0088083697482943
-0.0110745513811707
-0.0129085760563611
-0.0142484745010733
-0.0150681473314762
-0.015376660041511
-0.01521354354918
-0.0146416891366243
-0.013739819638431
-0.0125941447913646
-0.0112896785140037
-0.0099033387377858
-0.0084987692534923
-0.0071215452626347
-0.0057965693995356
-0.0045301979407668
-0.0033159186132252
-0.002140917815268
-0.0009911721572279
0.0001459335908293
0.0012799510732293
0.0024157194420695
0.0035530726891011
0.0046886019408702
0.0058176117017865
0.0069341878406703
0.0080303084105253
0.0090960152447223
0.0101203862577676
0.0110925612971186
0.0120020098984241
0.0128362718969583
0.0135751217603683
0.0141825508326292
0.0146015752106904
0.0147570334374904
0.014566671103239
0.0139566622674465
0.0128765478730201
0.0113101080060005
0.0092815412208437
0.0068566938862204
0.0041381139308214
0.0012551194522529
-0.0016481195343658
-0.0044260355643928
-0.0069457981735467
-0.0090984022244811
-0.0108052911236882
-0.0120222959667444
-0.0127405188977718
-0.0129823749884963
-0.0127947013825178
-0.0122416587546467
-0.0113974204286932
-0.0103385876864194
-0.0091367084532976
-0.007852136157453
-0.0065318229608237
-0.0052111307159066
-0.0039167362265288
-0.0026680878363549
-0.0014774119481444
-0.0003496916033327
0.000716564245522
0.0017278213053941
0.0026937581133097
0.0036251889541745
0.0045318650081753
0.0054209204390645
0.0062963557429611
0.007159486413002
0.0080095678567886
0.0088435616344213
0.0096532627940177
0.0104184187948703
0.0110985524952411
0.0116286240518093
0.0119225326925516
0.0118854483589529
0.011431592516601
0.0105011463165283
0.0090711759403347
0.0071608638390898
0.0048341462388634
0.0021979489829391
-0.0006075487472116
-0.0034243264235556
-0.0060928361490368
-0.0084667978808283
-0.0104258367791771
-0.0118849724531173
-0.0127998264506459
-0.0131672983989119
-0.0130217401310801
-0.0124277975410223
-0.0114715136587619
-0.0102500664070248
-0.0088611636310815
-0.0073941396549344
-0.0059230993501842
-0.004501839634031
-0.0031627481803297
-0.0019208583980798
-0.0007792934775352
0.0002671908587217
0.0012298715300858
0.0021247332915663
0.0029719057492911
0.003793969983235
0.0046126926317811
0.005445709452033
0.0063041625544428
0.0071910331025719
0.0081002553924918
0.0090179983526468
0.009925739839673
0.010800551623106
0.0116094220429658
0.0123014785349369
0.0128037175163626
0.013022156432271
0.0128504280000925
0.012187710031867
0.0109618157148361
0.0091484794393181
0.0067801000550389
0.0039431317709386
0.0007677435642108
-0.0025863151531666
-0.0059453630819916
-0.009137368761003
-0.0120060704648494
-0.014422882348299
-0.0162948817014694
-0.0175673551857471
-0.0182233527302742
-0.0182833317667245
-0.0178026407957077
-0.0168636571615934
-0.0155652137473225
-0.0140124531462788
-0.0123061621561646
-0.0105333710089325
-0.0087620979174971
-0.0070394142530858
-0.0053914184682071
-0.0038250903598964
-0.0023333877325057
-0.000902472063899
0.0004828758537769
0.0018367995508015
0.0031718923710286
0.0044981823302805
0.0058197313919663
0.0071321516297757
0.0084246862679719
0.0096841668710112
0.0108970664441585
0.0120510747656226
0.0131366569548845
0.0141448061913251
0.0150591488927602
0.0158447064459323
0.0164381228387355
0.0167455971240997
0.0166527424007654
0.0160448644310235
0.0148319210857152
0.0129711600020527
0.0104807745665311
0.0074414797127246
0.003987434785813
0.0002908334718085
-0.0034554102458059
-0.0070557366125285
-0.0103296386078
-0.0131252333521842
-0.0153281474485993
-0.0168682318180799
-0.0177233703434467
-0.0179173238575458
-0.0175115168094635
-0.01659382507205
-0.0152674196287989
-0.0136419367045164
-0.0118268467485904
-0.0099246688187122
-0.008023870177567
-0.0061925491318106
-0.0044731106609106
-0.0028805364854633
-0.0014070691540837
-3.0021648854017258e-05
0.0012815401423722
0.0025605126284062
0.0038357099983841
0.0051281554624438
0.0064491052180528
0.007798682898283
0.0091668628156185
0.010537089779973
0.0118896309286355
0.0132031682878732
0.0144553845748305
0.0156219396740198
0.0166713446378707
0.0175551231950521
0.0181990340352058
0.0185039564967155
0.0183590315282344
0.017662338912487
0.0163414776325225
0.0143690472468733
0.0117724668234586
0.0086372550576925
0.0051014814525842
0.0013407235965132
-0.0024524375330656
-0.0060878079384565
-0.0093925613909959
-0.0122218765318393
-0.0144668342545628
-0.0160610880702734
-0.0169844273477792
-0.0172598250210285
-0.0169452298432588
-0.0161244366317987
-0.0148981288075447
-0.0133745092898607
-0.0116602750495076
-0.0098527632653713
-0.0080335726961493
-0.0062646078877151
-0.0045869806781411
-0.0030217731837183
-0.001572378561832
-0.0002277999301441
0.0010334423277527
0.0022377457935363
0.0034100890625268
0.004569272045046
0.0057251355610787
0.0068771596997976
0.0080157313495874
0.0091262301430106
0.0101929930970072
0.0112017448991537
0.0121403457596898
0.0129966549575328
0.0137514257803559
0.0143661294132471
0.014772929251194
0.0148754930123686
0.0145626673474907
0.0137314088642597
0.0123109836131334
0.0102809350937604
0.0076799159869551
0.0046043219044804
0.0011978475376963
-0.0023638382554054
-0.0058905677869915
-0.0091959116980433
-0.0121132368221879
-0.0145082157105207
-0.016288349404931
-0.01740856282413
-0.0178720988333225
-0.017726756632328
-0.0170566756278276
-0.0159713290631771
-0.0145926177501678
-0.0130405817180871
-0.0114211533218622
-0.0098191443830728
-0.0082959774881601
-0.006889471784234
-0.0056143999099731
-0.0044661513529717
-0.0034277043305337
-0.0024754486512392
-0.0015823040157556
-0.0007206024602055
0.0001346310600638
0.0010028635151684
0.0018958542495965
0.0028166440315544
0.0037608123384416
0.0047192559577524
0.0056791007518768
0.0066203726455569
0.0075093866325914
0.0082918182015419
0.0088894199579954
0.0092047862708568
0.0091360015794634
0.0085965152829885
0.007533645723015
0.0059421267360448
0.0038695633411407
0.0014134589582681
-0.001287524588406
-0.0040679825469851
-0.0067550772801041
-0.0091875521466135
-0.0112301930785179
-0.0127840712666511
-0.0137930735945701
-0.0142446514219045
-0.014165224507451
-0.0136138955131173
-0.012675367295742
-0.0114510469138622
-0.0100485701113939
-0.0085698775947093
-0.0071000736206769
-0.0057007567957043
-0.0044080899097025
-0.0032343608327209
-0.0021724901162087
-0.0012022431474179
-0.0002963875886052
0.0005738572217524
0.001433975296095
0.0023026240523904
0.0031899628229439
0.004097388125956
0.0050185676664114
0.0059421388432383
0.0068554151803255
0.0077469442039728
0.0086066843941807
0.0094245169311761
0.0101873334497213
0.0108735244721174
0.0114445621147751
0.0118374023586511
0.0119646927341818
0.011726651340723
0.0110314032062888
0.0098167555406689
0.0080664008855819
0.0058165425434708
0.0031536594033241
0.0002053966745734
-0.0028740409761667
-0.0059211174957454
-0.0087788291275501
-0.0113091748207807
-0.0134027227759361
-0.0149852354079484
-0.0160195305943489
-0.0165032353252172
-0.0164657961577177
-0.015964850783348
-0.0150793716311454
-0.0138995107263326
-0.0125161642208695
-0.0110130663961172
-0.0094611542299389
-0.00791503675282
-0.0064131165854632
-0.0049797212705016
-0.0036260487977415
-0.0023506074212491
-0.0011415592161938
1.8554506823420525e-05
0.0011471974430605
0.0022577499039471
0.0033586004283279
0.0044541163370013
0.0055450294166803
0.0066292188130319
0.0077042481862008
0.0087679456919431
0.0098147224634885
0.0108316019177436
0.0117955338209867
0.012669226154685
0.0133963599801063
0.0139000006020069
0.0140878288075327
0.0138670094311237
0.0131647381931543
0.011945036239922
0.0102173071354627
0.0080375391989946
0.0055027958005666
0.0027402162086218
-0.0001062583178281
-0.0028887223452329
-0.0054672029800713
-0.0077206469140946
-0.0095551749691367
-0.0109086195006966
-0.0117532676085829
-0.0120962932705879
-0.011975422501564
-0.0114514399319887
-0.0106004038825631
-0.0095062963664531
-0.00825403816998
-0.0069229048676788
-0.0055806664749979
-0.0042780488729476
-0.0030443563591688
-0.0018876828253269
-0.0008002812974154
0.0002345042303204
0.0012358729727566
0.0022203144617378
0.0031990534625947
0.0041784071363508
0.005161172710359
0.0061472379602491
0.0071325651369988
0.0081080915406346
0.0090613383799791
0.0099793029949069
0.0108494535088539
0.0116595448926091
0.012395579367876
0.013034775853157
0.0135354911908507
0.0138315437361598
0.0138374827802181
0.0134647702798247
0.0126424711197614
0.0113345524296164
0.0095492899417877
0.0073415259830653
0.0048090498894453
0.002082853578031
-0.0006870843935757
-0.0033481521531939
-0.0057608922943472
-0.0078111561015248
-0.0094182984903454
-0.010539861395955
-0.011171730235219
-0.0113437995314598
-0.0111124943941831
-0.010551581159234
-0.0097427405416965
-0.0087668672204017
-0.0076972087845206
-0.0065953829325735
-0.0055095562711358
-0.0044738296419382
-0.0035085345152765
-0.0026215512771159
-0.0018108139047399
-0.0010668509639799
-0.0003754063509404
0.0002791072474792
0.0009110057726502
0.0015326414722949
0.0021543866023421
0.0027842104900628
0.0034266868606209
0.0040818220004439
0.0047451900318264
0.0054096011444926
0.0060640224255621
0.0066862534731626
0.0072330813854932
0.0076361610554158
0.0078086610883474
0.0076604331843554
0.0071162586100399
0.0061324122361838
0.0047072279267013
0.0028837621212005
0.00074593804311
-0.0015901618171483
-0.0039883591234683
-0.006305934395641
-0.0084068672731518
-0.0101741235703229
-0.0115207144990563
-0.0123963765799999
-0.0127876820042729
-0.0127147426828742
-0.0122275920584797
-0.0114008001983165
-0.010324110276997
-0.0090908631682395
-0.0077874604612588
-0.0064852060750126
-0.0052363416180014
-0.0040741553530097
-0.0030132425017654
-0.002049925038591
-0.0011667546350508
-0.0003397038672119
0.0004561166279017
0.0012423895532265
0.0020346995443105
0.0028410714585334
0.0036614751443266
0.0044894204474985
0.0053157219663262
0.0061312969774007
0.0069277104921638
0.0076965615153312
0.0084272921085357
0.0091021060943603
0.009688445366919
0.0101319346576929
0.0103553663939237
0.0102685149759054
0.0097867418080568
0.0088514667004346
0.0074461125768721
0.0056033609434962
0.0034030706156045
0.0009625382372178
-0.0015785805881023
-0.0040746931917965
-0.0063885282725095
-0.0084028393030166
-0.0100294183939695
-0.0112139992415905
-0.0119368163868784
-0.0122100571170449
-0.0120732877403497
-0.011587037704885
-0.0108249252662062
-0.0098654329776763
-0.0087837092578411
-0.007644276600331
-0.0064967721700668
-0.0053744320757687
-0.0042934445664286
-0.0032539190724492
-0.0022443626075983
-0.0012487121857702
-0.0002524382434785
0.0007547289133071
0.0017786368262022
0.0028204398695379
0.0038756080903112
0.0049340818077325
0.0059819924645125
0.0070039769634604
0.0079857409000396
0.0089163873344659
0.0097893560305237
0.0106008891016244
0.0113446461036801
0.0120019428431987
0.0125317461788654
0.0128663619980216
0.0129156783223152
0.012580981478095
0.0117762116715312
0.0104497009888291
0.0085984589532017
0.0062722074799239
0.0035699373111128
0.0006305041024461
-0.0023832307197153
-0.0053035672754049
-0.0079747475683689
-0.0102655589580535
-0.0120793804526329
-0.0133605413138866
-0.0140946321189403
-0.0143037009984254
-0.0140389977023005
-0.0133729493245482
-0.0123907011002302
-0.0111817549914121
-0.0098326308652758
-0.0084198703989386
-0.0070032575167715
-0.0056220884434878
-0.0042968154884874
-0.0030340487137436
-0.001830733846873
-0.0006768535822629
0.0004420201294124
0.0015425262972712
0.0026405146345496
0.0037469221279025
0.0048657967709004
0.0059950654394924
0.0071276151575148
0.0082520525902509
0.0093539506196975
0.010418351739645
0.01143229752779
0.0123844891786575
0.013261373154819
0.0140401571989059
0.0146789886057376
0.0151093006134033
0.0152385802939534
0.0149655770510435
0.0142026040703058
0.0128966271877288
0.0110425511375069
0.008687705732882
0.0059288945049047
0.0029023645911365
-0.0002313964068889
-0.0033041795250028
-0.0061553078703582
-0.008644925430417
-0.0106650004163384
-0.0121467486023902
-0.0130624137818813
-0.0134221734479069
-0.0132697215303778
-0.0126766813918948
-0.011733615770936
-0.010539211332798
-0.0091903358697891
-0.0077730729244649
-0.0063557750545442
-0.0049859727732837
-0.0036910842172801
-0.0024817765224725
-0.0013561770319938
-0.0003039601724594
0.0006894890684634
0.0016402077162638
0.0025644400157034
0.0034769785124808
0.0043889051303267
0.0053066257387399
0.0062325494363904
0.0071654799394309
0.008099528029561
0.0090235183015465
0.0099229328334331
0.0107825715094804
0.0115856993943452
0.0123074445873498
0.0129048181697726
0.0133098000660538
0.0134315676987171
0.0131685407832264
0.0124269807711243
0.0111417127773165
0.009293271228671
0.0069174850359559
0.0041062091477215
0.0009974301792681
-0.0022431020624935
-0.0054410709999501
-0.0084295328706502
-0.0110615668818354
-0.0132193714380264
-0.014820591546595
-0.0158226490020751
-0.0162244252860546
-0.0160641185939311
-0.0154129210859537
-0.014365785755217
-0.0130307897925376
-0.0115184532478451
-0.0099322088062763
-0.0083603197708725
-0.0068705426529049
-0.0055085374042391
-0.0042968825437128
-0.0032338974997401
-0.0022970724385231
-0.001451626420021
-0.0006594568258151
0.0001144151319749
0.0008978588157333
0.0017090458422899
0.0025554290041327
0.0034350301139056
0.0043390477076172
0.0052549839019775
0.0061697377823293
0.0070693222805857
0.0079316385090351
0.0087146805599331
0.0093485973775386
0.0097386017441749
0.0097785275429487
0.009370107203722
0.0084427259862422
0.0069698742590844
0.00498001370579
0.0025593098253011
-0.0001563162077218
-0.002998367883265
-0.0057862875983119
-0.0083476342260837
-0.0105360876768827
-0.0122425453737378
-0.0133991092443466
-0.0139813171699643
-0.0140083376318216
-0.0135370194911956
-0.012651102617383
-0.0114496331661939
-0.0100357262417674
-0.0085065029561519
-0.0069457092322409
-0.0054186750203371
-0.0039694900624454
-0.0026207228656858
-0.0013755508698523
-0.0002234425337519
0.0008522818097844
0.001869713421911
0.0028459411114454
0.003793666139245
0.0047186631709337
0.005621591117233
0.0065022716298699
0.0073614153079688
0.0081990966573357
0.0090134786441922
0.0098007228225469
0.0105545623227953
0.0112661700695753
0.0119233764708042
0.0125049436464905
0.0129705108702182
0.0132534671574831
0.0132627934217453
0.0128945242613554
0.0120509406551718
0.0106633901596069
0.008711059577763
0.0062300623394548
0.0033121784217655
9.467033669352531e-05
-0.0032558678649365
-0.0065613510087132
-0.0096483156085014
-0.0123618729412555
-0.0145785175263881
-0.0162157416343688
-0.0172351188957691
-0.0176394153386354
-0.0174666903913021
-0.0167835690081119
-0.0156788360327482
-0.0142562203109264
-0.0126247256994247
-0.010888016782701
-0.0091355359181761
-0.0074369185604155
-0.0058398530818521
-0.0043705613352358
-0.0030359299853444
-0.0018264173995703
-0.0007201000116765
0.0003122863126918
0.0013025955995544
0.0022808704525232
0.0032714856788516
0.0042901029810309
0.005341219715774
0.0064172549173235
0.0075003271922469
0.0085674002766609
0.0095966281369328
0.0105694467201828
0.0114659033715724
0.0122558614239096
0.0128904227167367
0.0132989324629306
0.0133947115391492
0.0130870947614312
0.0122967213392257
0.0109731722623109
0.0091112107038497
0.0067584719508886
0.0040122522041201
0.0010092458687722
-0.0020889122970402
-0.0051125725731253
-0.0079009756445884
-0.0103176096454262
