bvp
-0.0273980032652616
-0.0236636511981487
-0.0201138779520988
-0.0168603342026472
-0.0139494910836219
-0.0113631198182702
-0.0090322494506835
-0.006862892769277
-0.0047586308792233
-0.0026335541624575
-0.0004201025003567
0.0019263389986008
0.0044252229854464
0.0070694340392947
0.0098266173154115
0.0126453451812267
0.0154636856168508
0.0182164218276739
0.0208402853459119
0.0232775174081325
0.0254797916859388
0.0274146404117345
0.0290678907185792
0.0304369069635868
0.0315237119793891
0.0323353186249733
0.0328849628567695
0.0331846363842487
0.0332247018814086
0.0329464301466941
0.0322221331298351
0.030857840552926
0.0286240838468074
0.0253059156239032
0.0207574963569641
0.014949457719922
0.0079978201538324
0.0001667644828557
-0.0081580439582467
-0.01652267947793
-0.0244679898023605
-0.0315829664468765
-0.0375409834086895
-0.0421189330518245
-0.0452029854059219
-0.0467854291200637
-0.0469535365700721
-0.0458727031946182
-0.043767474591732
-0.0408995971083641
-0.0375432148575782
-0.0339620187878608
-0.030389130115509
-0.0270068831741809
-0.0239315088838338
-0.0212107356637716
-0.0188323743641376
-0.0167381353676319
-0.0148386843502521
-0.0130269769579172
-0.0111914165318012
-0.0092303603887557
-0.0070643285289406
-0.0046430346556007
-0.0019493099534884
0.000998122151941
0.0041448595002293
0.0074065839871764
0.0106821907684206
0.0138712869957089
0.0168855860829353
0.0196512434631586
0.022110741585493
0.0242253374308347
0.0259697306901216
0.0273154843598604
0.0282082874327898
0.0285506080836057
0.0282007381319999
0.0269919969141483
0.024769190698862
0.0214323699474334
0.0169747546315193
0.0115049881860613
0.0052497331053018
-0.0014622383750975
-0.0082352748140692
-0.0146582704037427
-0.0203555934131145
-0.0250229202210903
-0.0284471046179533
-0.0305148735642433
-0.0312140453606843
-0.0306275282055139
-0.0289199650287628
-0.026319496333599
-0.0230958964675664
-0.0195363089442253
-0.0159201603382825
-0.0124924629926681
-0.0094374828040599
-0.0068597504869103
-0.0047804983332753
-0.0031510423868894
-0.0018739188089966
-0.0008232702966779
0.0001375162973999
0.0011405798140913
0.0022978638298809
0.0036857584491372
0.0053380555473268
0.0072494843043386
0.0093837464228272
0.011682515963912
0.0140745714306831
0.016483686864376
0.0188356973230838
0.0210640337318182
0.0231038704514503
0.0248669423162937
0.0262126214802265
0.0269405748695135
0.0268133617937564
0.0256013721227645
0.0231360625475645
0.0193560533225536
0.0143347773700952
0.0082846330478787
0.0015376434894278
-0.0054927645251154
-0.0123608605936169
-0.0186394583433866
-0.023962277919054
-0.0280504804104566
-0.0307280644774436
-0.0319332778453826
-0.0317190587520599
-0.0302360206842422
-0.0277065932750701
-0.0243985578417778
-0.0205987580120563
-0.0165889859199523
-0.012624810449779
-0.0089157177135348
-0.0056086564436554
-0.00277906563133
-0.0004310319200158
0.0014942316338419
0.003104199655354
0.0045369220897555
0.0059373299591243
0.0074296500533819
0.0090969176962971
0.0109761487692594
0.013064719736576
0.0153298573568463
0.0177181027829647
0.0201631840318441
0.0225927121937274
0.0249357633292675
0.0271290615200996
0.0291155166923999
0.0308311469852924
0.032182827591896
0.0330284237861633
0.0331752672791481
0.0324011035263538
0.0304900556802749
0.0272789113223552
0.022706439718604
0.0168486237525939
0.0099266683682799
0.002287907525897
-0.0056343879550695
-0.0133740156888961
-0.0204869844019413
-0.02659797295928
-0.0314294956624507
-0.0348128899931907
-0.036687858402729
-0.0370940640568733
-0.0361552760004997
-0.0340625718235969
-0.0310608241707086
-0.0274303220212459
-0.0234584715217351
-0.0194104723632335
-0.015507124364376
-0.0119093116372823
-0.0087091736495494
-0.0059294076636433
-0.0035311859101057
-0.0014301221817731
0.0004847086966037
0.0023329500108957
0.0042250216938555
0.0062467930838465
0.0084533113986253
0.0108678918331861
0.0134787922725081
0.0162371098995208
0.0190633870661258
0.0218624286353588
0.0245404057204723
0.0270178783684968
0.0292351357638835
0.0311482772231102
0.0327133983373642
0.0338592268526554
0.0344604477286338
0.0343319326639175
0.0332531705498695
0.0310155693441629
0.0274788103997707
0.0226171053946018
0.0165388081222772
0.0094812586903572
0.00179024040699
-0.0061150370165705
-0.0137879326939582
-0.0208013709634542
-0.0267903748899698
-0.0314852185547351
-0.0347279161214828
-0.0364715158939361
-0.0367689207196235
-0.0357576422393322
-0.0336417853832244
-0.0306703336536884
-0.0271133109927177
-0.0232412293553352
-0.0193094909191131
-0.0155408019199967
-0.0121036218479275
-0.0090957665815949
-0.0065399878658354
-0.0043913857080042
-0.0025541894137859
-0.0009038760326802
0.0006903535686433
0.0023472825996577
0.0041610631160438
0.0061920727603137
0.0084607591852545
0.0109482640400528
0.0136057306081056
0.0163657739758491
0.0191487241536378
0.0218665488064289
0.0244303345680236
0.0267603136599063
0.0287946630269289
0.0304943416267633
0.0318394489586353
0.0328121930360794
0.03336813300848
0.0334078632295131
0.0327663160860538
0.0312312692403793
0.0285892188549041
0.0246835183352231
0.0194658562541008
0.0130260400474071
0.0055921766906976
-0.002495159395039
-0.0108228465542197
-0.0189489368349313
-0.0264455899596214
-0.0329381972551345
-0.0381363965570926
-0.0418529063463211
-0.0440087206661701
-0.0446283183991909
-0.0438303388655185
-0.0418150536715984
-0.0388459712266922
-0.0352224372327327
-0.0312454290688037
-0.027186831459403
-0.0232692472636699
-0.0196536518633365
-0.0164317283779382
-0.0136240702122449
-0.0111877331510186
-0.0090338448062539
-0.0070490944199264
-0.0051155351102352
-0.0031277132220566
-0.00100679975003
0.0012899625580757
0.0037676752544939
0.0064002312719821
0.009141581133008
0.0119382869452238
0.0147363673895597
0.0174785740673542
0.0201009027659893
0.0225383881479501
0.0247356351464986
0.0266501363366842
0.0282441694289445
0.0294651947915554
0.0302195027470588
0.0303569473326206
0.0296827163547277
0.0279937647283077
0.0251278225332498
0.0210122093558311
0.0156993623822927
0.0093808807432651
0.0023760283365845
-0.0049067391082644
-0.0120248310267925
-0.0185556076467037
-0.0241390727460384
-0.0285063162446022
-0.0314930491149425
-0.0330408029258251
-0.0331909991800785
-0.0320731103420257
-0.0298864096403121
-0.0268786065280437
-0.0233235098421573
-0.0194966793060302
-0.0156493745744228
-0.0119857331737875
-0.008650904521346
-0.0057300776243209
-0.0032512615434825
-0.0011894986964762
0.0005270945839583
0.0020078509114682
0.0033818506635725
0.0047746319323778
0.0062891347333788
0.0079947561025619
0.0099230073392391
0.0120685240253806
0.0143937282264232
0.0168355498462915
0.0193147677928209
0.0217488836497068
0.0240630395710468
0.0261920504271984
0.0280758049339056
0.0296498145908117
0.0308277439326047
0.0314836613833904
0.0314506776630878
0.030541319400072
0.0285830907523632
0.0254623312503099
0.0211653504520654
0.0158019810914993
0.0096050184220075
0.002910166978836
-0.0038775340653955
-0.0103285573422908
-0.0160411670804023
-0.0206905268132686
-0.0240609869360923
-0.0260564442723989
-0.0266956090927124
-0.0260990504175424
-0.024468794465065
-0.0220627412199974
-0.019168360158801
-0.0160757489502429
-0.0130501817911863
-0.0103094261139631
-0.0080085648223757
-0.0062306239269673
-0.0049833441153168
-0.0042039407417178
-0.0037755453959107
-0.0035552738700062
-0.00340161123313
-0.0031908398959785
-0.0028256238438189
-0.0022413060069084
-0.0014093318022787
-0.000334199052304
0.0009554252028465
0.0024157068692147
0.0039931056089699
0.0056256675161421
0.0072353072464466
0.0087085552513599
0.0098802717402577
0.0105380564928054
0.0104471119120717
0.0093877054750919
0.0072008818387985
0.0038334121927618
-0.000632838346064
-0.0059782657772302
-0.0118694566190242
-0.017901262268424
-0.0236481055617332
-0.0287151671946048
-0.0327793285250663
-0.0356132201850414
-0.0370923355221748
-0.037193052470684
-0.0359867177903652
-0.0336258485913276
-0.0303256791085004
-0.0263491850346326
-0.0219899825751781
-0.0175450555980205
-0.0132819712162017
-0.00941021181643
-0.0060623432509601
-0.0032880371436476
-0.0010607140138745
0.0007084975950419
0.0021533747203648
0.0034304368309676
0.004693838302046
0.0060754432342946
0.007674315944314
0.0095515651628375
0.0117250820621848
0.0141649898141622
0.0167975835502147
0.0195200853049755
0.0222163014113903
0.0247612223029136
0.0270104259252548
0.028783805668354
0.0298624411225318
0.0300092808902263
0.0290099438279867
0.026722153648734
0.0231182109564542
0.0183068942278623
0.012532502412796
0.0061538596637547
-0.0003981692716479
-0.006678978446871
-0.0122852912172675
-0.0168926492333412
-0.0202759318053722
-0.0223167371004819
-0.0229983311146497
-0.022390928119421
-0.0206328146159648
-0.0179124604910612
-0.0144525812938809
-0.0104938549920916
-0.0062782289460301
-0.00203144736588
0.0020555360242724
0.0058405399322509
0.0092316437512636
0.0121781304478645
0.0146638341248035
0.0167092457413673
0.0183735825121402
0.0197468474507331
0.0209331139922142
0.0220324974507093
0.0231273416429758
0.0242749955505132
0.0255054906010627
0.0268213525414466
0.0281989052891731
0.0295911878347396
0.0309330075979232
0.0321421325206756
0.0331053659319877
0.0336557775735855
0.0335669741034507
0.0325796566903591
0.0304533764719963
0.0270260162651538
0.0222618635743856
0.0162757690995931
0.0093296896666288
0.0018031508661806
-0.005855306982994
-0.0131843369454145
-0.0197625663131475
-0.0252489261329174
-0.0294054225087165
-0.0321029350161552
-0.0333174541592597
-0.0331248454749584
-0.0316917486488819
-0.0292552560567855
-0.0260941050946712
-0.0224996767938137
-0.0187501888722181
-0.0150888804346323
-0.0117071736603975
-0.0087340231984853
-0.006233082152903
-0.0042069749906659
-0.0026051038876175
-0.0013348634820431
-0.0002774936147034
0.0006944872438907
0.0016989447176456
0.0028249928727746
0.0041207005269825
0.0055935136042535
0.0072187287732958
0.0089486129581928
0.0107213547453284
0.0124719869345426
0.0141422767192125
0.0156845096498727
0.0170561932027339
0.0182028152048587
0.0190330781042575
0.0194024257361888
0.0191205516457557
0.0179854203015565
0.0158279668539762
0.0125500774011015
0.0081538595259189
0.0027608536183834
-0.0033873133361339
-0.009951283223927
-0.0165356341749429
-0.0227381885051727
-0.028194885700941
-0.0326142348349094
-0.0357979424297809
-0.0376470237970352
-0.038156658411026
-0.0374047234654426
-0.035537552088499
-0.0327534973621368
-0.0292867459356784
-0.0253930911421775
-0.0213329214602708
-0.0173483975231647
-0.0136399846524
-0.0103492364287376
-0.0075495894998312
-0.0052447640337049
-0.0033770054578781
-0.0018454089295119
-0.0005282862111926
0.0006980588659644
0.0019451898988336
0.0032994167413562
0.004813065752387
0.0065054977312684
0.0083678038790822
0.0103638712316751
0.0124325696378946
0.0144975157454609
0.0164809208363294
0.0183141212910413
0.0199428312480449
0.0213272795081138
0.0224331971257925
0.0232109539210796
0.0235718414187431
0.0233796704560518
0.0224676728248596
0.0206741634756326
0.0178864076733589
0.0140826869755983
0.0093566626310348
0.0039123138412833
-0.0019634021446108
-0.0079341335222125
-0.0136479660868644
-0.0187725238502025
-0.0230274088680744
-0.0262080058455467
-0.0281978882849216
-0.0289702452719211
-0.0285816453397274
-0.0271609593182802
-0.0248938202857971
-0.0220032595098018
-0.0187277160584926
-0.0152986887842416
-0.0119242286309599
-0.0087797362357378
-0.005997939966619
-0.0036562117747962
-0.0017710187239572
-0.0003042113967239
0.0008249128004536
0.001725555746816
0.0025174731854349
0.0033117826096713
0.0041972226463258
0.00523326639086
0.0064473976381123
0.0078352848067879
0.0093655530363321
0.0109910760074853
0.0126590514555573
0.0143085019662976
0.015856871381402
0.0171853341162204
0.0181317012757062
0.0184994973242282
0.0180863887071609
0.0167241301387548
0.0143163437023758
0.0108662992715835
0.0064916890114545
0.0014208585489541
-0.0040316525846719
-0.0095036188140511
-0.0146273802965879
-0.0190679151564836
-0.0225557535886764
-0.0249137915670871
-0.0260693207383155
-0.0260468069463968
-0.0249497517943382
-0.0229413844645023
-0.0202276054769754
-0.017040729522705
-0.0136197535321116
-0.0101872701197862
-0.0069299680180847
-0.0039868899621069
-0.0014427206479012
0.0006762598641216
0.0024004527367651
0.0038061037193983
0.0049951812252402
0.0060711363330483
0.0071220113895833
0.0082150669768452
0.0093962345272302
0.0106906602159142
0.0121044032275676
0.0136268138885498
0.0152333229780197
0.0168862678110599
0.0185307133942842
0.0200845412909984
0.0214248299598693
0.0223798565566539
0.0227410160005092
0.0222979299724102
0.0208821389824152
0.0184027403593063
0.0148695958778262
0.0104044144973158
0.0052362061105668
-0.0003209204878658
-0.0059037422761321
-0.011142885312438
-0.0157049745321273
-0.0193251650780439
-0.0218253657221794
-0.0231200121343135
-0.0232134647667408
-0.0221920385956764
-0.0202096924185752
-0.0174666382372379
-0.0141885560005903
-0.0106117483228445
-0.006967547815293
-0.0034619579091668
-0.0002573067322373
0.0025383085012435
0.0048745558597147
0.0067567811347544
0.0082385241985321
0.0094097293913364
0.0103807607665658
0.0112630110234022
0.0121520385146141
0.013118702918291
0.0142071787267923
0.0154367014765739
0.0168031640350818
0.0182778313755989
0.0198082514107227
0.0213251560926437
0.0227490440011024
0.0239873267710208
0.024921640753746
0.0253983568400144
0.0252350531518459
0.0242439359426498
0.0222674701362848
0.0192176885902881
0.0151072982698678
0.0100633539259433
0.0043211430311203
-0.0017980260308831
-0.0079225525259971
-0.013678029179573
-0.018735097721219
-0.0228410623967647
-0.0258323848247528
-0.0276364330202341
-0.0282655376940965
-0.0278045404702425
-0.026395684108138
-0.0242216829210519
-0.0214877929538488
-0.0184061639010906
-0.0151819325983524
-0.0119978180155158
-0.008998486213386
-0.0062794131226837
-0.0038854002486914
-0.001819975906983
-5.852675531059504e-05
0.0014421684900298
0.0027379889506846
0.0038929146248847
0.0049747331067919
0.0060484707355499
0.0071668373420834
0.0083622150123119
0.0096443137153983
0.0110032586380839
0.0124154491350054
0.0138480346649885
0.0152617953717708
0.0166174639016389
0.0178816132247447
0.0190234892070293
0.0200081262737512
0.0207908265292644
0.0213055051863193
0.0214484632015228
0.021072894334793
0.0200034286826849
0.0180683992803096
0.0151423681527376
0.0111869014799594
0.0062752179801464
0.0005932487547397
-0.0055790292099118
-0.0118983499705791
-0.0179958306252956
-0.0235187634825706
-0.0281721502542495
-0.0317484997212886
-0.0341375209391117
-0.035321407020092
-0.0353634804487228
-0.0343909859657287
-0.0325744897127151
-0.0301096774637699
-0.0272016543895006
-0.0240487195551395
-0.020828042179346
-0.017687389627099
-0.0147406440228223
-0.0120615996420383
-0.0096783256158232
-0.0075771468691527
-0.005717393476516
-0.0040466063655912
-0.0025087445974349
-0.0010480332421138
0.000387574895285
0.0018429757328704
0.0033522779121994
0.004934967495501
0.0065944185480475
0.0083194505423307
0.0100854784250259
0.0118555631488561
0.0135849136859178
0.0152290072292089
0.0167521927505731
0.0181298553943634
0.0193431787192821
0.0203764159232378
0.0212193988263607
0.0218665488064289
0.0223057437688112
0.022498220205307
0.0223593693226575
0.0217544250190258
0.0205158833414316
0.0184784792363643
0.0155219230800867
0.0116087915375828
0.0068071051500737
0.001295409630984
-0.0046493471600115
-0.0106851318851113
-0.0164555590599775
-0.021637350320816
-0.0259695407003164
-0.029268492013216
-0.031433779746294
-0.0324456505477428
-0.0323567353188991
-0.0312797501683235
-0.0293724611401557
-0.0268229786306619
-0.0238355100154876
-0.0206144247204065
-0.0173480175435543
-0.0141931381076574
-0.0112617639824748
-0.0086169699206948
-0.0062818462029099
-0.0042511415667831
-0.0024971938692033
-0.0009738872759044
0.0003780154511332
0.0016261553391814
0.0028415098786354
0.0040901508182287
0.0054238624870777
0.0068731056526303
0.0084442123770713
0.0101215634495019
0.0118717448785901
0.0136493574827909
0.0154067687690258
0.0171014629304409
0.0186952166259288
0.0201512277126312
0.0214352458715438
0.0225188508629798
0.0233789328485727
0.0239857770502567
0.0242811180651187
0.0241624917834997
0.0234878715127706
0.0220996849238872
0.0198604092001914
0.0166900716722011
0.0125960558652877
0.0076910061761736
0.0021946157794445
-0.0035900648217648
-0.0093225501477718
-0.0146717000752687
-0.0193491335958242
-0.0231297817081213
-0.0258627068251371
-0.0274750534445047
-0.0279704481363296
-0.0274216029793024
-0.0259583592414855
-0.0237529892474412
-0.0210048053413629
-0.0179247669875621
-0.0147186946123838
-0.0115689411759376
-0.0086172744631767
-0.005956757813692
-0.0036363638937473
-0.0016684848815202
-3.2349489629268646e-05
0.0013217069208621
0.0024650269187986
0.0034822942689061
0.0044609219767153
0.0054788175038993
0.0065942490473389
0.007840035483241
0.0092230839654803
0.0107288006693124
0.0123265702277421
0.013975029811263
0.0156291425228118
0.0172450467944145
0.0187788642942905
0.0201852638274431
0.0214208830147981
0.0224492195993661
0.0232382602989673
0.0237449146807193
0.0238941814750432
0.0235691796988248
0.0226202681660652
0.0208916328847408
0.0182595886290073
0.0146724740043282
0.0101786702871322
0.0049358233809471
-0.000797749729827
-0.0066918460652232
-0.0123914405703544
-0.0175659134984016
-0.021944873034954
-0.0253358334302902
-0.0276268422603607
-0.0287824440747499
-0.0288388933986425
-0.0278967805206775
-0.0261094458401203
-0.0236687567085027
-0.0207882411777973
-0.0176844522356987
-0.0145591497421264
-0.0115826316177845
-0.0088800005614757
-0.0065250266343355
-0.0045434571802616
-0.0029214988462626
-0.0016136718913912
-0.0005501988343894
0.0003533624112606
0.0011860080994665
0.0020321980118751
0.0029630595818161
0.0040298332460224
0.0052602346986532
0.0066556157544255
0.0081915110349655
0.0098256068304181
0.0115098562091588
0.01319963298738
0.014854310080409
0.0164297986775636
0.0178694743663072
0.0190949123352766
0.0199956931173801
0.0204238966107368
0.0202014446258544
0.0191459320485591
0.0171110592782497
0.0140272853896021
0.0099306525662541
0.0049742711707949
-0.00058162456844
-0.0063996231183409
-0.0121054919436573
-0.0173296406865119
-0.0217475611716508
-0.0251158960163593
-0.0272925533354282
-0.0282363984733819
-0.0279956124722957
-0.026692509651184
-0.024506002664566
-0.0216530822217464
-0.0183724146336317
-0.0149083705618977
-0.0114907408133149
-0.0083122262731194
-0.0055107846856117
-0.0031613456085324
-0.0012763291597366
0.0001891553401947
0.0013256222009658
0.0022463155910372
0.0030618505552411
0.0038654287345707
0.0047293989919126
0.0057061482220888
0.0068284035660326
0.0081090433523058
0.0095424624159932
0.0111075695604085
0.0127713400870561
0.0144930351525545
0.016226390376687
0.0179135799407959
0.0194705687463283
0.0207712426781654
0.0216376185417175
0.0218442603945732
0.0211470089852809
0.0193341262638568
0.0162816848605871
0.0119947120547294
0.0066236117854714
0.0004525021649897
-0.0061348341405391
-0.0127005502581596
-0.018804108723998
-0.0240538120269775
-0.0281457342207431
-0.0308830793946981
-0.0321791842579841
-0.03205032274127
-0.0306071955710649
-0.0280464440584182
-0.0246323831379413
-0.0206670016050338
-0.0164561159908771
-0.0122790178284049
-0.0083671314641833
-0.004891007207334
-0.0019503235816955
0.000432739034295
0.0023093689233064
0.0037863850593566
0.0050034346058964
0.0061114858835935
0.007252374663949
0.0085432082414627
0.0100647239014506
0.0118496790528297
0.0138802118599414
0.0160988941788673
0.0184246562421321
0.0207684524357318
0.0230455230921506
0.0251790732145309
0.0270936321467161
0.028697308152914
0.0298571251332759
0.0303847026079893
0.030050178989768
0.028623629361391
0.0259292609989643
0.0218975078314542
0.0165980197489261
0.01024129986763
0.0031552789732813
-0.0042513646185398
-0.01153364777565
-0.0182564593851566
-0.0240365676581859
-0.0285766329616308
-0.0316861532628536
-0.0332855656743049
-0.0333979278802871
-0.0321376509964466
-0.0296991355717182
-0.0263398848474025
-0.0223531797528266
-0.0180349890142679
-0.013658314011991
-0.0094586592167615
-0.0056208418682217
-0.0022656880319118
0.0005553886294364
0.0028576264157891
0.0047156037762761
0.0062489733099937
0.0076006548479199
0.0089133940637111
0.0103099457919597
0.0118798241019248
0.0136737441644072
0.0157031919807195
0.017943562939763
0.020342843607068
0.0228320322930812
0.0253301337361335
0.0277474354952573
0.0299911685287952
0.0319627746939659
0.0335387662053108
0.0345476642251014
0.0347639136016368
0.0339298360049724
0.0318028703331947
0.0282153487205505
0.0231278780847787
0.0166590996086597
0.0090855052694678
0.0008153516682796
-0.0076569728553295
-0.0158115997910499
-0.0231687556952238
-0.0293400194495916
-0.0340543128550052
-0.0371651649475097
-0.0386462770402431
-0.0385764762759208
-0.0371197871863842
-0.0345065109431743
-0.0310131665319204
-0.0269389525055885
-0.0225804112851619
-0.0182072259485721
-0.0140414647758007
-0.0102412141859531
-0.0068915248848497
-0.0040087983943521
-0.0015566647052764
0.0005381871014833
0.0023744530044496
0.0040638004429638
0.0057161273434758
0.0074261408299207
0.0092633785679936
0.0112659409642219
0.013439567759633
0.0157621055841445
0.018189949914813
0.0206640288233757
0.0231167450547218
0.0254815872758626
0.0277019198983907
0.029731199145317
0.0315203294157981
0.0329942107200622
0.0340255796909332
0.0344211049377918
0.0339327827095985
0.0322959944605827
0.0292850248515605
0.0247717127203941
0.018773153424263
0.0114737646654248
0.0032131364569067
-0.0055541568435728
-0.0143145900219678
-0.0225546155124902
-0.0298106037080287
-0.0357098653912544
-0.0400052294135093
-0.0425914674997329
-0.0434954315423965
-0.0428516082465648
-0.0408767461776733
-0.0378455333411693
-0.0340655446052551
-0.0298512428998947
-0.0254978667944669
-0.021257784217596
-0.0173231400549411
-0.0138164013624191
-0.0107881296426057
-0.0082208374515175
-0.0060382881201803
-0.004122881218791
-0.0023419624194502
-0.0005738672916777
0.0012767332373186
0.0032748165540397
0.005455910693854
0.0078261364251375
0.010361036285758
0.0130085982382297
0.0157001204788684
0.018363494426012
0.0209307726472616
0.0233395248651504
0.025534700602293
0.0274747852236032
0.029135962948203
0.0305017102509737
0.0315318740904331
0.0321248173713684
0.0320988558232784
0.0312077701091766
0.0291866771876811
0.0258161239326
0.0209862999618053
0.0147408181801438
0.0072888452559709
-0.0010128859430551
-0.0097005572170019
-0.0182584691792726
-0.0261811278760433
-0.0330296158790588
-0.0384683161973953
-0.042281724512577
-0.0443819649517536
-0.0448080785572528
-0.0437111258506774
-0.0413275510072708
-0.0379494912922382
-0.03389697894454
-0.0294917710125446
-0.0250327363610267
-0.0207732878625392
-0.0169015601277351
-0.0135273803025484
-0.0106796603649854
-0.0083135589957237
-0.0063250414095819
-0.004570938181132
-0.0028956807218492
-0.0011615303810685
0.0007304176688194
0.0028350227512419
0.0051666120998561
0.0077041443437337
0.0103980954736471
0.0131794614717364
0.015969056636095
0.0186865217983722
0.021258620545268
0.0236247666180133
0.0257392190396785
0.0275728609412908
0.029116827994585
0.0303825754672288
0.0313876196742057
0.0321255102753639
0.0325330793857574
0.0324704386293888
0.0317240096628665
0.0300377160310745
0.0271682813763618
0.0229492522776126
0.0173433646559715
0.0104696974158287
0.0026036761701107
-0.0058492878451943
-0.014403723180294
-0.0225557684898376
-0.0298408735543489
-0.035876490175724
-0.0403894782066345
-0.043232936412096
-0.0443894006311893
-0.0439587831497192
-0.0421381443738937
-0.0391978323459625
-0.0354536287486553
-0.031235434114933
-0.026856642216444
-0.0225889272987842
-0.0186437275260686
-0.0151599030941724
-0.0121974619105458
-0.0097395423799753
-0.0077040656469762
-0.005962224677205
-0.0043623927049338
-0.0027571562677621
-0.0010256986133754
0.0009127029916271
0.0030941343866288
0.0055137164890766
0.0081326449289917
0.0108852088451385
0.0136879617348313
0.016452383249998
0.0190975423902273
0.0215587764978408
0.023791441693902
0.0257695633918046
0.0274822805076837
0.0289293844252824
0.0301060229539871
0.0309718400239944
0.031420886516571
0.0312731191515922
0.0302957389503717
0.0282502546906471
0.0249515101313591
0.0203216653317213
0.0144265899434685
0.0074858898296952
-0.0001478008925914
-0.008033512160182
-0.0156969334930181
-0.0226841922849416
-0.0286055151373147
-0.0331646874547004
-0.0361780896782875
-0.0375853702425956
-0.0374473072588443
-0.0359306521713733
-0.033284742385149
-0.0298126935958862
-0.0258406139910221
-0.0216881763190031
-0.0176399294286966
-0.0139194866642355
-0.0106729371473193
-0.0079641202464699
-0.0057801473885774
-0.0040450706146657
-0.0026379614137113
-0.0014109858311712
-0.0002096743555739
0.0011024454142898
0.0026236362755298
0.0044061383232474
0.0064584016799926
0.0087518021464347
0.0112297059968113
0.0138187846168875
0.0164398644119501
0.0190148223191499
0.0214697699993848
0.0237353648990392
0.0257395543158054
0.0273890253156423
0.0285490192472934
0.0290373191237449
0.0286382678896188
0.027135107666254
0.0243578068912029
0.0202354732900857
0.0148347169160842
0.00837042927742
0.0011878670193254
-0.0062771015800535
-0.0135510843247175
-0.0201797988265752
-0.025775896385312
-0.0300490371882915
-0.0328198745846748
-0.0340242944657802
-0.0337092168629169
-0.032019730657339
-0.0291817225515842
-0.0254821944981813
-0.0212432630360126
-0.0167902745306491
-0.0124208088964223
-0.0083783194422721
-0.0048322984948754
-0.0018682787194848
0.0005112153012305
0.0023760248441249
0.0038499350193887
0.0050872932188212
0.0062485840171575
0.0074781188741326
0.0088883079588413
0.0105540780350565
0.0125103807076811
0.0147457001730799
0.0172000303864479
0.0197766311466693
0.022362545132637
0.0248476509004831
0.0271375104784965
0.0291603002697229
0.0308682937175035
0.0322318896651268
0.0332221463322639
0.0337819159030914
0.0337979681789875
0.0330934524536132
0.0314518958330154
0.02866792678833
0.0246042534708976
0.0192348361015319
0.0126685155555605
0.0051511693745851
-0.0029565496370196
-0.0112205669283866
-0.019183587282896
-0.0264154840260744
-0.0325554683804512
-0.0373393259942531
-0.0406114347279071
-0.0423252768814563
-0.0425349064171314
-0.0413812324404716
-0.0390748344361782
-0.0358728654682636
-0.0320551842451095
-0.0279068723320961
-0.0237009339034557
-0.0196742620319128
-0.0160040203481912
-0.0127938510850071
-0.0100709004327654
-0.0077921273186802
-0.0058594215661287
-0.0041410876438021
-0.0024945519398897
-0.0007867410313338
0.0010884092189371
0.003197525627911
0.0055649890564382
0.0081794634461402
0.0110001005232334
0.0139561146497726
0.0169504173099994
0.0198758020997047
0.0226333849132061
0.0251442976295948
0.0273550264537334
0.0292357709258794
0.0307745672762393
0.031973373144865
0.0328465700149536
0.0334175191819667
0.033706285059452
0.0337033011019229
0.0333386696875095
0.0324673056602478
0.030879596248269
0.0283358991146087
0.024620059877634
0.0195991843938827
0.0132719678804278
0.00579350348562
-0.0025300299748778
-0.0112773664295673
-0.0199680589139461
-0.0281225107610225
-0.0353155136108398
-0.041215781122446
-0.0456061363220214
-0.0483864061534404
-0.0495647229254245
-0.0492420308291912
-0.0475958809256553
-0.0448660366237163
-0.0413363724946975
-0.0373094789683818
-0.033077947795391
-0.0288972109556198
-0.0249625034630298
-0.0213943049311637
-0.018236618489027
-0.0154664469882845
-0.0130090471357107
-0.0107557643204927
-0.0085845030844211
-0.0063805826939642
-0.0040508084930479
-0.0015282845124602
0.0012240912765264
0.0042067719623446
0.0073811882175505
0.0106778834015131
0.0140105802565813
0.0172897558659315
0.0204321965575218
0.0233661942183971
0.0260350443422794
0.0284004844725132
0.03044487349689
0.0321698784828186
0.0335908681154251
0.0347312167286872
0.0356209427118301
0.0362965613603591
0.0367956645786762
0.0371466130018234
0.0373614206910133
0.0374370403587818
0.0373595394194126
0.0370995141565799
0.0365930497646331
0.0357171818614006
0.0342790968716144
0.0320343449711799
0.0287328921258449
0.0241775214672088
0.0182775557041168
0.0110859191045165
0.0028125932440161
-0.0061901975423097
-0.0154734263196587
-0.0245557576417922
-0.0329837054014205
-0.0403744354844093
-0.0464418344199657
-0.0510077998042106
-0.0539999827742576
-0.0554403811693191
-0.0554315112531185
-0.0541425049304962
-0.0517928451299667
-0.0486334115266799
-0.0449273698031902
-0.0409309677779674
-0.0368720442056655
-0.032929066568613
-0.0292202625423669
-0.0258067417889833
-0.0227007959038019
-0.0198721345514059
-0.0172549150884151
-0.0147597463801503
-0.01228919159621
-0.0097529040649533
-0.0070796087384223
-0.0042242165654897
-0.0011712736450135
0.0020635379478335
0.0054366984404623
0.0088866744190454
0.0123455896973609
0.0157475676387548
0.0190312191843986
0.0221379175782203
0.0250121317803859
0.0276057943701744
0.0298829190433025
0.0318229496479034
0.0334231592714786
0.0346980914473533
0.0356755778193473
0.0363920852541923
0.03688770160079
0.037197571247816
0.0373357012867927
0.0372695922851562
0.036894891411066
0.0360288433730602
0.0344312526285648
0.0318464264273643
0.0280590169131755
0.0229528248310089
0.0165539719164371
0.0090461485087871
0.0007565752603113
-0.0078828958794474
-0.0163905322551727
-0.0242942422628402
-0.0311855133622884
-0.0367569848895072
-0.0408176146447658
-0.0432915091514587
-0.0442085191607475
-0.0436876788735389
-0.04191804677248
-0.0391438156366348
-0.0356480777263641
-0.0317281298339366
-0.0276673249900341
-0.0237098149955272
-0.020039739087224
-0.0167681109160184
-0.0139315947890281
-0.011501888744533
-0.0093996049836277
-0.0075100287795066
-0.0057024890556931
-0.0038520190864801
-0.0018568849191069
0.000353786163032
0.0028174603357911
0.0055326279252767
0.0084556331858038
0.0115088894963264
0.0145976580679416
0.01762674190104
0.0205112509429454
0.0231819935142993
0.0255892537534236
0.0277041494846344
0.0295162107795476
0.0310301296412944
0.0322625637054443
0.0332378335297107
0.0339841246604919
0.0345320999622345
0.034912135452032
0.0351446345448493
0.0352240689098835
0.035100307315588
0.0346617773175239
0.0337301418185234
0.0320762135088443
0.0294582583010196
0.0256740674376487
0.0206145327538251
0.0143046556040644
0.0069190999493002
-0.0012314049527049
-0.0097373696044087
-0.0181405171751976
-0.0259847957640886
-0.0328635685145854
-0.0384595058858394
-0.0425689779222011
-0.0451075956225395
-0.0461024940013885
-0.0456772334873676
-0.0440316647291183
-0.0414186529815197
-0.0381193533539772
-0.0344184376299381
-0.0305811446160078
-0.0268331542611122
-0.0233448855578899
-0.0202239174395799
-0.017514718696475
-0.015200201421976
-0.0132078249007463
-0.0114278271794319
-0.0097377952188253
-0.0080222124233841
-0.0061853039078414
-0.004159259609878
-0.0019089318811893
0.0005663558840751
0.0032356968149542
0.0060442294925451
0.0089224204421043
0.0117952339351177
0.0145889166742563
0.0172343738377094
0.0196719281375408
0.0218597296625375
0.0237772725522518
0.0254179630428552
0.0267806481570005
0.0278687514364719
0.0286923665553331
0.0292690433561801
0.0296235084533691
0.0297820046544075
0.0297542549669742
0.0295050665736198
0.0289299990981817
0.0278523191809654
0.0260489098727703
0.0233000963926315
0.0194501094520092
0.0144583042711019
0.0084216017276048
0.0015651062130928
-0.0057866876013576
-0.0132483625784516
-0.0204172320663929
-0.0269156023859977
-0.0324250273406505
-0.0367098115384578
-0.0396294556558132
-0.041141141206026
-0.0412951000034809
-0.0402249805629253
-0.0381328612565994
-0.0352690033614635
-0.0319068506360054
-0.0283148642629385
-0.024732768535614
-0.021358098834753
-0.0183372572064399
-0.0157553758472204
-0.0136289773508906
-0.0119087351486086
-0.0104944240301847
-0.0092562306672334
-0.008055230602622
-0.0067604957148432
-0.0052638635970652
-0.0034919793251901
-0.0014132000505924
0.0009617658797651
0.0035867085680365
0.0063924612477421
0.0092967189848423
0.0122076654806733
0.0150291677564382
0.0176724586635828
0.0200675781816244
0.0221677981317043
0.0239495038986206
0.0254097450524568
0.026554137468338
0.0273684654384851
0.0277844630181789
0.0276633352041244
0.0268104039132595
0.0250156447291374
0.0221087485551834
0.0180144216865301
0.0127873672172427
0.0066150743514299
-0.0002030283212661
-0.0072873830795288
-0.0142182344570755
-0.0205824915319681
-0.0260200854390859
-0.0302589051425457
-0.0331317074596881
-0.0345773361623287
-0.0346327275037765
-0.0334199257194995
-0.0311299711465835
-0.0280057489871978
-0.0243213865906
-0.0203532725572586
-0.0163518823683261
-0.0125268911942839
-0.0090390872210264
-0.0059903897345066
-0.0034167608246207
-0.0012898137792944
0.0004725707694888
0.0019885636866092
0.0033914456143975
0.0048090922646224
0.0063473340123891
0.0080797150731086
0.0100431432947516
0.01223895419389
0.0146388560533523
0.0171926729381084
0.0198331829160451
0.0224774107336998
0.0250324197113513
0.0274086911231279
0.0295320861041545
0.0313503481447696
0.0328356102108955
0.0339762270450592
0.034751508384943
0.0350988209247589
0.0348928608000278
0.0339503325521945
0.0320603586733341
0.0290328152477741
0.0247537866234779
0.0192321743816137
0.0126180397346615
0.0051886150613427
-0.0026842579245567
-0.0105758551508188
-0.0180556252598762
-0.0247323885560035
-0.0302916299551725
-0.0345191098749637
-0.0373070426285266
-0.0386478081345558
-0.0386216901242733
-0.0373799875378608
-0.0351260900497436
-0.0320984832942485
-0.0285529512912035
-0.0247405786067247
-0.0208875723183155
-0.0171835552901029
-0.0137734375894069
-0.010747181251645
-0.0081329578533768
-0.0058998363092541
-0.0039689717814326
-0.0022303154692053
-0.0005621090531349
0.0011503230780363
0.0029990654438734
0.0050430167466402
0.007304223254323
0.0097713423892855
0.0124074053019285
0.0151584222912788
0.0179588254541158
0.0207333602011203
0.0234006661921739
0.0258800853043794
0.0280997194349765
0.0300051178783178
0.0315658897161483
0.0327769368886947
0.0336520485579967
0.0342064127326011
0.0344276912510395
0.0342451930046081
0.0335144586861133
0.0320297069847583
0.0295646917074918
0.0259317923337221
0.0210388787090778
0.0149230929091572
0.0077570523135364
-0.0001645758748054
-0.008453750051558
-0.0166716556996107
-0.0243786759674549
-0.031181676313281
-0.0367708913981914
-0.0409429967403411
-0.043609008193016
-0.0447868891060352
-0.0445833168923854
-0.0431720465421676
-0.0407724827527999
-0.0376294292509555
-0.0339962095022201
-0.0301201567053794
-0.0262258723378181
-0.0224976167082786
-0.0190656632184982
-0.0159977525472641
-0.0132980402559041
-0.0109161604195833
-0.0087630096822977
-0.0067282607778906
-0.0046977684833109
-0.0025696195662021
-0.0002669394016265
0.0022538728080689
0.0050012301653623
0.0079527366906404
0.0110603030771017
0.0142526794224977
0.0174404717981815
0.0205276869237422
0.0234254449605941
0.0260604582726955
0.0283779390156269
0.0303443055599927
0.0319499932229518
0.0332065634429454
0.0341331735253334
0.0347302071750164
0.0349457003176212
0.0346538238227367
0.0336637832224369
0.0317581221461296
0.0287442486733198
0.0245029125362634
0.0190255418419837
0.0124359894543886
0.0049915253184735
-0.00293960259296
-0.0109207145869731
-0.0184997301548719
-0.0252620242536067
-0.0308737978339195
-0.0351081192493438
-0.0378526225686073
-0.0391040705144405
-0.0389545001089572
-0.037571121007204
-0.0351728685200214
-0.0320097357034683
-0.0283484943211078
-0.0244584381580352
-0.0205885116010904
-0.0169391632080078
-0.0136424740776419
-0.0107579175382852
-0.0082791214808821
-0.0061458968557417
-0.0042604650370776
-0.0025052926503121
-0.0007591894827783
0.0010876320302486
0.0031196118798106
0.0053870566189289
0.0079042464494705
0.0106503460556268
0.0135694965720176
0.0165744069963693
0.0195591002702713
0.0224162451922893
0.0250510796904563
0.0273902136832475
0.029386231675744
0.0310197286307811
0.0322995223104953
0.0332569405436515
0.0339314304292202
0.034348651766777
0.0344914942979812
0.0342732109129428
0.0335310846567153
0.0320473201572895
0.0295902714133262
0.0259690824896097
0.0210890173912048
0.0149896964430809
0.0078571168705821
9.743496775627136e-06
-0.0081374840810894
-0.0161247532814741
-0.0235045664012432
-0.0298927500844001
-0.0350037328898906
-0.0386655442416667
-0.0408175289630889
-0.0414978638291358
-0.0408267490565776
-0.038991704583168
-0.0362364389002323
-0.0328441858291626
-0.0291097424924373
-0.0253073386847972
-0.0216641258448362
-0.01834287494421
-0.0154334157705307
-0.0129530308768153
-0.0108560901135206
-0.0090504372492432
-0.0074165458790957
-0.0058267610147595
-0.0041634663939476
-0.0023341311607509
-0.000280074076727
0.0020199907012283
0.0045479885302484
0.0072481576353311
0.0100363986566662
0.0128161711618304
0.0154952257871627
0.0179966799914836
0.0202636141330003
0.0222608298063278
0.0239735413342714
0.0254020094871521
0.0265559647232294
0.0274519547820091
0.02811274304986
0.0285660177469253
0.0288352146744728
0.0289137549698352
0.0287303701043128
0.0281305387616157
0.0268908254802227
0.024763599038124
0.0215382128953933
0.0170998182147741
0.011468892917037
0.0048119444400072
-0.0025763548910617
-0.0103108994662761
-0.0179634932428598
-0.0251120701432228
-0.0313841067254543
-0.0364868976175785
-0.0402228496968746
-0.042496308684349
-0.0433169975876808
-0.0427946075797081
-0.0411199480295181
-0.0385385528206825
-0.035324964672327
-0.0317586958408355
-0.0280996747314929
-0.0245659947395324
-0.0213181469589471
