bvp
-0.0048130489885807
-0.0019264200236648
0.0004152215551584
0.0023224202450364
0.0039456798695027
0.0054491483606398
0.0069881184026598
0.0086914524435997
0.0106505211442708
0.0129156345501542
0.015492882579565
0.0183387678116559
0.0213632695376873
0.0244455020874738
0.0274535361677408
0.0302618779242038
0.0327653549611568
0.0348885208368301
0.0365895107388496
0.0378566272556781
0.0386918559670448
0.0390791296958923
0.0389493517577648
0.0381604805588722
0.0365064181387424
0.0337586477398872
0.0297260768711566
0.0243100374937057
0.0175431221723556
0.0096085099503397
0.0008341949433088
-0.008340161293745
-0.0174168050289154
-0.0259003285318613
-0.0333527587354183
-0.0394348911941051
-0.043928425759077
-0.0467389151453971
-0.0478856414556503
-0.047486163675785
-0.0457378737628459
-0.0428947061300277
-0.0392431207001209
-0.0350821167230606
-0.0307026263326406
-0.0263633783906698
-0.0222682598978281
-0.0185497105121612
-0.015262478031218
-0.012389394454658
-0.0098538603633642
-0.0075360834598541
-0.0052948892116546
-0.0029926258139312
-0.0005169538781046
0.0022046701051294
0.0051996200345456
0.008453331887722
0.0119153270497918
0.0155033338814973
0.0191097762435674
0.0226142145693302
0.0258988980203866
0.0288636852055788
0.0314366035163402
0.0335788168013095
0.0352850519120693
0.0365771390497684
0.0374874211847782
0.0380318239331245
0.0381764657795429
0.0378116704523563
0.0367513410747051
0.0347628593444824
0.0316164903342723
0.0271408148109912
0.0212755501270294
0.0141101656481623
0.0058942977339029
-0.0029839593917131
-0.012044926173985
-0.0207789447158575
-0.0287098493427038
-0.0354459397494792
-0.0407093912363052
-0.0443447232246398
-0.0463129356503486
-0.0466785654425621
-0.0455940440297126
-0.0432811789214611
-0.0400107726454734
-0.0360835008323192
-0.0318085812032222
-0.0274754725396633
-0.0233232416212558
-0.0195164903998374
-0.0161352884024381
-0.0131815196946263
-0.0105955274775624
-0.0082751540467143
-0.0060950256884098
-0.0039255525916814
-0.001650268677622
0.0008190502412617
0.0035324711352586
0.0064998869784176
0.0096926428377628
0.0130456294864416
0.0164636094123125
0.0198334567248821
0.0230392459779977
0.0259768851101398
0.0285666827112436
0.0307627841830253
0.0325534455478191
0.0339448191225528
0.0349310524761676
0.0354616679251194
0.0354187749326229
0.034617505967617
0.0328377075493335
0.029880242422223
0.0256250463426113
0.0200705640017986
0.0133536485955119
0.0057511054910719
-0.0023441137745976
-0.0104700606316328
-0.0181520022451877
-0.0249540656805038
-0.0305200275033712
-0.0346006676554679
-0.037066176533699
-0.0379066728055477
-0.0372242592275142
-0.0352164581418037
-0.0321522317826747
-0.0283429231494665
-0.0241121649742126
-0.0197693966329097
-0.015585321933031
-0.0117683243006467
-0.0084463097155094
-0.00565901491791
-0.0033646277152001
-0.0014584669843316
0.0002041684929281
0.0017845637630671
0.0034363963641226
0.0052846660837531
0.0074114520102739
0.0098476745188236
0.0125727765262126
0.0155249405652284
0.0186141356825828
0.0217297449707984
0.0247494038194417
0.0275561287999153
0.0300552956759929
0.0321828499436378
0.0339068844914436
0.0352224446833133
0.0361337326467037
0.0366230569779872
0.0366176813840866
0.0359731242060661
0.0344839356839656
0.0319205895066261
0.0280858892947435
0.022877749055624
0.0163347981870174
0.0086475349962711
0.0001398008316755
-0.0087662413716316
-0.017596136778593
-0.025876173749566
-0.03318427875638
-0.0391879752278327
-0.0436638258397579
-0.0465017184615135
-0.0477006584405899
-0.0473588816821575
-0.0456586293876171
-0.0428469032049179
-0.039211455732584
-0.0350513868033885
-0.0306499041616916
-0.0262565575540065
-0.0220743957906961
-0.0182467754930257
-0.0148465782403945
-0.0118724210187792
-0.0092571405693888
-0.0068890731781721
-0.0046374960802495
-0.0023743389174342
9.367242455482485e-06
0.0025911058764904
0.0054086958989501
0.0084586441516876
0.0117026465013623
0.0150784775614738
0.0185070149600505
0.0218949876725673
0.025141704827547
0.0281505547463893
0.0308388639241457
0.0331439822912216
0.0350274704396724
0.0364780537784099
0.0375111550092697
0.0381631813943386
0.038479458540678
0.0384919345378875
0.0381867587566375
0.037474624812603
0.0361822433769702
0.0340743586421012
0.0308998450636863
0.0264486633241176
0.0206095837056636
0.0134154018014669
0.0050612669438123
-0.0041080983355641
-0.0136373909190297
-0.0230171680450439
-0.0317464545369148
-0.0393896251916885
-0.0456168130040168
-0.0502215176820755
-0.0531196780502796
-0.0543390549719333
-0.0540020391345024
-0.0523040331900119
-0.0494939535856246
-0.0458579920232296
-0.041699182242155
-0.0373100601136684
-0.0329453982412815
-0.0288008637726306
-0.0249979048967361
-0.0215776022523641
-0.0185090415179729
-0.0157095417380332
-0.0130681451410055
-0.0104669984430074
-0.0077983578667044
-0.0049776388332247
-0.0019518033368512
0.0012988629750907
0.0047611738555133
0.0083882706239819
0.0121032623574137
0.0158100984990596
0.0194067787379026
0.0227975361049175
0.0259031243622303
0.0286671072244644
0.0310569256544113
0.0330613330006599
0.0346866510808467
0.0359529554843902
0.0368904843926429
0.0375374145805835
0.0379382595419883
0.0381392203271389
0.038173709064722
0.03803276643157
0.0376319475471973
0.036798171699047
0.0352875813841819
0.0328284725546836
0.0291783846914768
0.0241833962500095
0.017826173454523
0.0102504156529903
0.0017542988061904
-0.0072451280429959
-0.0162651576101779
-0.0248158853501081
-0.0324537195265293
-0.0388209708034992
-0.0436705872416496
-0.0468799546360969
-0.0484519824385643
-0.0485001243650913
-0.0472216978669166
-0.0448687598109245
-0.0417222753167152
-0.0380691550672054
-0.0341802053153514
-0.0302901454269886
-0.0265824347734451
-0.0231793001294136
-0.0201369691640138
-0.0174481570720672
-0.0150512009859085
-0.0128438891842961
-0.0107040125876665
-0.008514086715877
-0.0061809602193534
-0.0036464172881096
-0.0008904265705496
0.0020714220590889
0.0051937578245997
0.0084087494760751
0.0116355810314416
0.0147916665300726
0.0178022012114524
0.0206045340746641
0.0231494940817356
0.0254045277833938
0.0273571573197841
0.029014978557825
0.0304005704820156
0.0315416418015956
0.0324623174965381
0.0331795439124107
0.0336974002420902
0.0339907966554164
0.0339822955429554
0.0335273928940296
0.0324221923947334
0.0304352827370166
0.0273555852472782
0.0230452287942171
0.0174851939082145
0.0108017055317759
0.0032657478004693
-0.0047355550341308
-0.012750563211739
-0.0203254632651805
-0.0270599573850631
-0.032643835991621
-0.036873310804367
-0.0396515503525733
-0.0409792438149452
-0.0409417003393173
-0.0396958403289318
-0.0374548584222793
-0.0344679057598114
-0.030997235327959
-0.0272975377738475
-0.0235975123941898
-0.0200808327645063
-0.0168690159916877
-0.0140155088156461
-0.0115149524062871
-0.0093196183443069
-0.0073537761345505
-0.0055245496332645
-0.0037335306406021
-0.0018902902957051
7.58250243961811e-05
0.0022078254260122
0.004518125206232
0.006989843212068
0.0095800440758466
0.0122254788875579
0.0148526299744844
0.0173906087875366
0.0197811536490917
0.0219800844788551
0.0239527951925992
0.0256716776639223
0.0271179787814617
0.0282849185168743
0.0291786808520555
0.0298159085214138
0.0302171260118484
0.030393186956644
0.0303229968994855
0.0299306083470582
0.0290767140686512
0.0275731924921274
0.0252191014587879
0.0218507666140794
0.0173928532749414
0.0118925468996167
0.0055246856063604
-0.0014277305454015
-0.0086056189611554
-0.0156138241291046
-0.02206676825881
-0.0276304818689823
-0.0320509746670722
-0.035167708992958
-0.0369181223213672
-0.0373362302780151
-0.0365422926843166
-0.0347240418195724
-0.032115165144205
-0.0289731733500957
-0.0255569238215684
-0.0221079960465431
-0.0188359543681144
-0.0159012451767921
-0.0133994547650218
-0.0113569339737296
-0.0097369346767663
-0.0084511023014783
-0.0073760226368904
-0.0063729933463037
-0.0053073717281222
-0.0040659019723534
-0.0025694598443806
-0.000778981950134
0.0013038385659456
0.0036403280682861
0.006164863705635
0.0087972898036241
0.0114501575008034
0.0140323881059885
0.0164556689560413
0.0186431109905242
0.0205362848937511
0.0220962613821029
0.0232921075075864
0.0240768641233444
0.0243648551404476
0.0240266975015401
0.0229064859449863
0.0208551920950412
0.0177729837596416
0.0136513812467455
0.0086012007668614
0.0028521125204861
-0.0032769259996712
-0.0094202449545264
-0.015207122080028
-0.0202994495630264
-0.024421414360404
-0.0273776520043611
-0.0290632937103509
-0.0294667426496744
-0.0286627821624279
-0.0268002748489379
-0.0240882001817226
-0.0207772906869649
-0.017136562615633
-0.0134265702217817
-0.0098723582923412
-0.0066434042528271
-0.0038456320762634
-0.0015220949426293
0.0003436617553234
0.0018211230635643
0.0030200714245438
0.0040730126202106
0.0051158051937818
0.0062686209566891
0.0076202051714062
0.0092190932482481
0.0110728600993752
0.013152077794075
0.0153970886021852
0.0177301615476608
0.0200705360621213
0.0223418772220611
0.0244699269533157
0.0263829249888658
0.0280211418867111
0.0293460041284561
0.0303413737565279
0.0310061201453208
0.0313360951840877
0.0312981233000755
0.0308065861463546
0.0297167766839265
0.0278448369354009
0.0250095836818218
0.021080782637
0.0160220209509134
0.0099205411970615
0.002993032336235
-0.0044375667348504
-0.0119837839156389
-0.0192404203116893
-0.0258292257785797
-0.0314358212053775
-0.035833291709423
-0.0388907678425312
-0.0405705086886882
-0.0409187376499176
-0.0400541462004184
-0.038155198097229
-0.0354435369372367
-0.0321625061333179
-0.0285545252263546
-0.0248411167412996
-0.0212086085230112
-0.0178009718656539
-0.0147157749161124
-0.0119990482926368
-0.0096426047384738
-0.007590040564537
-0.0057507921010255
-0.0040164785459637
-0.0022762278094887
-0.000431134365499
0.0015930393710732
0.0038371854461729
0.0063046389259397
0.0089622493833303
0.011749361641705
0.0145920561626553
0.0174128264188766
0.0201319381594657
0.0226695090532302
0.0249541513621807
0.0269321054220199
0.0285718515515327
0.0298628062009811
0.0308025889098644
0.0313712172210216
0.0315029844641685
0.0310719870030879
0.0299020130187273
0.0278006102889776
0.0246076229959726
0.0202462822198867
0.0147638209164142
0.0083451103419065
0.0012924904003739
-0.0060160998255014
-0.0131752230226993
-0.019798019900918
-0.0255543421953916
-0.0301965121179819
-0.0335715562105178
-0.035621304064989
-0.0363733991980552
-0.0359272919595241
-0.0344393253326416
-0.0321081429719924
-0.0291590131819248
-0.0258253198117017
-0.0223269220441579
-0.0188510790467262
-0.0155431972816586
-0.0125037170946598
-0.009784584864974
-0.0073879696428775
-0.0052705872803926
-0.003353239968419
-0.001536444760859
0.0002801707014441
0.0021825795993208
0.004234068095684
0.0064702057279646
0.0088957557454705
0.0114855039864778
0.0141903273761272
0.0169466827064752
0.0196831561625003
0.022321842610836
0.0247821882367134
0.0269914492964744
0.0288963727653026
0.0304695218801498
0.0317051112651824
0.0326022617518901
0.0331396237015724
0.0332503467798233
0.0328089296817779
0.0316385924816131
0.0295420847833156
0.0263508260250091
0.0219780821353197
0.0164608117192983
0.0099762231111526
0.0028239213861525
-0.0046165026724338
-0.0119337318465113
-0.0187303349375724
-0.0246604476124048
-0.0294555630534887
-0.0329409390687942
-0.0350432358682155
-0.0357867516577243
-0.0352801121771335
-0.0336986407637596
-0.0312654376029968
-0.0282306522130966
-0.0248487275093793
-0.021355427801609
-0.0179491583257913
-0.0147814210504293
-0.0119524914771318
-0.0095069222152233
-0.0074327276088297
-0.0056686159223318
-0.0041175950318574
-0.00266392249614
-0.0011917515657842
0.0003982656635344
0.0021783793345093
0.0041878572665154
0.0064300550147891
0.0088741509243845
0.011463550850749
0.0141282845288515
0.016792643815279
0.0193766336888074
0.0218009948730468
0.0239975154399871
0.0259168054908514
0.0275296829640865
0.0288213267922401
0.0297768544405698
0.0303586274385452
0.0304824039340019
0.0300066005438566
0.0287447813898324
0.0265004895627498
0.0231170244514942
0.0185304041951894
0.0128081571310758
0.0061568985693156
-0.0011037145741283
-0.0085847061127424
-0.0158733651041984
-0.0225763656198978
-0.0283567737787961
-0.0329587683081626
-0.0362193509936332
-0.0380715727806091
-0.038542091846466
-0.0377420224249362
-0.0358518026769161
-0.0331038385629653
-0.0297633539885282
-0.0261038374155759
-0.0223777908831834
-0.0187932793051004
-0.0155034596100449
-0.0126023236662149
-0.0101213091984391
-0.0080305291339755
-0.0062481984496116
-0.0046577821485698
-0.0031292829662561
-0.0015402273274958
0.0002078982070088
0.0021805008873343
0.0044067278504371
0.0068796039558947
0.0095587410032749
0.0123766250908374
0.0152490679174661
0.0180854126811027
0.0207940228283405
0.0232877768576145
0.025494085624814
0.027364358305931
0.0288763977587223
0.030026001855731
0.0308063346892595
0.0311801601201295
0.0310571677982807
0.0302889123558998
0.0286874547600746
0.0260650850832462
0.0222861692309379
0.0173179041594266
0.0112632364034652
0.0043613142333924
-0.003043882548809
-0.0105493171140551
-0.0177387483417987
-0.0242254938930273
-0.0296884756535291
-0.0338953882455825
-0.0367116555571556
-0.0380998253822326
-0.0381148196756839
-0.0368958637118339
-0.0346522852778434
-0.0316426008939743
-0.0281483530998229
-0.0244438890367746
-0.0207677911967039
-0.0173057746142148
-0.0141862006857991
-0.0114789986982941
-0.0091937026008963
-0.007282807957381
-0.005653731059283
-0.0041849571280181
-0.0027438402175903
-0.0012050839141011
0.0005324627272784
0.0025327755138278
0.0048168241046369
0.007364931050688
0.0101232007145881
0.01301234588027
0.0159403849393129
0.0188138559460639
0.0215414613485336
0.024037355557084
0.02623101323843
0.0280772969126701
0.0295598525553941
0.0306846760213375
0.0314601063728332
0.0318665355443954
0.0318285040557384
0.0312038790434598
0.0297988932579755
0.0274070464074611
0.0238617714494466
0.0190903171896934
0.0131544573232531
0.0062620667740702
-0.0012562731280922
-0.0089931804686784
-0.0165148898959159
-0.0234061609953641
-0.0293078403919935
-0.0339466258883476
-0.0371536761522293
-0.0388692282140255
-0.0391361936926841
-0.0380890592932701
-0.0359393544495105
-0.0329548269510269
-0.0294327214360237
-0.0256687719374895
-0.021924689412117
-0.0184044409543275
-0.0152459498494863
-0.0125199947506189
-0.010229636915028
-0.0083154086023569
-0.0066697434522211
-0.0051568276248872
-0.0036337836645543
-0.0019713621586561
-7.271487265825272e-05
0.0021137846633791
0.0045918626710772
0.0073230415582656
0.0102366134524345
0.0132433343678712
0.0162511188536882
0.0191750098019838
0.0219377242028713
0.0244683623313903
0.0267069153487682
0.0286115128546953
0.0301580391824245
0.0313248485326767
0.0320651344954967
0.0322802104055881
0.0318126641213893
0.0304688327014446
0.0280619915574789
0.0244619529694318
0.0196403730660676
0.0137018151581287
0.0068924981169402
-0.0004207559395581
-0.0078013748861849
-0.0148051138967275
-0.0210319850593805
-0.026161266490817
-0.0299714356660842
-0.032347947359085
-0.0332826226949691
-0.032867532223463
-0.0312825888395309
-0.0287751257419586
-0.0256325230002403
-0.0221518017351627
-0.0186114981770515
-0.015246913768351
-0.0122280418872833
-0.0096486769616603
-0.0075321174226701
-0.0058422526344656
-0.0044919252395629
-0.0033546504564583
-0.0022837966680526
-0.0011349781416356
0.0002135122194886
0.0018454743549227
0.0037986382376402
0.0060631847009062
0.0085871219635009
0.0112889194861054
0.0140727525576949
0.0168417394161224
0.0195090137422084
0.0220020096749067
0.0242543555796146
0.0261882133781909
0.0276932790875434
0.0286119319498538
0.0287432428449392
0.0278694946318864
0.0257972031831741
0.0224039852619171
0.0176833923906087
0.0117738619446754
0.0049580787308514
-0.0023687058128416
-0.0097494563087821
-0.0167196057736873
-0.0228553283959627
-0.0278132315725088
-0.0313591584563255
-0.0333819054067134
-0.0338898450136184
-0.0329950489103794
-0.0308941882103681
-0.0278496500104665
-0.0241668913513422
-0.0201652385294437
-0.0161439813673496
-0.0123505052179098
-0.0089588332921266
-0.0060607180930674
-0.0036670234985649
-0.0017177015542984
-9.787920862436296e-05
0.0013399021700024
0.0027470565401017
0.0042526768520474
0.005947979632765
0.0078805861994624
0.0100557617843151
0.012442615814507
0.0149831846356391
0.0176023747771978
0.0202173553407192
0.0227459277957677
0.0251133553683757
0.0272576101124286
0.0291316919028759
0.0306985676288604
0.0319131575524807
0.0326917804777622
0.0328859910368919
0.0322822369635105
0.030632285401225
0.0277077127248048
0.0233646258711814
0.017595998942852
0.0105553567409515
0.0025495616719126
-0.0059945322573184
-0.0145818218588829
-0.0227089077234268
-0.0299213677644729
-0.0358575582504272
-0.0402714796364307
-0.0430363230407238
-0.0441396422684192
-0.0436791740357875
-0.0418534725904464
-0.0389377325773239
-0.035248726606369
-0.0311098247766494
-0.0268205143511295
-0.022631037980318
-0.018724737688899
-0.0152102531865239
-0.0121225332841277
-0.0094303991645574
-0.0070502995513379
-0.0048649092204868
-0.0027412823401391
-0.0005471687763929
0.001829563640058
0.0044600376859307
0.0073625994846224
0.0105055384337902
0.0138197336345911
0.0172132663428783
0.0205831192433834
0.023825466632843
0.0268467031419277
0.0295721367001533
0.0319494754076004
0.0339476130902767
0.0355483517050743
0.0367263928055763
0.0374209359288215
0.0375140719115734
0.0368290804326534
0.0351511463522911
0.0322717912495136
0.0280507840216159
0.0224723014980554
0.0156738329678773
0.0079430621117353
-0.0003136293962597
-0.0086243283003568
-0.0165122058242559
-0.0235487800091505
-0.0293932054191827
-0.0338148102164268
-0.0366990156471729
-0.0380410254001617
-0.0379323363304138
-0.0365453548729419
-0.034117616713047
-0.0309307407587766
-0.0272824801504611
-0.0234562084078788
-0.0196931455284357
-0.0161733906716108
-0.0130080189555883
-0.0102372989058494
-0.0078334333375096
-0.0057127713225781
-0.0037578991614282
-0.001842473866418
0.000148658407852
0.0023064466658979
0.0046907290816307
0.0073261596262454
0.0101979672908782
0.0132514424622058
0.0164006426930427
0.0195438172668218
0.022578814998269
0.0254145208746194
0.02797781676054
0.0302168987691402
0.0321030206978321
0.0336316339671611
0.0348173007369041
0.0356762148439884
0.0361983627080917
0.0363200232386589
0.0359094440937042
0.03477144241333
0.0326731204986572
0.0293928328901529
0.0247842036187648
0.018834363669157
0.0116942198947072
0.003671072423458
-0.0048096925020217
-0.0132609754800796
-0.0211969204246997
-0.0281911436468362
-0.0339182019233703
-0.0381715521216392
-0.0408632829785347
-0.0420143231749534
-0.0417374521493911
-0.0402178019285202
-0.0376979447901248
-0.0344620794057846
-0.0308104716241359
-0.0270277373492717
-0.0233552269637584
-0.0199720002710819
-0.016983076930046
-0.0144165884703397
-0.0122320661321282
-0.0103364028036594
-0.008603760972619
-0.0068980227224528
-0.0050945333205163
-0.0030959746800363
-0.0008401819504797
0.0016959407366812
0.0044934479519724
0.007493476383388
0.0106075834482908
0.0137329204007983
0.0167667232453823
0.0196168385446071
0.0222084634006023
0.0244877357035875
0.0264224633574485
0.0280013643205165
0.0292318537831306
0.0301364231854677
0.0307473167777061
0.031095890328288
0.03119214810431
0.0309941917657852
0.0303809214383363
0.0291512049734592
0.0270591210573911
0.0238729007542133
0.0194369591772556
0.013720890507102
0.0068447794765233
-0.000923378393054
-0.0091946376487612
-0.0175059139728546
-0.0253804512321949
-0.0323881842195987
-0.0381897091865539
-0.0425552278757095
-0.0453646183013916
-0.0466047152876853
-0.0463686361908912
-0.0448454692959785
-0.0422948785126209
-0.0390154719352722
-0.0353141799569129
-0.0314769931137561
-0.0277427528053522
-0.0242857709527015
-0.0212093777954578
-0.0185469388961792
-0.0162679515779018
-0.0142911970615386
-0.0125047992914915
-0.0107856411486864
-0.0090134115889668
-0.0070855398662388
-0.0049348738975822
-0.0025393113028258
8.103810250759125e-05
0.0028728945180773
0.0057611251249909
0.0086597166955471
0.0114802755415439
0.0141403013840317
0.0165722109377384
0.0187295693904161
0.0205885078758001
0.0221453681588172
0.0234096683561801
0.0243882294744253
0.0250603407621383
0.0253521613776683
0.0251240879297256
0.0241853315383195
0.022338468581438
0.0194373503327369
0.0154356900602579
0.0104136103764176
0.0045791249722242
-0.0017543127760291
-0.0082081761211156
-0.0143860075622797
-0.0199165232479572
-0.024487629532814
-0.0278703179210424
-0.0299310572445392
-0.0306327454745769
-0.0300300922244787
-0.0282656736671924
-0.0255610831081867
-0.0221938863396644
-0.0184636209160089
-0.0146569060161709
-0.0110178207978606
-0.0077264900319278
-0.0048878779634833
-0.0025309768971055
-0.0006165115628391
0.0009490884840488
0.002294604666531
0.0035616487730294
0.0048839761875569
0.0063716815784573
0.0080970376729965
0.0100824292749166
0.0122987981885671
0.0146762430667877
0.0171207245439291
0.0195325631648302
0.0218211319297552
0.0239119213074445
0.0257498584687709
0.0273025743663311
0.0285610947757959
0.0295340027660131
0.0302338562905788
0.0306565817445516
0.0307588744908571
0.0304442159831523
0.0295631662011146
0.0279282256960868
0.0253485646098852
0.0216811709105968
0.0168785899877548
0.0110178710892796
0.0043064095079898
-0.0029359413310885
-0.0103153316304087
-0.0174150038510561
-0.02384589985013
-0.0292852576822042
-0.0335002839565277
-0.0363580770790576
-0.0378223471343517
-0.0379411056637764
-0.0368355326354503
-0.034693531692028
-0.0317587181925773
-0.0283082854002714
-0.0246240776032209
-0.0209621712565422
-0.0175260063260793
-0.0144496215507388
-0.0117922611534595
-0.0095429988577961
-0.0076340474188327
-0.0059579918161034
-0.0043866047635674
-0.002792302519083
-0.0010674502700567
0.000865017529577
0.0030455314554274
0.0054711471311748
0.0080951917916536
0.0108387265354394
0.013606421649456
0.0162990987300872
0.0188234057277441
0.0211017429828643
0.0230813324451446
0.024737799540162
0.0260719861835241
0.0271030776202678
0.0278610419481992
0.0283781476318836
0.0286743398755788
0.0287337508052587
0.0284790936857461
0.0277594551444053
0.0263666417449712
0.0240798722952604
0.0207241382449865
0.0162250772118568
0.0106439311057329
0.0041814753785729
-0.0028463443741202
-0.0100505538284778
-0.0170193593949079
-0.0233663246035575
-0.0287689249962568
-0.0329947024583816
-0.0359111987054348
-0.0374793410301208
-0.0377422980964183
-0.0368183851242065
-0.0348911620676517
-0.032190516591072
-0.0289689451456069
-0.0254787858575582
-0.021950414404273
-0.0185712818056345
-0.0154701564460992
-0.012711277231574
-0.0102990129962563
-0.0081885177642107
-0.0062985196709632
-0.0045275157317519
-0.0027711139991879
-0.0009353128261864
0.0010509435087442
0.0032231467776
0.0055782590061426
0.0080817397683858
0.0106765385717153
0.0132929347455501
0.0158589705824852
0.018308088183403
0.0205828547477722
0.0226368159055709
0.0244364906102418
0.0259634498506784
0.0272151194512844
0.0282040275633335
0.0289570875465869
0.0295137129724025
0.0299156531691551
0.0301838628947734
0.0302888303995132
0.030128801241517
0.0295286774635314
0.0282627735286951
0.0260967202484607
0.022840604186058
0.0184003766626119
0.0128121571615338
0.0062500061467289
-0.000992152839899
-0.0085363071411848
-0.0159649066627025
-0.0228670127689838
-0.0288800224661827
-0.03372398391366
-0.0372253507375717
-0.0393246933817863
-0.0400676913559436
-0.0395854674279689
-0.0380709171295166
-0.0357543937861919
-0.0328795276582241
-0.0296813920140266
-0.0263698026537895
-0.0231174286454916
-0.0200511366128921
-0.0172476880252361
-0.0147349555045366
-0.0124959647655487
-0.0104736387729644
-0.0085824653506279
-0.0067296312190592
-0.0048332754522562
-0.0028298171237111
-0.0006765429861843
0.0016451063565909
0.0041275229305028
0.0067388471215963
0.0094280121847987
0.0121321324259042
0.0147854704409837
0.0173268299549818
0.0197032243013381
0.0218719132244586
0.0238034017384052
0.0254838541150093
0.0269128940999507
0.0280966814607381
0.0290425196290016
0.0297592394053936
0.0302599221467971
0.0305592510849237
0.0306598246097564
0.0305298250168561
0.0300819259136915
0.0291657969355583
0.0275835581123828
0.02512838691473
0.0216350201517343
0.0170257240533828
0.0113415550440549
0.0047564767301082
-0.0024329405277967
-0.0098475627601146
-0.0170800369232893
-0.0237432830035686
-0.0295086037367582
-0.0341324657201767
-0.0374678112566471
-0.0394610874354839
-0.0401426218450069
-0.0396170690655708
-0.0380525179207325
-0.035662792623043
-0.0326844751834869
-0.0293556340038776
-0.0258976239711046
-0.0224975179880857
-0.0192956291139125
-0.0163821969181299
-0.0137976426631212
-0.011533997952938
-0.0095418952405452
-0.0077424026094377
-0.0060399784706532
-0.0043355082161724
-0.0025397702120244
-0.0005852784961462
0.0015674917958676
0.0039280042983591
0.0064738471992313
0.0091528659686446
0.0118935611099004
0.0146182682365179
0.0172494873404502
0.0197097994387149
0.0219258479773998
0.0238387156277894
0.0254127606749534
0.0266395360231399
0.0275366827845573
0.0281406808644533
0.0284946635365486
0.0286310259252786
0.0285463966429233
0.0281771160662174
0.0273928474634885
0.0260153450071811
0.0238573551177978
0.0207740776240825
0.0167092271149158
0.0117165194824337
0.0059588886797428
-0.0003044791519641
-0.0067434418015182
-0.0129946516826748
-0.0187050737440586
-0.0235708970576524
-0.0273638069629669
-0.0299441367387771
-0.0312644988298416
-0.0313665270805358
-0.0303715132176876
-0.0284660104662179
-0.0258822981268167
-0.0228730086237192
-0.0196867119520902
-0.0165506713092327
-0.0136552611365914
-0.0111360363662242
-0.0090600717812776
-0.0074233058840036
-0.0061590364202857
-0.0051549365743994
-0.0042745247483253
-0.0033788010478019
-0.0023448597639799
-0.0010785991325974
0.0004763128235936
0.0023316321894526
0.0044569903984665
0.0067924642935395
0.0092590767890214
0.0117623191326856
0.0141983050853014
0.0164668187499046
0.0184848308563232
0.0201965011656284
0.0215774253010749
0.0226281639188528
0.0233548451215028
0.0237416699528694
0.0237268079072237
0.0231951083987951
0.0219938401132822
0.0199658423662185
0.0169916935265064
0.0130335800349712
0.008164370432496
0.0025673874188214
-0.0034855606500059
-0.0096642421558499
-0.0156151093542575
-0.0209989845752716
-0.0255252532660961
-0.0289778970181942
-0.0312302205711603
-0.0322477482259273
-0.032082051038742
-0.0308595951646566
-0.02876653149724
-0.0260271020233631
-0.0228771921247243
-0.0195395909249782
-0.0162090584635734
-0.0130481775850057
-0.0101821888238191
-0.0076878434047102
-0.0055861533619463
-0.0038441121578216
-0.0023823259398341
-0.0010881288908421
0.0001646438613533
0.0014932486228644
0.0029886974953114
0.0047062886878848
0.0066631971858441
0.008842478506267
0.0112000424414873
0.013672231696546
0.0161828622221946
0.0186473578214645
0.0209774784743785
0.0230910181999206
0.0249220207333564
0.026426512748003
0.0275851786136627
0.0284046530723571
0.0289143417030572
0.0291536692529916
0.0291486456990242
0.0288822911679744
0.0282711200416088
0.0271636918187141
0.0253680273890495
0.0226987730711698
0.0190236009657382
0.0142955649644136
0.0085745733231306
0.0020378078334033
-0.0050304667092859
-0.0122705642133951
-0.0192905813455581
-0.0257122013717889
-0.0312129408121109
-0.0355560332536697
-0.0386015996336936
-0.0403044261038303
-0.0407074131071567
-0.0399314127862453
-0.0381568931043148
-0.0355986393988132
-0.0324847176671028
-0.0290455482900142
-0.0255028065294027
-0.0220512654632329
-0.0188406836241483
-0.0159639455378055
-0.0134513657540082
-0.0112717263400554
-0.0093435961753129
-0.0075557623058557
-0.0057883821427822
-0.0039302362129092
-0.0018935650587081
0.0003753015771508
0.0028927708044648
0.0056397318840026
0.008564805611968
0.0115907024592161
0.01462481636554
0.0175711028277874
0.0203401818871498
0.0228571817278862
0.0250685717910528
0.0269476510584354
0.0284952409565448
0.0297332741320133
0.030694393441081
0.031411837786436
0.0319057069718837
0.0321595594286918
0.0320973806083202
0.0315790809690952
0.0304167829453945
0.0284055471420288
0.0253673680126667
0.0212012268602848
0.0159235745668411
0.0096859317272901
0.0027643775101751
-0.00447528809309
-0.0116266040131449
-0.0182930864393711
-0.0241302959620952
-0.0288739390671253
-0.0323535241186618
-0.034495435655117
-0.0353174433112144
-0.0349153168499469
-0.033447828143835
-0.0311250668019056
-0.0281944293528795
-0.0249183848500251
-0.0215467736124992
-0.0182907655835151
-0.0153047889471054
-0.0126778855919837
-0.010432044044137
-0.0085278153419494
-0.0068786200135946
-0.0053705037571489
-0.0038827857933938
-0.0023069372400641
-0.0005589565262198
0.001417881809175
0.0036514974199235
0.0061338571831583
0.0088175339624285
0.011624283157289
0.0144598139449954
0.0172268487513065
0.0198350027203559
0.0222084950655698
0.0242926385253667
0.0260579604655504
0.0274989288300275
0.0286301188170909
0.0294828079640865
0.0300956331193447
0.0304958000779151
0.0306756515055894
0.0305682737380266
0.0300316140055656
0.0288586392998695
0.0268177669495344
0.023709699511528
0.0194237306714057
0.0139778405427932
0.0075312489643692
0.0003695101477205
-0.0071301693096756
-0.0145456809550523
-0.0214617103338241
-0.0275167636573314
-0.0324359908699989
-0.0360452830791473
-0.0382685288786888
-0.0391193553805351
-0.0386971198022365
-0.0371795445680618
-0.0348025597631931
-0.0318326242268085
-0.0285385586321353
-0.0251644887030124
-0.0219087563455104
-0.0189123693853616
-0.0162542276084423
-0.0139515791088342
-0.0119675723835825
-0.0102256573736667
-0.0086261425167322
-0.0070604574866592
-0.0054228585213422
-0.0036226296797394
-0.0015989942476153
0.0006675361655652
0.0031557199545204
0.0058132293634116
0.0085677783936262
0.0113378288224339
0.0140427388250827
0.0166098587214946
0.0189782977104187
0.0211019590497016
0.0229516848921775
0.0245146956294775
0.0257922578603029
0.0267986413091421
0.0275615341961383
0.0281148068606853
0.0284743569791317
0.0286061856895685
0.0284063331782817
0.0277017392218112
0.0262736361473798
0.0239030122756958
0.0204264111816883
0.0157840326428413
0.0100482814013957
0.0034273909404873
-0.0037550264969468
-0.0110992044210433
-0.0181799009442329
-0.0245971921831369
-0.0300160944461822
-0.0341928228735923
-0.0369906201958656
-0.0383832417428493
-0.0384454354643821
-0.0373360365629196
-0.0352764762938022
-0.0325248911976814
-0.0293496903032064
-0.0260057114064693
-0.0227130390703678
-0.0196399912238121
-0.0168925039470195
-0.0145116709172725
-0.0124791841953992
-0.0107267228886485
-0.0091479439288377
-0.0076177553273737
-0.0060174348764121
-0.0042541963048279
-0.0022695115767419
-4.040682688355446e-05
0.0024220687337219
0.0050767622888088
0.0078596239909529
0.0106928450986742
0.013493594713509
0.0161821730434894
0.0186889991164207
0.0209596697241067
0.0229589268565177
0.0246736705303192
0.0261134766042232
0.0273057650774717
0.0282826516777277
0.0290595777332782
0.0296107754111289
0.0298500061035156
0.0296256467700004
0.0287365075200796
0.0269682854413986
0.0241428036242723
0.0201679095625877
0.0150751275941729
0.0090332636609673
0.0023337071761488
-0.004645949229598
-0.0114892739802598
-0.0177891869097948
-0.023190489038825
-0.0274246130138635
-0.0303304903209209
-0.0318565368652343
-0.0320505984127521
-0.0310473348945379
-0.0290546771138906
-0.0263346079736948
-0.0231751166284084
-0.0198583416640758
-0.0166323371231555
-0.0136884665116667
-0.0111456355080008
-0.0090460395440459
-0.0073612369596958
-0.0060025202110409
-0.0048388638533651
-0.0037251152098178
-0.0025291279889643
-0.0011488213203847
0.0004793968982994
0.0023784493096172
0.0045338375493884
0.006901650223881
0.0094187809154391
0.0120111424475908
0.0145995020866394
0.0171061623841524
0.019462302327156
0.0216129533946514
0.0235190652310848
0.0251565501093864
0.0265062768012285
0.0275293365120887
0.0281373597681522
0.0281785726547241
0.027452003210783
0.0257467702031135
0.0228936187922954
0.0188142210245132
0.013555696234107
0.0073011643253266
0.0003545905929058
-0.006893859244883
-0.0140143577009439
-0.0205875821411609
-0.0262470692396163
-0.0307078845798969
-0.0337861739099025
-0.0354118458926677
-0.0356281213462352
-0.0345755741000175
-0.0324671193957328
-0.0295608229935169
-0.0261345095932483
-0.0224623940885067
-0.0187925547361373
-0.0153269134461879
-0.0122074298560619
-0.009509427472949
-0.0072408854030072
-0.0053494097664952
-0.0037357821129262
-0.0022690119221806
-0.0008057374507188
0.0007829423993825
0.0025876211002469
0.0046517811715602
0.0069773430004715
0.009535034187138
0.0122719332575798
0.0151157286018133
0.0179785639047622
0.020762450993061
0.0233681518584489
0.0257075056433677
0.0277145914733409
0.029351670295
0.0306097511202096
0.0315000899136066
0.0320295318961143
0.0321648567914962
0.0318061858415603
0.0307854227721691
0.028891822323203
0.0259188842028379
0.0217206291854381
0.0162604339420795
0.0096397995948791
0.0021016201935708
-0.0059934365563094
-0.0142111331224441
-0.0220960602164268
-0.0292230062186718
-0.0352401249110698
-0.0398955792188644
-0.0430469550192356
-0.044661309570074
-0.0448084101080894
-0.0436452180147171
-0.0413938164710998
-0.0383161529898643
-0.0346881188452243
-0.0307761579751968
-0.0268178861588239
-0.0230049341917037
-0.0194682404398918
-0.0162712261080741
-0.0134129039943218
-0.010836336761713
-0.0084406761452555
-0.0060992548242211
-0.0036849547177553
-0.0010972367599606
0.0017203204333782
0.0047776866704225
0.0080472100526094
0.011475027538836
0.0149906007573008
0.0185158550739288
0.0219716690480709
0.0252796225249767
0.0283654946833848
0.0311672315001487
0.0336412116885185
0.0357644222676754
0.0375359617173671
0.0389757491648197
0.0401091091334819
0.0409321449697017
0.0413730293512344
0.0412738062441349
0.0404051356017589
0.0385082587599754
0.0353527702391147
0.0307982750236988
0.0248434841632843
0.0176475886255502
0.009519275277853
0.0008799047209322
-0.0077889114618301
-0.0160040706396102
-0.0233336314558982
-0.0294335167855024
-0.0340706743299961
-0.0371353365480899
-0.0386377684772014
-0.0386904515326023
-0.0374838449060916
-0.0352623015642166
-0.0323011390864849
-0.028882997110486
-0.0252746287733316
-0.0217058882117271
-0.0183519497513771
-0.0153228035196661
-0.0126625271514058
-0.0103556495159864
-0.0083368131890892
-0.0065023745410144
-0.0047277826815843
-0.0028927903622388
-0.0009044371545314
0.0012929551303386
0.0037186006084084
0.0063595785759389
0.0091751674190163
0.0121028330177068
0.0150677561759948
0.0179925058037042
0.0208028610795736
0.0234303772449493
0.0258156508207321
0.0279142782092094
0.0297023802995681
0.0311776865273714
0.0323534719645977
0.0332432016730308
0.033837117254734
0.0340765416622161
0.0338358394801616
0.0329239070415496
0.0311108380556106
0.0281747728586196
0.0239574536681175
0.0184152070432901
0.011650844477117
0.003916148096323
-0.0044143106788396
-0.0128895435482263
-0.0210370980203151
-0.0284151695668697
-0.0346571058034896
-0.0395053997635841
-0.0428276881575584
-0.0446111969649791
-0.0449419543147087
-0.0439802519977092
-0.0419402122497558
-0.039073172956705
-0.035649761557579
-0.0319381989538669
-0.0281812995672225
-0.0245753843337297
-0.0212551653385162
-0.0182879846543073
-0.0156753826886415
-0.0133598763495683
-0.0112407570704817
-0.0091986423358321
-0.0071182786487042
-0.0049043241888284
-0.0024925642646849
0.0001445687084924
0.0029986919835209
0.0060294861905276
0.0091710723936557
0.0123413186520338
0.0154530927538871
0.0184242893010377
0.0211843699216842
0.0236782394349575
0.0258711222559213
0.0277545507997274
0.029343256726861
0.0306586306542158
0.0317086465656757
0.032467670738697
0.0328550785779953
0.0327236354351043
0.0318700745701789
0.0300692934542894
0.027123836800456
0.0229161474853754
0.0174513328820467
0.0108793480321764
0.003488496877253
-0.0043279193341732
-0.0121195539832115
-0.0194299276918172
-0.0258472077548503
-0.0310490429401397
-0.0348290167748928
-0.0371016860008239
-0.0378938093781471
-0.0373284593224525
-0.0356050282716751
-0.0329771004617214
-0.0297303237020969
-0.0261581800878047
-0.0225335750728845
-0.0190820954740047
-0.0159632787108421
-0.0132622066885232
-0.0109910648316144
-0.0090971384197473
-0.0074777472764253
-0.0060033006593585
-0.0045414688065648
-0.0029761672485619
-0.0012206264073029
0.0007759176660329
0.0030275024473667
0.005513347685337
0.0081803584471344
0.0109494943171739
0.0137282907962799
0.0164253078401088
0.0189607627689838
0.0212718807160854
0.0233142580837011
0.0250554792582988
0.0264533050358295
0.0274236518889665
0.0278206877410411
0.0274465419352054
0.0260880030691623
0.0235676802694797
0.0197963807731866
0.0148117607459425
0.0087916553020477
0.0020402558147907
-0.0050468831323087
-0.0120309218764305
-0.0184827633202075
-0.0240297708660364
-0.028384905308485
-0.031358141452074
-0.0328618511557579
-0.0329167693853378
-0.0316506139934062
-0.029281398281455
-0.0260894354432821
-0.0223865061998367
-0.0184855964034795
-0.0146702323108911
-0.0111665185540914
-0.0081242453306913
-0.0056090340949594
-0.0036054574884474
-0.0020302387420088
-0.000751584302634
0.0003885876503773
0.0015513971447944
0.0028771115466952
0.0044631082564592
0.0063523668795824
0.0085355304181575
0.0109600499272346
0.0135419210419058
0.0161795299500226
0.0187687873840332
0.0212166868150234
0.0234494265168905
0.0254134498536586
0.0270678550004959
0.028365321457386
0.0292250998318195
0.029513657093048
0.0290499422699213
0.0276343505829572
0.0250884350389242
0.0212995894253253
0.0162630807608366
0.0101071139797568
0.0030936216935515
