bvp
0.0215229894965887
0.0244681499898433
0.0271740946918725
0.0295533034950494
0.0314961597323417
0.0328478701412677
0.0334006585180759
0.0329144559800624
0.0311628747731447
0.0279882624745368
0.0233512595295906
0.0173607133328914
0.0102730290964245
0.0024649566039443
-0.0056102802045643
-0.0134753743186593
-0.0206801034510135
-0.0268424749374389
-0.031675562262535
-0.0350000038743019
-0.0367451347410678
-0.0369429588317871
-0.0357170701026916
-0.033266894519329
-0.0298492740839719
-0.0257566254585981
-0.0212887693196535
-0.0167245399206876
-0.0123015642166137
-0.0082011008635163
-0.0045344778336584
-0.0013375151902437
0.001422002678737
0.0038273124955594
0.0059919226914644
0.0080384816974401
0.0100801270455122
0.012206763960421
0.0144760776311159
0.0169094819575548
0.0194938667118549
0.0221880376338958
0.024932948872447
0.0276607237756252
0.03029665350914
0.032759241759777
0.0349624119699001
0.0368110723793506
0.0381829850375652
0.0389080196619033
0.0387665703892707
0.037516564130783
0.034940555691719
0.030899541452527
0.0253797899931669
0.0185190290212631
0.0106045743450522
0.0020457655191421
-0.0066714584827423
-0.0150431804358959
-0.0226116590201854
-0.0290136374533176
-0.0339994952082634
-0.0374328568577766
-0.0392827987670898
-0.0396125800907611
-0.0385654047131538
-0.0363469943404197
-0.0332069881260395
-0.0294199995696544
-0.0252639222890138
-0.0209970641881227
-0.0168395396322011
-0.0129576921463012
-0.0094485990703105
-0.0063356435857713
-0.0035853902809321
-0.0011326785897836
0.0011044226121157
0.0032177926041185
0.00529898237437
0.0074252695776522
0.0096490858122706
0.011993633583188
0.0144534325227141
0.0169975887984037
0.0195749681442976
0.0221215430647134
0.0245687421411275
0.0268521755933761
0.0289203114807605
0.0307376515120267
0.0322777740657329
0.0335078462958335
0.0343662835657596
0.0347391739487648
0.034449964761734
0.0332751795649528
0.0309868976473808
0.0274095311760902
0.0224714465439319
0.0162370763719081
0.008913698606193
0.0008321888744831
-0.0075916834175586
-0.0159037243574857
-0.0236577875912189
-0.0304613634943962
-0.0360151305794715
-0.0401334501802921
-0.0427418947219848
-0.043863721191883
-0.0436061583459377
-0.0421461090445518
-0.0397129729390144
-0.0365688428282737
-0.0329856388270854
-0.0292217545211315
-0.0255016759037971
-0.0219984278082847
-0.0188196916133165
-0.0160010792315006
-0.0135104116052389
-0.0112648429349064
-0.0091568678617477
-0.0070793032646179
-0.0049423584714531
-0.0026833352167159
-0.0002699180040508
0.002302311360836
0.0050141932442784
0.0078267343342304
0.0106854131445288
0.01352593395859
0.016281658783555
0.0188920013606548
0.0213076099753379
0.0234888568520545
0.025397265329957
0.0269742980599403
0.0281094647943973
0.0286228470504283
0.0282826535403728
0.0268512926995754
0.0241420306265354
0.0200714152306318
0.0146955214440822
0.0082204947248101
0.0009847152978181
-0.0065824696794152
-0.014015669003129
-0.0208685118705034
-0.0267578735947608
-0.0313916467130184
-0.0345802567899227
-0.0362405031919479
-0.0363978669047355
-0.0351815186440944
-0.0328056812286376
-0.0295421443879604
-0.0256913844496011
-0.0215531252324581
-0.0173977930098772
-0.0134435426443815
-0.0098406244069337
-0.0066644814796745
-0.0039210580289363
-0.0015620216727256
0.0004978347569704
0.0023653898388147
0.0041570197790861
0.0059848851524293
0.0079377172514796
0.0100641343742609
0.0123673286288976
0.0148114282637834
0.0173354726284742
0.0198679864406585
0.0223377365618944
0.0246794447302818
0.0268301498144865
0.0287132319062948
0.0302150547504425
0.0311682354658842
0.0313579440116882
0.0305564031004905
0.0285742916166782
0.02530880831182
0.0207736454904079
0.0151098426431417
0.0085800644010305
0.0015440841671079
-0.0055824080482125
-0.0123749654740095
-0.018443364650011
-0.0234655272215604
-0.0272096656262874
-0.0295449327677488
-0.0304438397288322
-0.0299771446734666
-0.0283003225922584
-0.0256326142698526
-0.0222314447164535
-0.0183690525591373
-0.0143147390335798
-0.0103159639984369
-0.0065756188705563
-0.0032337722368538
-0.0003608199767768
0.002039554528892
0.0040217544883489
0.0056836465373635
0.0071456963196396
0.0085286404937505
0.009935338050127
0.0114398654550313
0.0130839552730321
0.014879485592246
0.0168147813528776
0.0188588257879018
0.0209604371339082
0.0230490807443857
0.0250425152480602
0.0268561840057373
0.0284038800746202
0.029583740979433
0.0302583687007427
0.0302472542971372
0.0293425936251878
0.0273474995046854
0.0241247415542602
0.0196393653750419
0.0139839090406894
0.0073830811306834
0.000177439302206
-0.0072157816030085
-0.0143590122461318
-0.0208498071879148
-0.0263613499701023
-0.0306634828448295
-0.0336252823472023
-0.0352095663547515
-0.0354667641222476
-0.0345234610140323
-0.0325641855597496
-0.0298119876533746
-0.0265104379504919
-0.022905858233571
-0.019228333607316
-0.0156715102493762
-0.0123747158795595
-0.0094157429412007
-0.0068177198991179
-0.0045613031834363
-0.0025937384925782
-0.0008364666718989
0.0008031510515138
0.0024162435438483
0.0040791439823806
0.0058459164574742
0.0077447150833904
0.0097753964364528
0.0119092036038637
0.0140930600464344
0.0162584464997053
0.0183342415839433
0.0202619936317205
0.0220039039850235
0.0235370695590972
0.0248412974178791
0.0258841942995786
0.0266011506319046
0.0268766097724437
0.0265398249030113
0.0253845062106847
0.0232108645141124
0.0198768004775047
0.0153415463864803
0.0096907122060656
0.0031389752402901
-0.0039892592467367
-0.011296653188765
-0.0183585360646247
-0.0247711986303329
-0.0301970448344945
-0.0343948267400264
-0.0372296199202537
-0.0386685132980346
-0.0387683175504207
-0.0376600921154022
-0.0355331562459468
-0.0326179005205631
-0.029166268184781
-0.0254308450967073
-0.0216448064893484
-0.0180037133395671
-0.0146501781418919
-0.0116627663373947
-0.0090524768456816
-0.0067738462239503
-0.0047485255636274
-0.0028865388594567
-0.0010982076637446
0.0006985068321228
0.0025713818613439
0.0045672813430428
0.0067068608477711
0.0089830253273248
0.0113636646419763
0.0137975886464118
0.0162227116525173
0.0185756999999284
0.0208000279963016
0.0228500459343194
0.0246931556612253
0.02630858682096
0.0276788864284753
0.0287765692919492
0.0295475851744413
0.02989356033504
0.0296649299561977
0.0286758374422788
0.0267386548221111
0.0237085595726966
0.0195266064256429
0.0142506575211882
0.0080670416355133
0.0012774197384715
-0.0057382173836231
-0.0125701874494552
-0.0188251212239265
-0.0241646952927112
-0.0283375531435012
-0.0311976317316293
-0.0327036306262016
-0.0329067893326282
-0.0319352038204669
-0.0299770403653383
-0.0272617414593696
-0.0240382030606269
-0.0205539278686046
-0.017037970945239
-0.0136847654357552
-0.0106393033638596
-0.0079869255423545
-0.0057481816038489
-0.0038816309534013
-0.0022996710613369
-0.0008939751423895
0.0004410943947732
0.0017946250736713
0.003233466297388
0.004799738060683
0.0065093236044049
0.0083528896793723
0.0102998074144124
0.0123043246567249
0.0143139120191335
0.016277153044939
0.0181485079228878
0.0198896080255508
0.0214697383344173
0.0228658430278301
0.0240506213158369
0.0249637383967638
0.0254861172288656
0.0254397746175527
0.0246152449399232
0.0228151474148035
0.0199023485183715
0.0158428214490413
0.0107324216514825
0.0047982968389987
-0.0016269413754343
-0.008149629458785
-0.0143651738762855
-0.0199030824005603
-0.0244586374610662
-0.0278104674071073
-0.0298330336809158
-0.0305073335766792
-0.0299194045364856
-0.0282420236617326
-0.025708183646202
-0.0225831922143697
-0.0191372390836477
-0.0156211983412504
-0.012249156832695
-0.0091866198927164
-0.0065408288501203
-0.0043546915985643
-0.0026081521064043
-0.0012277597561478
-0.0001021469943225
0.0008998862467706
0.001908212667331
0.0030283483210951
0.0043262061662971
0.0058263940736651
0.0075183883309364
0.0093641821295022
0.0113070886582136
0.0132829835638403
0.0152315665036439
0.0171029493212699
0.0188557710498571
0.0204441081732511
0.0217956323176622
0.0227926988154649
0.0232697483152151
0.023031985387206
0.0218885485082864
0.0196893289685249
0.0163613557815551
0.0119405779987573
0.00658745970577
0.0005777657497674
-0.0057297917082905
-0.0119386008009314
-0.0176601652055978
-0.0225546229630708
-0.0263610538095235
-0.0289142243564128
-0.0301490128040313
-0.0300959162414073
-0.0288687665015459
-0.0266448594629764
-0.0236451532691717
-0.0201210565865039
-0.0163386054337024
-0.0125534255057573
-0.0089854961261153
-0.0057995580136775
-0.0030909474007785
-0.0008820709772408
0.0008675819262862
0.0022452655248343
0.0033687958493828
0.0043686185963451
0.0053683458827435
0.0064699267968535
0.0077475346624851
0.0092463046312332
0.0109774768352508
0.0129103809595108
0.0149751640856266
0.017081081867218
0.0191354900598526
0.0210542157292366
0.0227680206298828
0.0242228265851736
0.0253641661256551
0.0261108428239822
0.0263365507125854
0.0258720777928829
0.0245292652398347
0.0221421550959348
0.0186163950711488
0.0139718670397996
0.008359408006072
0.0020449794828891
-0.004625522531569
-0.011267352849245
-0.0174995809793472
-0.0229839924722909
-0.027452677488327
-0.0307222846895456
-0.0326989628374576
-0.0333776026964187
-0.0328353010118007
-0.031216949224472
-0.0287160798907279
-0.0255588218569755
-0.0219884850084781
-0.0182432774454355
-0.0145349968224763
-0.0110378433018922
-0.0078802276402711
-0.005134496372193
-0.0028124963864684
-0.0008721612393856
0.0007692812941968
0.0022193985059857
0.0035927169956266
0.0049935313872992
0.006502001080662
0.0081653092056512
0.0099964588880538
0.0119798481464385
0.0140791740268468
0.0162450037896633
0.0184200406074523
0.0205415822565555
0.0225446857511997
0.0243676360696554
0.025956530123949
0.0272628869861364
0.0282284915447235
0.028762524947524
0.028727414086461
0.0279465541243553
0.0262349247932434
0.0234443098306655
0.0195082761347293
0.0144722582772374
0.0085031911730766
0.001879567746073
-0.0050384337082505
-0.0118551552295684
-0.0181891806423664
-0.0237135421484708
-0.0281805619597435
-0.0314312614500522
-0.0333949476480484
-0.0340844132006168
-0.0335856899619102
-0.0320431031286716
-0.02964498847723
-0.026610791683197
-0.0231755319982767
-0.0195697732269763
-0.0159972012042999
-0.0126153426244854
-0.009526589885354
-0.0067817540839314
-0.0043881866149604
-0.0023149698972702
-0.0004989048466086
0.0011435495689511
0.0027020736597478
0.0042608785443007
0.0058889603242278
0.0076319333165884
0.0095086656510829
0.0115131437778472
0.0136180985718965
0.0157785378396511
0.0179371889680624
0.0200341511517763
0.0220147930085659
0.0238289702683687
0.0254275575280189
0.0267598703503608
0.0277628321200609
0.0283416602760553
0.0283568240702152
0.027630541473627
0.0259764418005943
0.023244708776474
0.0193671341985464
0.0143882911652326
0.0084761604666709
0.0019100750796496
-0.0049506551586091
-0.0117071978747844
-0.0179652422666549
-0.0233810152858495
-0.0276971999555826
-0.0307572800666093
-0.0325024202466011
-0.0329608954489231
-0.0322355218231678
-0.0304904151707887
-0.0279349442571401
-0.0248037204146385
-0.0213367864489555
-0.0177619438618421
-0.014277109876275
-0.0110350511968135
-0.0081332800909876
-0.0056091514416038
-0.0034449596423655
-0.0015852216165512
4.455563612282276e-05
0.0015269939322024
0.0029453448951244
0.0043741790577769
0.0058716917410492
0.007476124446839
0.0092042982578277
0.0110506489872932
0.012987470254302
0.0149693451821804
0.0169419329613447
0.0188498832285404
0.0206416975706815
0.0222745742648839
0.0237181317061185
0.0249501671642065
0.0259411111474037
0.0266325064003467
0.0269204415380954
0.0266538523137569
0.0256524216383695
0.0237417072057724
0.0207965858280658
0.0167809762060642
0.0117725785821676
0.0059659881517291
-0.0003464464098215
-0.0068105021491646
-0.0130513925105333
-0.0187115278095006
-0.0234856829047203
-0.0271531008183956
-0.0295947901904582
-0.0307895876467227
-0.0307997465133667
-0.0297571178525686
-0.0278483517467975
-0.0252965353429317
-0.0223426353186368
-0.0192272402346134
-0.0161705315113067
-0.0133523540571331
-0.0108960727229714
-0.0088586378842592
-0.0072288746014237
-0.0059361383318901
-0.0048708454705774
-0.0039128502830863
-0.0029552904888987
-0.0019156517228111
-0.0007381564355455
0.0006061085732653
0.0021194883156567
0.0037804963067173
0.0055510262027382
0.0073847966268658
0.0092328423634171
0.0110461646690964
0.012775620445609
0.0143670309334993
0.0157500710338354
0.0168229956179857
0.0174415800720453
0.0174241382628679
0.0165789611637592
0.0147468764334917
0.011843666434288
0.0078915320336818
0.0030341148376464
-0.0024698132183402
-0.008275581523776
-0.0139965843409299
-0.0192507747560739
-0.023703146725893
-0.0270979963243007
-0.0292742550373077
-0.0301666893064975
-0.029800584539771
-0.028284216299653
-0.0258004199713468
-0.0225933119654655
-0.0189447589218616
-0.0151421809569001
-0.011445615440607
-0.0080613940954208
-0.0051248841919004
-0.002693838905543
-0.0007539582438766
0.0007664165459573
0.0019777282141149
0.0030091635417193
0.00398855144158
0.0050268690101802
0.0062110563740134
0.0075992345809936
0.0092120943590998
0.0110283503308892
0.0129923410713672
0.0150273069739341
0.0170480925589799
0.0189739186316728
0.0207385532557964
0.0222920440137386
0.0235882345587015
0.0245592221617698
0.0250935833901166
0.0250363703817129
0.0242117084562778
0.0224600825458765
0.0196827091276645
0.0158775690943002
0.0111523913219571
0.005717892665416
-0.0001309864455834
-0.0060461838729679
-0.0116669721901416
-0.0166602991521358
-0.0207526441663503
-0.0237500350922346
-0.0255473610013723
-0.0261292215436697
-0.025563919916749
-0.0239913873374462
-0.0216065179556608
-0.0186395421624183
-0.0153326215222477
-0.0119154173880815
-0.008587485179305
-0.0055087842047214
-0.0027922946028411
-0.0004957620985805
0.0013823243789374
0.0028960274066776
0.0041363472118973
0.0052132038399577
0.0062382505275309
0.0073092719539999
0.0084987748414278
0.0098488219082355
0.0113705229014158
0.0130477948114275
0.0148453060537576
0.016715507954359
0.0186005420982837
0.0204323045909404
0.0221374500542879
0.0236482787877321
0.0249101631343364
0.0258746724575757
0.0264784526079893
0.0266216322779655
0.0261625330895185
0.0249347817152738
0.0227817744016647
0.0195981673896312
0.0153655633330345
0.0101740043610334
0.0042268317192792
-0.0021762002725154
-0.0086790956556797
-0.0149186542257666
-0.0205656029284
-0.0253526214510202
-0.029089268296957
-0.0316653996706008
-0.0330477282404899
-0.0332734063267707
-0.032441422343254
-0.0307024158537387
-0.0282467529177665
-0.0252894535660743
-0.0220522973686456
-0.01874372176826
-0.0155382305383682
-0.0125630740076303
-0.0098966974765062
-0.0075717167928814
-0.0055771227926015
-0.0038630319759249
-0.0023496162611991
-0.0009397347457706
0.000463925069198
0.0019421628676354
0.0035504810512065
0.0053164856508374
0.0072386264801025
0.0092879999428987
0.0114158168435096
0.0135650159791111
0.0156806297600269
0.0177109744399786
0.0196024775505065
0.0213017743080854
0.0227661058306694
0.0239696316421031
0.0248969867825508
0.025523031130433
0.0257863495498895
0.0255726408213377
0.0247219260782003
0.0230596270412206
0.0204385463148355
0.0167783591896295
0.0120953097939491
0.0065176761709153
0.0002830489538609
-0.0062859505414962
-0.0128243155777454
-0.0189723689109087
-0.0244152545928955
-0.0289084147661924
-0.0322891101241111
-0.0344771295785903
-0.03546804189682
-0.0353236682713031
-0.0341633446514606
-0.0321538262069225
-0.0294952224940061
-0.0264037773013114
-0.0230931229889392
-0.0197550877928733
-0.0165407117456197
-0.0135485343635082
-0.0108283283188939
-0.0083928816020488
-0.006225548684597
-0.0042833569459617
-0.002501459326595
-0.0008030436001718
0.0008865622803568
0.0026283701881766
0.0044653844088315
0.006422787439078
0.0085068577900528
0.0107021071016788
0.0129716647788882
0.0152644515037536
0.0175267122685909
0.0197078622877597
0.0217566322535276
0.02361929602921
0.0252469200640916
0.0266040340065956
0.0276728756725788
0.0284548252820968
0.0289670787751674
0.0292264055460691
0.0292191319167614
0.0288721676915884
0.0280456785112619
0.026554649695754
0.0242095664143562
0.0208663940429687
0.0164758190512657
0.011110552586615
0.0049591842107474
-0.0017003272660076
-0.0085336007177829
-0.015185191296041
-0.0213129203766584
-0.0266187563538551
-0.030873667448759
-0.0339313149452209
-0.0357302203774452
-0.0362894795835018
-0.03570157289505
-0.0341222062706947
-0.0317552611231803
-0.0288309138268232
-0.0255800411105155
-0.0222149230539798
-0.0189198050647974
-0.0158426947891712
-0.0130847981199622
-0.0106929028406739
-0.0086576174944639
-0.006918916478753
-0.0053813094273209
-0.0039349012076854
-0.0024736206978559
-0.0009084483608603
0.0008215098641812
0.0027426222804933
0.0048484480939805
0.0071091786958277
0.0094828065484762
0.0119177140295505
0.0143483821302652
0.0166973806917667
0.0188864432275295
0.020847974345088
0.022532882168889
0.0239168424159288
0.0250031761825084
0.0258182901889085
0.0263994671404361
0.0267742350697517
0.0269326735287904
0.0268047284334898
0.0262564253062009
0.0251093953847885
0.0231793671846389
0.0203207954764366
0.0164643693715333
0.0116426954045891
0.0060001756064593
-0.0002179006114602
-0.0066936346702277
-0.0130736697465181
-0.0190082788467407
-0.0241864528506994
-0.0283633321523666
-0.031377624720335
-0.0331572592258453
-0.0337159410119056
-0.0331442207098007
-0.0315946713089942
-0.029263149946928
-0.0263727381825447
-0.0231609214097261
-0.0198637712746858
-0.0166947338730096
-0.0138221150264143
-0.0113515481352806
-0.0093175284564495
-0.0076857702806591
-0.0063662286847829
-0.0052341064438223
-0.0041538695804774
-0.003000644268468
-0.0016759233549237
-0.0001175738871097
0.001696441322565
0.003752329852432
0.00600804714486
0.0083977542817592
0.0108374822884798
0.0132356053218245
0.0155034605413675
0.017565295100212
0.0193672571331262
0.0208775121718645
0.0220708008855581
0.0229024998843669
0.0232870113104581
0.0230940338224172
0.0221668351441621
0.0203574988991022
0.0175700653344392
0.0137993022799491
0.0091494219377636
0.0038257928099483
-0.0018913446692749
-0.0076789963059127
-0.0132036618888378
-0.0181515887379646
-0.0222556516528129
-0.0253163073211908
-0.0272132698446512
-0.027908656746149
-0.0274466183036565
-0.0259497910737991
-0.0236061457544565
-0.0206463485956192
-0.0173180140554904
-0.0138588324189186
-0.0104742813855409
-0.0073267398402094
-0.0045303292572498
-0.002145707141608
-0.0001787994988262
0.0014132694341242
0.002711774315685
0.0038242740556597
0.0048689199611544
0.0059551987797021
0.0071676950901746
0.0085573913529515
0.0101394020020961
0.0118962619453668
0.01378701813519
0.0157592557370662
0.0177557878196239
0.0197135396301746
0.0215634051710367
0.0232318192720413
0.0246337577700614
0.0256572309881448
0.0261531937867403
0.025942537933588
0.0248414706438779
0.0226997211575508
0.0194414164870977
0.0150965042412281
0.0098128803074359
0.003845922416076
-0.0024687980767339
-0.0087519232183694
-0.0146237490698695
-0.019749840721488
-0.0238761696964502
-0.0268456544727087
-0.0285984594374895
-0.0291613992303609
-0.0286327898502349
-0.0271683540195226
-0.0249667465686798
-0.0222511999309062
-0.019249165430665
-0.0161737017333507
-0.0132074318826198
-0.010488842613995
-0.0081011783331632
-0.0060664745979011
-0.004351656883955
-0.0028866659849882
-0.0015835622325539
-0.0003504129126667
0.0008989451453089
0.0022389031946659
0.0037281760014593
0.0054046465083956
0.0072795953601598
0.0093357656151056
0.011530851945281
0.0138041479513049
0.016085036098957
0.0183035656809806
0.0204008184373378
0.0223330911248922
0.0240624994039535
0.0255323592573404
0.0266405902802944
0.0272299144417047
0.0271023511886596
0.0260536670684814
0.0239172764122486
0.0206062011420726
0.0161445047706365
0.0106802396476268
0.004475565161556
-0.00212261849083
-0.008724276907742
-0.0149416308850049
-0.0204284638166427
-0.0249074529856443
-0.0281880088150501
-0.0301774200052022
-0.0308821555227041
-0.0303964391350746
-0.0288817435503005
-0.0265448745340108
-0.023617397993803
-0.0203342363238334
-0.0169137846678495
-0.0135438703000545
-0.0103716533631086
-0.0074953087605535
-0.0049603004008531
-0.0027614422142505
-0.0008488744497299
0.0008619045838713
0.0024741282686591
0.0040885652415454
0.0057837776839733
0.0076066148467361
0.009573214687407
0.011672955006361
0.0138722993433475
0.0161205884069204
0.0183570608496665
0.020518546923995
0.0225477553904056
0.0243989378213882
0.0260392371565103
0.027446910738945
0.0286063738167285
0.0294956509023904
0.0300616975873708
0.0301946569234132
0.0297236163169145
0.028443120419979
0.0261609405279159
0.022749638184905
0.0181868616491556
0.0125759523361921
0.006143121048808
-0.0007868809625506
-0.0078296493738889
-0.0145870875567197
-0.0206925868988037
-0.0258467569947242
-0.0298365708440542
-0.0325381271541118
-0.0339139886200428
-0.0340128205716609
-0.0329646915197372
-0.0309661589562892
-0.0282585863023996
-0.0251024980098009
-0.0217502061277627
-0.0184216722846031
-0.0152862258255481
-0.012452402152121
-0.009968769736588
-0.0078317802399396
-0.0059950426220893
-0.0043795937672257
-0.0028850608505308
-0.0014027698198333
0.0001662893919274
0.0018920951988548
0.0038042343221604
0.0058926222845911
0.0081163886934518
0.0104153649881482
0.0127214677631855
0.0149681009352207
0.0170948170125484
0.0190486758947372
0.0207866784185171
0.0222801174968481
0.0235180146992206
0.0245061535388231
0.0252610091120004
0.0257976092398166
0.0261055529117584
0.0261181276291608
0.0256978571414947
0.0246533248573541
0.0227797031402587
0.0199093110859394
0.0159600600600242
0.0109682213515043
0.0050961291417479
-0.0013841530308127
-0.0081248879432678
-0.0147470999509096
-0.0208853594958782
-0.0262234397232532
-0.030515881255269
-0.0335979051887989
-0.0353924185037612
-0.0359155498445034
-0.0352726727724075
-0.0336426720023155
-0.0312544927000999
-0.0283594764769077
-0.0252042319625616
-0.0220087934285402
-0.018951429054141
-0.0161580648273229
-0.0136964004486799
-0.0115768974646925
-0.0097605604678392
-0.0081722876057028
-0.0067152669653296
-0.0052823331207036
-0.0037699919193983
-0.0020990201737731
-0.0002306280657649
0.0018312034662812
0.0040469211526215
0.0063532190397381
0.0086773075163364
0.0109479930251836
0.0131014203652739
0.0150860538706183
0.0168673284351825
0.018427163362503
0.0197592582553625
0.0208651460707187
0.0217493399977684
0.0224058292806148
0.0227930415421724
0.0228105150163173
0.022300086915493
0.0210772771388292
0.018978202715516
0.015905674546957
0.0118617983534932
0.0069603994488716
0.0014203172177076
-0.0044584264978766
-0.0103313270956277
-0.0158500932157039
-0.0206990092992782
-0.024622356519103
-0.027441069483757
-0.0290590487420558
-0.0294660218060016
-0.0287417452782392
-0.0270506013184785
-0.0246187224984169
-0.02170305326581
-0.0185618288815021
-0.0154296467080712
-0.0124982027336955
-0.0099011668935418
-0.0077048544771969
-0.0059096710756421
-0.0044618407264351
-0.0032703795004636
-0.0022253235802054
-0.0012137630255892
-0.0001322996686212
0.0011004356201738
0.0025309573393315
0.004165799356997
0.0059778620488941
0.0079175140708684
0.0099219754338264
0.0119231035932898
0.0138551080599427
0.0156618077307939
0.0173015408217906
0.0187458079308271
0.0199672393500804
0.0209179073572158
0.0215093605220317
0.0216099116951227
0.0210635308176279
0.0197195578366518
0.0174627751111984
0.0142423287034034
0.0100967790931463
0.0051675485447049
-0.0003057578578591
-0.0060094529762864
-0.0115943383425474
-0.0167194288223981
-0.0210898108780384
-0.0244807563722133
-0.0267492718994617
-0.0278376676142215
-0.0277705173939466
-0.0266455113887786
-0.0246194079518318
-0.0218931064009666
-0.0186979733407497
-0.0152781186625361
-0.0118670156225562
-0.0086646294221282
-0.0058192461729049
-0.0034152388107031
-0.0014687459915876
6.698444485664368e-05
0.0012878011912107
0.0023193941451609
0.003294882364571
0.0043333237990736
0.0055252844467759
0.0069281649775803
0.0085673946887254
0.0104368701577186
0.0124968420714139
0.0146754877641797
0.0168799050152301
0.0190124250948429
0.0209843721240758
0.0227245632559061
0.0241838470101356
0.0253355149179697
0.0261673852801322
0.0266632046550512
0.0267790779471397
0.0264266468584537
0.0254754740744829
0.0237795915454626
0.0212189927697181
0.0177369192242622
0.0133588993921875
0.0081959310919046
0.0024407454766333
-0.0036433178465813
-0.0097463028505444
-0.0155460108071565
-0.0207427479326725
-0.025087259709835
-0.0283996351063251
-0.0305779948830604
-0.0315982103347778
-0.0315086245536804
-0.0304214432835578
-0.0284999571740627
-0.0259418226778507
-0.022961750626564
-0.0197770912200212
-0.0165927205234766
-0.0135809052735567
-0.0108626317232847
-0.00849942676723
-0.0064959600567817
-0.004808597266674
-0.0033573992550373
-0.0020419347565621
-0.0007587000727653
0.0005833301693201
0.0020512163173407
0.0036838240921497
0.0054937219247221
0.0074698897078633
0.0095789730548858
0.0117657585069537
0.0139574920758605
0.0160756055265665
0.0180487651377916
0.0198197271674871
0.0213478468358516
0.0226117186248302
0.0236097183078527
0.0243527237325906
0.0248459111899137
0.025063132867217
0.0249262433499097
0.0243026055395603
0.0230253972113132
0.0209320709109306
0.017906691879034
0.0139104817062616
0.0089988335967063
0.0033286302350461
-0.0028494894504547
-0.009218081831932
-0.0154319424182176
-0.021158006042242
-0.0261080563068389
-0.0300607178360223
-0.0328734926879406
-0.0344866923987865
-0.0349206253886222
-0.0342675931751728
-0.032677836716175
-0.030339740216732
-0.027462339028716
-0.0242633912712335
-0.0209550075232982
-0.0177238024771213
-0.0147123886272311
-0.0120082879438996
-0.0096409423276782
-0.0075866258703172
-0.0057808067649602
-0.0041341236792504
-0.00254857679829
-0.0009320960380136
0.0007912940345704
0.0026747831143438
0.0047431234270334
0.006991168949753
0.0093863634392619
0.0118708638474345
0.0143677089363336
0.016794104129076
0.0190742816776037
0.0211472660303115
0.0229711197316646
0.0245246514678001
0.0258063785731792
0.0268294271081686
0.0276092700660228
0.0281418114900589
0.0283778812736272
0.0282096527516841
0.0274796225130558
0.0260103903710842
0.0236445162445306
0.0202813223004341
0.0159054938703775
0.0106069138273596
0.0045852623879909
-0.0018664055969566
-0.008395979180932
-0.0146366814151406
-0.0202514622360467
-0.0249660909175872
-0.0285861920565366
-0.0310030616819858
-0.0321931391954422
-0.032211348414421
-0.0311784744262695
-0.0292641837149858
-0.0266712475568056
-0.0236239451915025
-0.0203522145748138
-0.0170688349753618
-0.0139495218172669
-0.0111200613901019
-0.0086485594511032
-0.0065441052429378
-0.0047627752646803
-0.0032199383713304
-0.0018085418269038
-0.0004199254326522
0.0010402989573776
0.0026439046487212
0.0044363085180521
0.0064358827657997
0.0086335157975554
0.0109895663335919
0.0134340208023786
0.0158765874803066
0.0182226225733757
0.0203865934163332
0.0223008524626493
0.0239207744598388
0.0252255164086818
0.0262153279036283
0.0269065145403146
0.0273189097642898
0.0274517573416233
0.0272578820586204
0.0266332831233739
0.02542963065207
0.02348418161273
0.0206570718437433
0.016869693994522
0.0121383741497993
0.0065924664959311
0.0004676668904721
-0.0059224124997854
-0.0122243044897913
-0.0180844608694314
-0.0231871306896209
-0.0272843837738037
-0.0302139073610305
-0.0319047272205352
-0.0323732234537601
-0.0317130573093891
-0.030081508681178
-0.0276844818145036
-0.0247622299939394
-0.0215714648365974
-0.01835947483778
-0.0153368208557367
-0.0126573918387293
-0.0104065304622054
-0.008596733212471
-0.0071735540404915
-0.0060323327779769
-0.0050417594611644
-0.0040678484365344
-0.0029940551612526
-0.0017355640884488
-0.0002444689162075
0.0014941219706088
0.0034667984582483
0.0056318864226341
0.0079213455319404
0.0102510619908571
0.0125354640185832
0.014698963612318
0.0166813302785158
0.0184360817074775
0.0199184864759445
0.0210632681846618
0.021764213219285
0.021871518343687
0.0212111100554466
0.0196197126060724
0.0169876627624034
0.0132993068546056
0.0086553506553173
0.0032681804150342
-0.0025625398848205
-0.0084851775318384
-0.0141385085880756
-0.0191919840872287
-0.0233732610940933
-0.0264825671911239
-0.0284007564187049
-0.0290945395827293
-0.0286160018295049
-0.0270931702107191
-0.0247135683894157
-0.0217053443193435
-0.0183158926665782
-0.0147857088595628
-0.0113242780789732
-0.0080968160182237
-0.0052180499769747
-0.002746763639152
-0.0006841989234089
0.0010188035666942
0.0024478947743773
0.0037097195163369
0.0049169501289725
0.0061745909042656
0.0075675644911825
0.0091491295024752
0.0109350336715579
0.012907350435853
0.0150239523500204
0.0172286741435527
0.0194579027593135
0.0216422714293003
0.0237089488655328
0.0255843512713909
0.0271877944469451
0.0284154582768678
0.0291275419294834
0.0291502233594656
0.0282954610884189
0.0263949409127235
0.0233395341783761
0.0191151332110166
0.0138267073780298
0.0077006728388369
0.0010629144962877
-0.0056977234780788
-0.0121752256527543
-0.0179991405457258
-0.0228754300624132
-0.0266009755432605
-0.0290630757808685
-0.0302367620170116
-0.0301792286336421
-0.0290190745145082
-0.0269424431025981
-0.0241774637252092
-0.0209740083664655
-0.0175782516598701
-0.0142080439254641
-0.0110347382724285
-0.0081724412739276
-0.0056729861535131
-0.0035287272185087
-0.0016870964318513
-7.05597922205925e-05
0.0014081168919801
0.0028347233310341
0.0042843120172619
0.0058165402151644
0.0074737397953867
0.0092772766947746
0.0112237688153982
0.0132852885872125
0.0154145965352654
0.0175531208515167
0.0196386314928531
0.0216122809797525
0.0234259907156229
0.0250459797680377
0.0264452286064624
0.0275846738368272
0.0283905509859323
0.0287382882088422
0.0284529589116573
0.027330432087183
0.0251755975186824
0.0218494348227977
0.0173124726861715
0.0116502754390239
0.0050742849707603
-0.002098012715578
-0.0094776172190904
-0.0166482459753751
-0.0232124011963605
-0.0288318153470754
-0.0332579649984836
-0.0363483652472496
-0.0380669981241226
-0.038472294807434
-0.0376980379223823
-0.0359326973557472
-0.033400684595108
-0.0303439684212207
-0.0270010773092508
-0.0235855933278799
-0.0202696695923805
-0.0171742048114538
-0.0143641103059053
-0.0118484329432249
-0.0095864990726113
-0.0075017241761088
-0.0055028051137924
-0.0035055116750299
-0.0014469218440353
0.0007103192619979
0.0029816126916557
0.0053656124509871
0.0078458348289132
0.0103907855227589
0.0129557736217975
0.015487004071474
0.0179284997284412
0.0202303882688283
0.0223548300564289
0.0242781154811382
0.0259896740317344
0.027485666796565
0.0287556145340204
0.0297654438763856
0.0304399374872446
0.0306499227881431
0.0302145592868328
0.0289254486560821
0.026588924229145
0.0230737477540969
0.0183506291359663
0.0125149702653288
0.0057881292887032
-0.0015033101662993
-0.0089653488248586
-0.0161825641989707
-0.0227623581886291
-0.0283732339739799
-0.0327752083539962
-0.0358340255916118
-0.0375163368880748
-0.0378756672143936
-0.0370369032025337
-0.0351803004741668
-0.0325250774621963
-0.0293111968785524
-0.0257790237665176
-0.0221494901925325
-0.0186077859252691
-0.0152919255197048
-0.0122848777100443
-0.009610136039555
-0.0072340327315032
-0.0050793481059372
-0.003049423918128
-0.0010519833303987
0.000986857805401
0.0031173462048172
0.0053653558716177
0.007734446786344
0.0102096535265445
0.0127608738839626
0.0153456088155508
0.0179128944873809
0.0204068347811698
0.022769421339035
0.0249465610831975
0.0268965288996696
0.0285957623273134
0.0300375185906887
0.0312217343598604
0.0321380794048309
0.0327449403703212
0.0329507738351821
0.0326084084808826
0.0315292067825794
0.0295168459415435
0.0264133419841527
0.0221443008631467
0.0167495608329772
0.0103920493274927
0.0033466131426393
-0.0040272288024425
-0.0113235348835587
-0.018132435157895
-0.0240840539336204
-0.0288886651396751
-0.0323622114956378
-0.034432053565979
-0.0351272039115428
-0.034561026841402
-0.0329123586416244
-0.0304060988128185
-0.0272926483303308
-0.0238261725753545
-0.020242765545845
-0.0167422834783792
-0.013475994579494
-0.0105385575443506
-0.0079648559913039
-0.0057327807880938
-0.0037745083682239
-0.0019981830846518
-0.0003108641831204
0.0013682837598025
0.0031038026791065
0.0049417819827795
0.0069067035801708
0.008999559096992
0.0111983763054013
0.0134611772373318
0.015731818974018
0.0179469343274831
0.0200430490076541
0.0219640452414751
0.0236680768430233
0.0251313783228397
0.0263443738222122
0.0273023173213005
0.0280016344040632
0.0284444391727447
0.0286397226154804
0.0285924319177865
0.0282835401594638
0.0276501923799514
0.0265762265771627
0.0249012559652328
0.022450752556324
0.019080277532339
0.0147195942699909
0.0094036031514406
0.0032847300171852
-0.0033740485087037
-0.0102286702021956
-0.0169038418680429
-0.0230458956211805
-0.0283596478402614
-0.0326251462101936
-0.0357023365795612
-0.0375329852104187
-0.0381408482789993
-0.0376247465610504
-0.0361442789435386
-0.0339038260281086
-0.0311368927359581
-0.0280873849987983
-0.0249851699918508
-0.0220195576548576
-0.0193206444382667
-0.0169560462236404
-0.0149399768561124
-0.0132447639480233
-0.0118090324103832
-0.0105450944975018
-0.0093506919220089
-0.0081252651289105
-0.0067838737741112
-0.0052651222795248
-0.0035367792006582
-0.0015984615311026
0.0005217352882027
0.0027735545299947
0.0050911786966025
0.007403009571135
0.009644603356719
0.0117649743333458
0.0137202329933643
0.0154629349708557
0.0169327799230813
0.0180452018976211
0.018681026995182
0.0186882093548774
0.0179026555269956
0.0161844603717327
0.0134564833715558
0.0097341164946556
0.0051408903673291
-9.63667407631874e-05
-0.0056738178245723
-0.0112471226602792
-0.0164682958275079
-0.0210235752165317
-0.0246683172881603
-0.0272448100149631
-0.0286812335252761
-0.0289848744869232
-0.0282351486384868
-0.0265723746269941
-0.0241809673607349
-0.0212704446166753
-0.018056908622384
-0.0147459236904978
-0.0115176849067211
-0.0085138250142335
-0.0058257509954273
-0.0034875858109444
-0.0014768274268135
0.0002743776421993
0.0018577659502625
0.0033670093398541
0.0048832669854164
0.0064663272351026
0.0081498948857188
0.0099420584738254
0.0118288034573197
0.0137789249420166
0.0157504472881555
0.0176960304379463
0.0195671245455741
0.0213195756077766
0.0229175873100757
0.0243330765515565
0.0255417600274086
0.0265108030289411
0.0271758325397968
0.0274230632930994
0.0270930435508489
0.026005458086729
0.0239974204450845
0.0209673941135406
0.016910221427679
0.0119305225089192
0.0062360451556742
0.0001184521242976
-0.0060759978368878
-0.0119855543598532
-0.0172754880040884
-0.0216706749051809
-0.0249710846692323
-0.0270592253655195
-0.0279079135507345
-0.0275814197957515
-0.0262234397232532
-0.0240351911634206
-0.0212497506290674
-0.0181076414883136
-0.0148349655792117
-0.0116249127313494
-0.0086254673078656
-0.0059328824281692
-0.0035894108004868
-0.0015872372314333
0.000121115008369
0.0016112909652292
0.002976288087666
0.0043103802017867
0.0056891851127147
0.0071574947796761
0.0087288906797766
0.0103920362889766
0.0121194422245025
0.0138759342953562
0.0156239736825227
0.0173241663724184
0.0189345087856054
0.0204146578907966
0.0217338036745786
0.0228749010711908
0.0238326285034418
0.0246087536215782
0.0252076219767332
0.0256238207221031
0.0258163344115018
0.0256855990737676
0.0250730644911527
0.023785812780261
0.0216382350772619
0.0184973161667585
0.0143191441893577
0.0091709941625595
0.0032364632934331
-0.003199768718332
-0.0097871636971831
-0.016155345365405
-0.0219588540494442
-0.0269104950129985
-0.0307989083230495
-0.0334977991878986
-0.034973207861185
-0.0352808609604835
-0.034548919647932
-0.032955601811409
-0.0307078622281551
-0.0280198473483324
-0.0250941514968872
-0.0221085865050554
-0.0192055627703666
-0.0164842959493398
-0.0139991790056228
-0.0117631768807768
-0.0097539387643337
-0.0079222153872251
-0.0062003233470022
-0.0045125316828489
-0.0027911758515983
-0.0009905842598527
0.0009098403388634
0.0029087380971759
0.0049862200394272
0.0071087195537984
0.0092361094430089
0.0113277733325958
0.0133447293192148
0.0152500104159116
0.0170105248689651
0.0185992177575826
0.0199965275824069
0.0211929511278867
0.0221915505826473
0.0230045579373836
0.0236417949199676
0.0240953620523214
0.0243237409740686
0.0242392681539058
0.0237077753990888
0.0225648563355207
0.0206454042345285
0.0178197883069515
0.0140299685299396
0.0093173775821924
0.0038320343010127
-0.0021801949478685
-0.0084063140675425
-0.0145036978647112
-0.0201377533376216
-0.0250159967690706
-0.0289180260151624
-0.0317125022411346
-0.0333559960126876
-0.0338817276060581
-0.033386081457138
-0.0320140607655048
-0.0299433954060077
-0.027368864044547
-0.0244871657341718
-0.0214814785867929
-0.018507856875658
-0.0156855639070272
-0.013090506196022
-0.0107509521767497
-0.0086486395448446
-0.0067313071340322
-0.0049334019422531
-0.0031924545764923
-0.0014566723257303
0.0003114803694188
0.0021342327818274
0.0040210392326116
0.0059715788811445
0.0079760272055864
0.0100141316652297
0.0120566179975867
0.0140698468312621
0.0160199031233787
0.017873890697956
0.0196022242307662
0.0211838353425264
0.0226075537502765
0.0238645263016223
0.0249405466020107
0.0258175451308488
0.0264778714627027
0.0268994383513927
0.0270396489650011
0.0268182698637247
0.0261127036064863
0.0247720126062631
0.0226460825651884
0.0196222141385078
0.015661209821701
0.0108232181519269
0.0052762543782591
-0.0007155996281653
-0.0068266815505921
-0.0127191040664911
-0.0180873237550258
-0.0226856190711259
-0.026339765638113
