bvp
0.0394538678228855
0.0387570895254612
0.037128746509552
0.0343482978641986
0.0302475076168775
0.0247637722641229
0.0179733633995056
0.0101026110351085
0.0015115139540284
-0.0073525672778487
-0.0160146690905094
-0.0240266248583793
-0.0310092121362686
-0.0366793945431709
-0.0408618003129959
-0.0434873551130294
-0.0445834621787071
-0.0442594178020954
-0.042689174413681
-0.0400930903851985
-0.0367210656404495
-0.0328364744782447
-0.0286954697221517
-0.0245217569172382
-0.0204878468066453
-0.0167103037238121
-0.013252455741167
-0.0101270070299506
-0.0073004346340894
-0.0047022784128785
-0.002238648943603
0.0001922007650136
0.0026842858642339
0.005310374777764
0.0081128859892487
0.0111001981422305
0.0142480563372373
0.0175049193203449
0.0207999050617218
0.0240527465939521
0.0271822847425937
0.0301102474331855
0.0327651612460613
0.0350900143384933
0.0370476096868515
0.0386167466640472
0.0397771038115024
0.0404842048883438
0.0406418778002262
0.0400880202651023
0.0386083386838436
0.0359791405498981
0.0320260301232337
0.0266790390014648
0.0200093742460012
0.0122410347685217
0.0037320861592888
-0.0050728563219308
-0.0137026738375425
-0.0217133499681949
-0.0287272818386554
-0.0344594083726406
-0.0387304536998271
-0.0414659790694713
-0.0426860451698303
-0.0424925684928894
-0.041055329144001
-0.0385953933000564
-0.0353670045733451
-0.0316377766430377
-0.0276658944785594
-0.0236767921596765
-0.0198459830135107
-0.0162919107824563
-0.0130749344825744
-0.0101989712566137
-0.0076180752366781
-0.0052501717582345
-0.0029956377111375
-0.0007550506852567
0.0015576989389955
0.0040064426138997
0.0066273305565118
0.009426724165678
0.0123814912512898
0.0154418554157018
0.0185376219451427
0.0215884204953908
0.0245139021426439
0.0272381789982318
0.0296923778951168
0.0318208150565624
0.0335873290896415
0.0349772237241268
0.0359930135309696
0.036639679223299
0.0368969850242137
0.0366885140538215
0.0358655750751495
0.0342188440263271
0.0315191000699996
0.0275753512978553
0.0222928933799266
0.0157163757830858
0.0080437771975994
-0.0003943117335438
-0.0091774705797433
-0.0178444162011146
-0.0259417630732059
-0.0330685935914516
-0.0389109328389167
-0.043261781334877
-0.0460258647799491
-0.0472128205001354
-0.0469253435730934
-0.0453451424837112
-0.0427142791450023
-0.039311695843935
-0.0354277826845645
-0.0313377603888511
-0.0272782482206821
-0.0234336480498313
-0.0199297219514846
-0.0168291516602039
-0.0141307720914483
-0.0117755904793739
-0.0096610020846128
-0.0076618092134594
-0.0056523755192756
-0.0035258843563497
-0.0012081961613148
0.0013369740918278
0.0041097225621342
0.0070780362002551
0.0101849138736724
0.0133590176701545
0.0165222398936748
0.0195893589407205
0.0224677603691816
0.0250673107802867
0.0273165870457887
0.0291739255189895
0.0306294001638889
0.0317016020417213
0.0324310697615146
0.0328657925128936
0.0330338664352893
0.0329089984297752
0.0323853604495525
0.0312783382833004
0.0293576270341873
0.0264025926589965
0.0222590416669845
0.0168815329670906
0.0103573519736528
0.002910004928708
-0.0051201181486248
-0.0133141353726387
-0.0212242659181356
-0.0284247174859046
-0.0345539674162864
-0.0393433310091495
-0.0426313839852809
-0.0443667098879814
-0.0446022972464561
-0.043483879417181
-0.0412317737936973
-0.0381157770752906
-0.0344298481941223
-0.0304707624018192
-0.0265138130635023
-0.0227856691926717
-0.0194441527128219
-0.0165684204548597
-0.0141590442508459
-0.0121497176587581
-0.0104278912767767
-0.0088563347235322
-0.0072922930121421
-0.005606579594314
-0.0037012554239481
-0.0015201240312308
0.000950175570324
0.0036846972070634
0.0066253314726054
0.0096870753914117
0.0127689205110073
0.0157661978155374
0.018580125644803
0.0211270749568939
0.0233484786003828
0.0252167414873838
0.0267329029738903
0.0279137324541807
0.0287671685218811
0.0292614549398422
0.0293032918125391
0.0287388041615486
0.0273810494691133
0.0250589866191148
0.0216689798980951
0.0172067694365978
0.0117778955027461
0.0055956067517399
-0.0010334183461964
-0.0077390326187014
-0.0141294281929731
-0.019834604114294
-0.0245416518300771
-0.0280189327895641
-0.03013208322227
-0.0308526866137981
-0.0302559733390808
-0.0285064913332462
-0.0258358139544725
-0.0225153639912605
-0.0188290979713201
-0.0150519562885165
-0.011430274695158
-0.0081588430330157
-0.00536032859236
-0.0030758238863199
-0.0012693882454186
0.000154900830239
0.0013293097727
0.0023999388795346
0.0035062097012996
0.0047613675706088
0.0062392493709921
0.0079712560400366
0.0099517330527305
0.0121468193829059
0.0144990291446447
0.0169268604367971
0.0193307567387819
0.0216098427772521
0.0236790534108877
0.0254781171679496
0.0269711129367351
0.0281345080584287
0.0289328526705503
0.029290547594428
0.0290748849511146
0.0281035117805004
0.0261788927018642
0.0231382828205823
0.0189035944640636
0.0135187953710556
0.0071622459217906
0.0001295628026127
-0.0072026718407869
-0.0144207514822483
-0.0211193989962339
-0.0269429069012403
-0.0316146835684776
-0.0349532514810562
-0.0368781238794326
-0.0374060422182083
-0.0366389080882072
-0.0347502417862415
-0.0319706872105598
-0.0285671390593051
-0.0248168725520372
-0.0209815949201583
-0.0172852892428636
-0.0138988411054015
-0.010930330492556
-0.0084206238389015
-0.0063472562469542
-0.0046355398371815
-0.003173247911036
-0.0018286663107573
-0.0004709791392087
0.0010120156221091
0.0027021740097552
0.0046437275595963
0.006840051151812
0.0092559661716222
0.0118257161229848
0.0144671592861413
0.0170961953699588
0.0196323357522487
0.0219991505146026
0.0241278707981109
0.025965180248022
0.0274808891117572
0.028667863458395
0.0295298919081687
0.0300580002367496
0.0302006695419549
0.0298425666987895
0.0288054347038269
0.0268759559839963
0.0238573309034109
0.019629281014204
0.0141958491876721
0.0077044395729899
0.0004309811629354
-0.0072564878500998
-0.0149412211030721
-0.0222027972340583
-0.0286596324294805
-0.0340035930275917
-0.0380233116447925
-0.0406140945851802
-0.0417735241353511
-0.0415863543748855
-0.0402059666812419
-0.0378365144133567
-0.0347147472202777
-0.0310892947018146
-0.0271976329386234
-0.0232473798096179
-0.019408157095313
-0.0158086419105529
-0.0125305969268083
-0.0096031231805682
-0.0070047979243099
-0.0046739401295781
-0.0025232322514057
-0.0004565464332699
0.0016156490892171
0.0037658824585378
0.0060440562665462
0.0084751406684517
0.0110590532422065
0.0137723293155431
0.016571719199419
0.0193977169692516
0.0221772566437721
0.0248294081538915
0.0272747259587049
0.0294445641338825
0.031289629638195
0.0327858850359916
0.0339299477636814
0.0347178876399993
0.0351129323244094
0.0350191332399845
0.0342779457569122
0.0326929576694965
0.030076352879405
0.0263046529144048
0.0213660821318626
0.0153805864974856
0.0085874199867248
0.0013146719429641
-0.0060555767267942
-0.0131263043731451
-0.0195276048034429
-0.0249524097889661
-0.0291781835258007
-0.0320753268897533
-0.0336076728999614
-0.0338265970349311
-0.0328583940863609
-0.0308879371732473
-0.0281409136950969
-0.0248639285564422
-0.021302193403244
-0.0176807940006256
-0.0141940815374255
-0.0109969209879636
-0.0081926472485065
-0.0058220354840159
-0.0038598338142037
-0.0022247331216931
-0.0008009583689272
0.0005392339080572
0.001916374079883
0.0034277164377272
0.005137437954545
0.0070719732902944
0.0092194341123104
0.0115377623587846
0.0139684183523058
0.0164430793374776
0.018882293254137
0.0211989618837833
0.0233116336166858
0.0251584723591804
0.0267026275396347
0.0279299020767211
0.0288439281284809
0.029455579817295
0.0297592766582965
0.0297018848359584
0.0291630327701568
0.0279622543603181
0.0258952118456363
0.0227889027446508
0.018556697294116
0.0132319284602999
0.0069713415578007
3.800541162490845e-05
-0.0072254845872521
-0.0144318882375955
-0.0211904253810644
-0.0271473564207553
-0.0320190414786338
-0.0356126651167869
-0.0378345847129821
-0.0386892929673194
-0.0382702499628067
-0.0367443822324276
-0.034332375973463
-0.0312843807041645
-0.0278536416590213
-0.0242767073214054
-0.0207620896399021
-0.0174785777926445
-0.0145420245826244
-0.0120080914348363
-0.0098732020705938
-0.0080827744677662
-0.0065456451848149
-0.0051512764766812
-0.0037863161414861
-0.0023482078686356
-0.0007551290327683
0.0010467087849974
0.0030770997982472
0.0053200190886855
0.0077303797006607
0.0102441096678376
0.0127829611301422
0.015258084051311
0.0175803676247596
0.0196739472448825
0.0214841160923242
0.0229790229350328
0.0241495501250028
0.0250062495470047
0.0255672167986631
0.0258347373455762
0.0257669296115636
0.0252583809196949
0.0241462383419275
0.0222465321421623
0.0194066762924194
0.015552032738924
0.0107121299952268
0.0050268489867448
-0.0012630298733711
-0.0078398380428552
-0.014344310387969
-0.0204160772264003
-0.0257322788238525
-0.0300365183502435
-0.0331554226577281
-0.0350048914551734
-0.0355872772634029
-0.0349830873310565
-0.0333429649472236
-0.0308772716671228
-0.0278368573635816
-0.024488229304552
-0.0210898425430059
-0.0178694445639848
-0.015001768246293
-0.0125904753804206
-0.0106600206345319
-0.009160878136754
-0.0079865437000989
-0.0069970497861504
-0.0060440967790782
-0.0049935244023799
-0.0037404233589768
-0.00221614446491
-0.0003912975080311
0.001724983099848
0.0040927054360508
0.0066502555273473
0.0093182856217026
0.0120041500777006
0.0146127976477146
0.0170583706349134
0.019269211217761
0.0211828704923391
0.022729879245162
0.0238117296248674
0.0242879297584295
0.0239853672683239
0.0227297861129045
0.0203905198723077
0.016926085576415
0.012415412813425
0.0070634628646075
0.0011782147921621
-0.0048729344271123
-0.0107100503519177
-0.0159790590405464
-0.020380700007081
-0.0236903317272663
-0.025769405066967
-0.0265713259577751
-0.0261404514312744
-0.0246025249361991
-0.0221492294222116
-0.0190197266638278
-0.0154794342815876
-0.0117948707193136
-0.0082062119618058
-0.0049018589779734
-0.0020024674013257
0.0004385598003864
0.0024243425577878
0.0040058596059679
0.0052747377194464
0.0063501903787255
0.0073607787489891
0.0084263868629932
0.0096436813473701
0.0110762165859341
0.0127489091828465
0.0146476151421666
0.0167251341044902
0.0189130511134862
0.02113644964993
0.0233249366283416
0.0254139062017202
0.0273401737213134
0.0290427058935165
0.030469749122858
0.031581811606884
0.0323395580053329
0.0326777882874012
0.0324821770191192
0.031586430966854
0.0297957956790924
0.0269321985542774
0.022885987535119
0.017655799165368
0.0113679263740777
0.0042747184634208
-0.0032675713300704
-0.01084122993052
-0.0180248133838176
-0.0244481228291988
-0.0298254117369651
-0.0339660868048667
-0.0367734730243682
-0.0382376722991466
-0.0384238399565219
-0.0374588035047054
-0.0355189926922321
-0.0328191593289375
-0.0295980796217918
-0.0260981246829032
-0.0225405562669038
-0.0191026926040649
-0.0159032493829727
-0.0130012556910514
-0.0104079432785511
-0.0081009892746806
-0.0060304822400212
-0.0041200537234544
-0.0022757509723305
-0.000403581187129
0.0015746047720313
0.0037114322185516
0.0060285753570497
0.0085153877735137
0.0111336717382073
0.0138271795585751
0.0165303088724613
0.0191748719662427
0.0216981284320354
0.0240484327077865
0.0261833816766738
0.0280663669109344
0.0296684280037879
0.0309721082448959
0.0319672934710979
0.0326312519609928
0.0329000391066074
0.0326508581638336
0.031707439571619
0.0298676863312721
0.0269477628171443
0.0228324197232723
0.0175175815820693
0.0111335627734661
0.0039431331679224
-0.0036884921137243
-0.0113458074629306
-0.0186181273311376
-0.0251435525715351
-0.030639424920082
-0.0349172092974185
-0.0378814451396465
-0.0395187772810459
-0.0398856438696384
-0.0390991233289241
-0.0373282767832279
-0.0347814634442329
-0.0316884405910968
-0.0282799340784549
-0.0247659757733345
-0.0213148891925811
-0.0180424563586711
-0.0150161702185869
-0.0122632626444101
-0.0097734509035944
-0.007501171901822
-0.0053737983107566
-0.0033064219169318
-0.0012173797003924
0.0009617232717573
0.0032792529091238
0.0057559721171855
0.0083808666095137
0.0111147882416844
0.0138993086293339
0.0166683010756969
0.0193600300699472
0.0219212770462036
0.0243013482540845
0.0264499504119157
0.0283252373337745
0.0299009382724761
0.0311675667762756
0.0321286395192146
0.0327846407890319
0.03310427069664
0.0329992100596427
0.0323188714683055
0.0308709237724542
0.0284633561968803
0.024954617023468
0.0202975217252969
0.0145675549283623
0.0079661915078759
0.0007969699800014
-0.006573658902198
-0.0137581890448927
-0.0203881971538066
-0.026148859411478
-0.0308017097413539
-0.0341939553618431
-0.0362599492073059
-0.0370182134211063
-0.0365628600120544
-0.0350514277815818
-0.0326911658048629
-0.029722161591053
-0.0263943318277597
-0.0229399036616086
-0.0195527486503124
-0.0163817666471004
-0.0135294012725353
-0.0110464971512556
-0.0089272363111376
-0.0071128695271909
-0.0055070789530873
-0.0039962483569979
-0.0024671729188412
-0.0008216587593778
0.0010110354050993
0.0030658836476504
0.0053398292511701
0.007795596960932
0.0103713888674974
0.0129941720515489
0.0155895631760358
0.0180844608694314
0.0204073600471019
0.0224929526448249
0.0242913421243429
0.0257750358432531
0.02693947032094
0.0277989488095045
0.0283764582127332
0.0286843348294496
0.0286994092166423
0.0283419396728277
0.0274705123156309
0.025902472436428
0.02345871925354
0.0200168937444686
0.0155500210821628
0.0101402876898646
0.0039759175851941
-0.002662437967956
-0.0094298813492059
-0.0159582421183586
-0.0218972079455852
-0.0269473288208246
-0.0308847613632679
-0.0335763618350029
-0.034982830286026
-0.0351524576544761
-0.0342108868062496
-0.0323487892746925
-0.0298031754791736
-0.0268301628530025
-0.0236778110265731
-0.0205680839717388
-0.0176836736500263
-0.0151530755683779
-0.013038033619523
-0.0113310096785426
-0.0099642621353268
-0.0088271284475922
-0.0077874246053397
-0.0067135943099856
-0.0054945144802331
-0.0040530669502913
-0.0023507787846028
-0.0003855845425277
0.0018145855283364
0.0042007695883512
0.0067088776268064
0.0092610921710729
0.0117705520242452
0.0141524150967597
0.0163354910910129
0.0182671602815389
0.0199057217687368
0.0211996715515851
0.0220633931457996
0.0223642140626907
0.0219316333532333
0.0205895267426967
0.0182012766599655
0.0147120300680398
0.0101772379130125
0.0047739152796566
-0.0012124544009566
-0.0074270907789468
-0.0134933106601238
-0.0190529581159353
-0.0238002333790063
-0.027505949139595
-0.0300261918455362
-0.0312999673187732
-0.0313450060784816
-0.0302537940442562
-0.0281857829540967
-0.0253531672060489
-0.0220008492469787
-0.0183825884014368
-0.014735672622919
-0.0112569937482476
-0.0080876341089606
-0.0053099589422345
-0.0029496941715478
-0.0009783701971173
0.000678670592606
0.0021263528615236
0.0034800940193235
0.0048478581011295
0.0063183042220771
0.0079544140025973
0.009789097122848
0.0118229556828737
0.0140265990048646
0.0163458101451396
0.018709136173129
0.0210408829152584
0.0232721883803606
0.0253413654863834
0.0271922256797552
0.0287786815315485
0.0300698187202215
0.031046712771058
0.0316849313676357
0.0319270454347133
0.031662244349718
0.0307277701795101
0.0289341751486063
0.0261079836636781
0.0221403166651725
0.0170266889035701
0.0108877941966056
0.003968549426645
-0.0033870828337967
-0.0107829226180911
-0.0178243163973093
-0.0241618659347295
-0.0295182988047599
-0.0337012708187103
-0.0366066358983516
-0.0382149890065193
-0.0385819748044014
-0.0378239303827285
-0.0361038334667682
-0.0336178578436374
-0.0305802077054977
-0.0272072330117225
-0.0237003918737173
-0.0202284380793571
-0.0169158410280942
-0.0138413375243544
-0.0110404044389724
-0.0085083823651075
-0.0062069380655884
-0.0040734745562076
-0.002031906042248
-3.807712346315384e-06
0.0020802342332899
0.004269553348422
0.0065870862454175
0.0090300757437944
0.0115743596106767
0.0141796842217445
0.0167959388345479
0.0193696171045303
0.0218464881181716
0.024169597774744
0.0262804143130779
0.0281275454908609
0.0296764615923166
0.0309123843908309
0.0318338647484779
0.0324350520968437
0.0326778069138526
0.032466996461153
0.0316463112831115
0.0300217345356941
0.027405597269535
0.0236648973077535
0.0187623351812362
0.0127858398482203
0.0059555955231189
-0.0014014784246683
-0.0088986400514841
-0.0161381121724843
-0.0227531231939792
-0.0284396857023239
-0.0329757072031497
-0.0362289398908615
-0.0381561890244483
-0.0387963838875293
-0.0382595285773277
-0.0367112979292869
-0.0343553572893142
-0.0314164496958255
-0.0281211845576763
-0.0246764905750751
-0.0212549045681953
-0.0179890524595975
-0.0149681316688656
-0.0122348368167877
-0.0097854416817426
-0.0075743314810097
-0.0055246236734092
-0.0035438789054751
-0.0015406585298478
0.0005612326785922
0.002812388818711
0.0052322782576084
0.0078088021837174
0.0105029949918389
0.0132588492706418
0.0160149782896041
0.0187104493379592
0.021283583715558
0.0236724484711885
0.025821354240179
0.0276891160756349
0.0292541850358247
0.030515007674694
0.031486514955759
0.0321936458349227
0.0326623730361461
0.0329062566161155
0.0329050198197364
0.0325810424983501
0.0317889191210269
0.0303298998624086
0.0279926378279924
0.024605693295598
0.0200810227543115
0.0144412629306316
0.007831772789359
0.0005139280110597
-0.0071609150618314
-0.0147913563996553
-0.02197334356606
-0.0283457115292549
-0.033623818308115
-0.0376171059906482
-0.0402322858572006
-0.041467297822237
-0.0414025336503982
-0.0401892736554145
-0.03802977129817
-0.035154566168785
-0.0318074189126491
-0.0282317604869604
-0.0246490463614463
-0.0212357137352228
-0.0181098505854606
-0.0153282536193728
-0.0128899756819009
-0.0107445744797587
-0.0088048810139298
-0.0069651342928409
-0.005121196154505
-0.0031853343825787
-0.0010944919195026
0.0011854188051074
0.0036595473065972
0.0063046780414879
0.0090681742876768
0.0118729574605822
0.0146311819553375
0.0172594748437404
0.0196901876479387
0.0218762643635272
0.0237903520464897
0.0254218019545078
0.0267738215625286
0.0278605781495571
0.0287035126239061
0.0293267555534839
0.0297525841742753
0.0299960989505052
0.0300526432693004
0.0298719648271799
0.0293314699083566
0.0282361675053834
0.0263559371232986
0.0234829820692539
0.0194879956543445
0.0143625456839799
0.00823784340173
0.0013748966157436
-0.0058691943995654
-0.0130893122404813
-0.019882682710886
-0.0258908849209547
-0.0308306273072958
-0.0345114208757877
-0.0368394255638122
-0.0378152541816234
-0.0375305414199829
-0.0361577533185482
-0.0339295491576194
-0.0311115980148315
-0.0279745515435934
-0.0247685965150594
-0.0217022839933633
-0.0189273618161678
-0.0165306590497493
-0.014533057808876
-0.0128954518586397
-0.0115307783707976
-0.010321207344532
-0.0091381119564175
-0.0078598884865641
-0.0063875755295157
-0.0046592741273343
-0.0026569915935397
-0.0004029185511171
0.0020502172410488
0.0046312641352415
0.0072619291022419
0.0098635274916887
0.0123616605997085
0.0146932583302259
0.0168132074177265
0.0186955668032169
0.0203298665583133
0.0217135716229677
0.0228368379175663
0.0236592404544353
0.0240878947079181
0.0239706225693225
0.0231155809015035
0.0213350094854831
0.0184964314103126
0.0145660806447267
0.0096346624195575
0.0039177504368126
-0.0022690570913255
-0.0085504408925771
-0.0145365111529827
-0.0198657717555761
-0.0242396835237741
-0.0274449810385704
-0.0293637737631797
-0.0299729444086551
-0.0293383058160543
-0.0276073887944221
-0.0249951090663671
-0.0217595007270574
-0.0181743428111076
-0.0145031306892633
-0.0109750311821699
-0.0077661424875259
-0.00498832995072
-0.0026847845874726
-0.0008330279961228
0.0006433837115764
0.00185620598495
0.0029325145296752
0.0039996351115405
0.0051744552329182
0.0065502068027853
0.0081805130466818
0.0100703192874789
0.0121800610795617
0.0144399385899305
0.0167653821408748
0.0190680436789989
0.0212647188454866
0.0232856944203376
0.0250799413770437
0.0266169197857379
0.0278858114033937
0.0288919024169445
0.0296512246131896
0.0301840379834175
0.0305016804486513
0.0305800475180149
0.03032898157835
0.0295815914869308
0.0281168650835752
0.0257081016898155
0.0221809297800064
0.0174640975892543
0.0116189811378717
0.0048424815759062
-0.0025531114079058
-0.0101769436150789
-0.0176061410456895
-0.0244344808161258
-0.0303159598261117
-0.0349959060549736
-0.0383239649236202
-0.0402528308331966
-0.0408313050866127
-0.0401906743645668
-0.0385224893689155
-0.036054253578186
-0.0330272354185581
-0.0296774562448263
-0.0262207891792058
-0.0228402763605117
-0.0196745619177818
-0.0168094616383314
-0.0142749939113855
-0.0120494589209556
-0.0100707467645406
-0.0082504134625196
-0.0064859390258789
-0.0046760593540966
-0.0027408199384808
-0.0006339000537991
0.0016585774719715
0.0041235797107219
0.0067251506261527
0.009409668855369
0.0121131790801882
0.0147676523774862
0.0173069350421428
0.019673429429531
0.0218221805989742
0.0237225387245416
0.0253596734255552
0.026735158637166
0.0278658289462327
0.0287772119045257
0.0294873341917991
0.0299832578748464
0.0301973819732666
0.0299955382943153
0.0291879419237375
0.0275613907724618
0.0249234940856695
0.0211500730365514
0.0162239409983158
0.0102540832012891
0.0034721470437943
-0.0037909424863755
-0.0111431423574686
-0.0181764643639326
-0.0245100371539592
-0.0298277679830789
-0.0339096784591674
-0.0366484895348548
-0.0380452163517475
-0.0381896905601024
-0.0372369363903999
-0.0353852435946464
-0.0328557454049587
-0.0298732407391071
-0.0266499798744916
-0.0233726501464843
-0.020192090421915
-0.0172158200293779
-0.0145039912313222
-0.0120696183294057
-0.0098816538229584
-0.0078730415552854
-0.0059591559693217
-0.0040593123994767
-0.0021087024360895
-6.289500743150711e-05
0.0020990669727325
0.0043761255219578
0.0067517673596739
0.009199128486216
0.0116823958232998
0.0141577571630477
0.0165762770920991
0.0188890174031257
0.0210530366748571
0.0230373237282037
0.0248274318873882
0.0264231115579605
0.0278275646269321
0.0290382094681262
0.0300441067665815
0.0308212172240018
0.0313176065683364
0.0314348042011261
0.0310207568109035
0.029884522780776
0.0278314147144556
0.024709828197956
0.0204555578529834
0.0151195656508207
0.0088745038956403
0.0020042932592332
-0.0051218103617429
-0.0120944585651159
-0.0185221172869205
-0.0240813177078962
-0.0285442862659692
-0.0317843407392501
-0.0337672866880893
-0.0345359966158866
-0.0341944321990013
-0.032895803451538
-0.0308319572359323
-0.028218874707818
-0.02527885325253
-0.0222224798053503
-0.0192318670451641
-0.0164450332522392
-0.0139436610043048
-0.0117517644539475
-0.0098475981503725
-0.0081773623824119
-0.0066634328104555
-0.0052149905823171
-0.0037437602877616
-0.0021761348471045
-0.0004585413262248
0.0014399932697415
0.0035257791168987
0.0057798773050308
0.0081605799496173
0.0106087168678641
0.0130554754287004
0.0154337491840124
0.0176892410963773
0.0197821222245693
0.0216793492436409
0.0233463142067194
0.0247364081442356
0.0257735457271337
0.0263363253325223
0.0262592863291502
0.0253570228815078
0.0234632603824138
0.0204731132835149
0.0163790341466665
0.0112901283428072
0.0054289028048515
-0.0008903541602194
-0.0072947065345942
-0.0133938761427998
-0.0188259668648242
-0.023297756910324
-0.0266090836375951
-0.0286600962281227
-0.029446268454194
-0.0290468987077474
-0.0276108551770448
-0.0253398083150386
-0.0224698409438133
-0.019252561032772
-0.0159339662641286
-0.0127313453704118
-0.0098131820559501
-0.0072860377840697
-0.0051886956207454
-0.0034932540729641
-0.0021171513944864
-0.0009464938193559
0.0001401947811245
0.001256676390767
0.0024993452243506
0.003938406240195
0.0056105651892721
0.0075164642184972
0.0096250437200069
0.011883420869708
0.0142268948256969
0.0165852382779121
0.0188876576721668
0.0210696905851364
0.0230801366269588
0.024882860481739
0.0264445170760154
0.0277044437825679
0.0285443775355815
0.02878257073462
0.0281977467238903
0.0265725255012512
0.0237440653145313
0.0196504350751638
0.014360656030476
0.0080799264833331
0.0011307469103485
-0.006084356456995
-0.0131318243220448
-0.0195978339761495
-0.0251301005482673
-0.0294648017734289
-0.0324414931237697
-0.0340095870196819
-0.0342233628034591
-0.0332254245877265
-0.0312247332185506
-0.0284730941057205
-0.0252399519085884
-0.0217860303819179
-0.0183392576873302
-0.0150772128254175
-0.0121184419840574
-0.0095212496817111
-0.0072865849360823
-0.0053648399189114
-0.0036679720506072
-0.0020846547558903
-0.0004975777119398
0.0011958871036767
0.0030662394128739
0.0051462836563587
0.0074346787296235
0.0099017890170216
0.0124970022588968
0.0151569116860628
0.0178121719509363
0.0203937627375125
0.0228388532996177
0.0250946134328842
0.0271209068596363
0.0288919545710086
0.0303926337510347
0.0316034406423568
0.032471440732479
0.0328794717788696
0.0326376482844352
0.0315089300274848
0.0292610377073287
0.0257273260504007
0.020857535302639
0.0147452522069215
0.0076286979019641
-0.0001330652739852
-0.0081035494804382
-0.0158231239765882
-0.0228633061051368
-0.0288702920079231
-0.0335899963974952
-0.0368742421269416
-0.0386774763464927
-0.0390522219240665
-0.0381391309201717
-0.0361471101641655
-0.033328466117382
-0.0299545228481292
-0.0262922476977109
-0.0225813277065753
-0.0190140176564455
-0.0157220605760812
-0.0127726159989833
-0.0101711908355355
-0.0078710066154599
-0.0057884654961526
-0.003817974589765
-0.0018438883125782
0.0002418663352727
0.0025166356936097
0.005012588109821
0.0077186459675431
0.0105925071984529
0.0135731007903814
0.0165886953473091
0.0195619165897369
0.0224149003624916
0.0250759162008762
0.0274864379316568
0.0296063795685768
0.0314155928790569
0.0329109728336334
0.0341006070375442
0.0349926203489303
0.0355691723525524
0.0357500985264778
0.0353740043938159
0.0342159606516361
0.0320346243679523
0.0286322608590126
0.0239117704331874
0.0179155431687831
0.0108356773853302
0.0029950952157378
-0.0051924753934144
-0.0132741024717688
-0.020811615511775
-0.0274269320070743
-0.0328298993408679
-0.0368293523788452
-0.0393370874226093
-0.0403692573308944
-0.0400393418967723
-0.0385398901998996
-0.0361163280904293
-0.0330376625061035
-0.029570136219263
-0.0259570479393005
-0.0224031340330839
-0.0190619900822639
-0.0160280317068099
-0.0133360158652067
-0.0109683107584714
-0.0088660130277276
-0.0069405268877744
-0.0050856042653322
-0.0031930247787386
-0.0011732017155736
0.0010281746508553
0.0034263208508491
0.0060025248676538
0.0087126977741718
0.0114985611289739
0.0142977470532059
0.0170488134026527
0.019692201167345
0.0221710130572319
0.0244349427521228
0.0264456663280725
0.028179969638586
0.0296317711472511
0.0308122616261243
0.0317383110523223
0.032403364777565
0.0327432453632354
0.0326180420815944
0.0318230129778385
0.0301265493035316
0.0273226089775562
0.0232839323580265
0.018002837896347
0.0116085112094879
0.0043590823188424
-0.0033859396353363
-0.0112072369083762
-0.0186740327626466
-0.0253895334899425
-0.0310260206460952
-0.0353492200374603
-0.0382342860102653
-0.0396693721413612
-0.0397434942424297
-0.0386247485876083
-0.0365356653928756
-0.0337285324931144
-0.0304633267223835
-0.0269890055060386
-0.0235265009105205
-0.0202523097395896
-0.0172849223017692
-0.0146779455244541
-0.0124213937669992
-0.0104508958756923
-0.0086641376838088
-0.0069433213211596
-0.0051788305863738
-0.0032862061634659
-0.0012137489393353
0.0010572362225502
0.003516157856211
0.0061271116137504
0.0088338749483227
0.0115670431405305
0.0142512395977973
0.0168123431503772
0.019185584038496
0.0213223099708557
0.0231917314231395
0.0247790906578302
0.0260863844305276
0.0271323099732399
0.0279420930892229
0.0285297594964504
0.0288798697292804
0.0289300978183746
0.0285599678754806
0.0275964550673961
0.0258413851261138
0.0231148973107337
0.0193035304546356
0.0143997520208358
0.0085207559168338
0.0019020345062017
-0.0051287105306982
-0.0121883265674114
-0.0188801661133766
-0.0248398184776306
-0.0297781974077224
-0.033507727086544
-0.0359455645084381
-0.0371027998626232
-0.037069909274578
-0.0360013172030448
-0.0340986624360084
-0.0315935462713241
-0.0287287794053554
-0.0257367677986621
-0.0228185523301363
-0.0201274324208498
-0.0177581086754798
-0.0157415717840194
-0.01404679287225
-0.0125935189425945
-0.0112761184573173
-0.009986450895667
-0.0086273867636919
-0.0071215303614735
-0.0054182396270334
-0.0034965970553457
-0.0013643992133438
0.0009452642407268
0.0033800271339714
0.0058765630237758
0.0083686271682381
0.0107924249023199
0.0130900247022509
0.0152140092104673
0.0171319544315338
0.0188212376087903
0.0202491357922554
0.0213478971272707
0.0219997968524694
0.0220419615507125
0.0212919078767299
0.0195876341313123
0.01683278568089
0.0130333444103598
0.0083130020648241
0.0029043573886156
-0.0028778007254004
-0.0086735170334577
-0.0141196800395846
-0.0188882537186145
-0.0227116290479898
-0.0253998469561338
-0.0268558673560619
-0.0270814001560211
-0.0261690933257341
-0.0242854692041873
-0.0216480381786823
-0.0185017175972461
-0.0150977186858654
-0.0116728777065873
-0.0084290038794279
-0.0055142035707831
-0.0030115151312202
-0.0009393976069986
0.0007406855002045
0.0021145744249224
0.0033007173333317
0.004427870735526
0.0056093158200383
0.0069233309477567
0.0084074363112449
0.0100639453157782
0.0118689779192209
0.0137805212289094
0.0157448500394821
0.0177020616829395
0.0195923428982496
0.0213626120239496
0.0229712352156639
0.0243900883942842
0.0256039481610059
0.0266080647706985
0.0274028573185205
0.0279764849692583
0.0282734595239162
0.028169872239232
0.02747736684978
0.0259779784828424
0.0234771370887756
0.0198576003313064
0.0151183139532804
0.0093888379633426
0.0029188324697315
-0.003952806815505
-0.0108414907008409
-0.0173636004328727
-0.0231774449348449
-0.028010256588459
-0.0316701643168926
-0.0340535715222358
-0.035151470452547
-0.0350451357662677
-0.0338878408074379
-0.0318800322711467
-0.0292465426027774
-0.0262180678546428
-0.0230139922350645
-0.0198265183717012
-0.0168075524270534
-0.0140584520995616
-0.0116245932877063
-0.0094976304098963
-0.0076250252313911
-0.005922608077526
-0.0042881928384304
-0.0026198052801191
-0.0008365358226001
0.0011091707274317
0.003231864888221
0.0055195186287164
0.0079405736178159
0.0104493340477347
0.0129895843565464
0.0154982302337884
0.0179099254310131
0.0201632492244243
0.0222069807350635
0.0240038055926561
0.0255326554179191
0.026790676638484
0.0277891084551811
0.0285330060869455
0.0289870519191026
0.0290497802197933
0.0285550598055124
0.0273008812218904
0.0250959210097789
0.0218099877238273
0.0174135528504848
0.0119978189468383
0.0057731997221708
-0.0009528200607746
-0.0078131593763828
-0.0144247328862547
-0.020429728552699
-0.0255280435085296
-0.0294981747865676
-0.0322101488709449
-0.0336323827505111
-0.033826820552349
-0.03293002769351
-0.0311287082731723
-0.0286388844251632
-0.0256893914192914
-0.0225048717111349
-0.0192859414964914
-0.0161911305040121
-0.0133274616673588
-0.0107496604323387
-0.0084634087979793
-0.0064322440885007
-0.004588181618601
-0.0028432570397853
-0.0011042663827538
0.0007071299478411
0.0026392950676381
0.0047095501795411
0.0069108698517084
0.0092185577377676
0.0115960445255041
0.0139986108988523
0.0163747873157262
0.0186697132885456
0.0208320822566747
0.0228199772536754
0.0246030893176794
0.0261637158691883
0.0274977162480354
0.0286129154264926
0.0295168049633502
0.0301891583949327
0.0305537581443786
0.0304682217538356
0.0297373160719871
0.028146730735898
0.0255116112530231
0.0217277742922306
0.0168079193681478
0.0108920112252235
0.0042338920757174
-0.0028280718252062
-0.0099087115377187
-0.0166175588965415
-0.0225993581116199
-0.0275667365640401
-0.0313243232667446
-0.0337838158011436
-0.0349617823958396
-0.0349606238305568
-0.0339442454278469
-0.0321143977344036
-0.0296883545815944
-0.0268801115453243
-0.0238868594169616
-0.0208795852959156
-0.0179946850985288
-0.0153252827003598
-0.0129157863557338
-0.0107634756714105
-0.0088248318061232
-0.0070247594267129
-0.0052729807794094
-0.003486203495413
-0.0016039125621318
0.0004084524698555
0.0025627710856497
0.0048504713922739
0.0072430656291544
0.0096961697563529
0.0121581554412841
0.014578353613615
0.016911257058382
0.0191169679164886
0.0211610049009323
0.0230159610509872
0.0246642269194126
0.0260998643934726
0.027324641123414
0.0283340588212013
0.0290979109704494
0.0295425932854414
0.0295404270291328
0.0289142113178968
0.0274646896868944
0.0250172615051269
0.0214702170342206
0.0168277900665998
0.0112135550007224
0.0048640999011695
-0.0018960330635309
-0.0086924862116575
-0.0151444235816597
-0.0209046527743339
-0.0256920848041772
-0.0293159298598766
-0.0316870026290416
-0.0328130982816219
-0.0327841192483902
-0.0317539796233177
-0.0299222748726606
-0.0275156702846288
-0.0247670635581016
-0.0218933820724487
-0.0190777983516454
-0.016459085047245
-0.0141259310767054
-0.0121145667508244
-0.0104096662253141
-0.0089501161128282
-0.0076434602960944
-0.0063873678445816
-0.0050885193049907
-0.0036742242518812
-0.0020978844258934
-0.0003386382013559
0.0016021418850868
0.003705034032464
0.0059361299499869
0.0082480814307928
0.0105821676552295
0.0128755252808332
0.0150690451264381
0.0171106625348329
0.0189550891518592
0.020558301359415
0.0218592192977666
0.0227536167949438
0.0230836924165487
0.0226569361984729
0.0212853122502565
0.018831517547369
0.0152517976239323
0.0106223877519369
0.0051406319253146
-0.0008957237005233
-0.0071222940459847
-0.0131507068872451
-0.0186135526746511
-0.0231997538357973
-0.0266757439821958
-0.0288961324840784
-0.0298092942684888
-0.0294602755457162
-0.0279851797968149
-0.025592153891921
-0.0225334037095308
-0.0190762542188167
-0.0154795385897159
-0.0119755016639828
-0.0087524829432368
-0.0059374473057687
-0.0035847052931785
-0.0016778060235083
-0.0001430734992027
0.0011321380734443
0.0022802902385592
0.0034346119500696
0.0047104847617447
0.006189027801156
0.0079087046906352
0.0098676504567265
0.012030690908432
0.014336485415697
0.016706570982933
0.0190558396279811
0.0213011782616376
0.0233686100691556
0.0252011138945817
0.0267653092741966
0.0280508995056152
0.0290569253265857
0.0297658909112215
0.0301151163876056
0.0299769844859838
0.0291589424014091
0.0274325720965862
0.024589093402028
0.0205005817115306
0.01516536436975
0.0087279556319117
0.0014699993189424
-0.0062235677614808
-0.0139128789305686
-0.0211571026593446
-0.0275639779865741
-0.0328255146741867
-0.03673642501235
-0.0391960926353931
-0.0401986464858055
-0.0398219376802444
-0.0382219105958938
-0.0356231667101383
-0.0322960466146469
-0.0285250768065452
-0.024580217897892
-0.0206958428025245
-0.0170542187988758
-0.0137725584208965
-0.0108994282782077
-0.0084221400320529
-0.006278314627707
-0.0043683415278792
-0.0025724340230226
-0.0007698647677898
0.0011477498337626
0.003265643492341
0.0056314566172659
0.0082456357777118
0.0110642211511731
0.0140102757140994
0.0169892236590385
0.0199040416628122
0.0226666890084743
0.0252059157937765
0.0274717509746551
0.0294361338019371
0.0310915634036064
0.0324473977088928
0.0335196107625961
0.0343126617372036
0.034796230494976
0.0348808951675891
0.0344035811722278
0.0331399254500865
0.0308492332696914
0.0273367073386907
0.0225105192512273
0.0164184644818305
0.0092577338218688
0.0013575139455497
-0.0068611307069659
-0.0149391889572143
-0.0224345009773969
-0.0289664287120103
-0.0342461876571178
-0.0380914658308029
-0.0404259860515594
-0.0412718504667282
-0.0407413057982921
-0.0390236712992191
-0.0363631807267665
-0.0330331996083259
-0.0293124672025442
-0.0254621692001819
-0.0217042174190282
-0.0182054676115512
-0.0150678129866719
-0.0123239485546946
-0.0099433287978172
-0.0078467866405844
-0.0059238676913082
-0.0040505710057914
-0.0021059392020106
1.1053867638111116e-05
0.0023633437231183
0.0049655437469482
0.0077884681522846
0.0107722021639347
0.0138386692851781
0.0169004537165164
0.0198691189289093
0.02266576141119
0.025229912251234
0.0275221243500709
0.0295211784541606
0.0312197264283895
0.0326211601495742
0.0337390005588531
0.0345945954322814
0.0352003313601017
0.0355248302221298
0.0354612246155738
0.034822903573513
0.0333714298903942
0.0308658443391323
0.0271187555044889
0.0220467336475849
0.0157046616077423
0.0082959178835153
0.0001568552106618
-0.0082816956564784
-0.0165495760738849
-0.0241944845765829
-0.0308276135474443
-0.03615378215909
-0.0399883836507797
-0.042264774441719
-0.0430299788713455
-0.0424268171191215
-0.0406690165400505
-0.0380151607096195
-0.0347427502274513
-0.0311231315135955
-0.0273990556597709
-0.0237687416374683
-0.0203777849674224
-0.0173151269555091
-0.0146110923960804
-0.0122402487322688
-0.0101293986663222
-0.0081694880500435
-0.0062364982441067
-0.004220045171678
-0.0020438923966139
0.000329584814608
0.0029027201235294
0.0056480560451745
0.0085162511095404
0.0114437220618128
0.0143587859347462
0.017188873142004
0.0198677573353052
0.0223397389054298
0.0245624035596847
0.0265097729861736
0.0281747356057167
0.0295695848762989
0.0307196136564016
0.0316464565694332
0.0323486514389514
0.0327853001654148
0.0328596271574497
0.032408133149147
0.0312128588557243
0.0290415789932012
0.0257030297070741
0.0211004763841629
0.0152691043913364
0.0083876783028244
0.0007631313055753
-0.0072056460194289
-0.0150752989575266
-0.0224077515304088
-0.0288155805319547
-0.0340000316500663
-0.0377759262919425
-0.0400760322809219
-0.0409372858703136
-0.0404803901910781
-0.0388907678425312
-0.036400880664587
-0.0332709625363349
-0.0297669358551502
-0.0261382050812244
-0.0225982964038848
-0.0193094220012426
-0.0163725279271602
-0.0138229224830865
-0.0116318706423044
-0.0097199091687798
-0.0079816384240984
-0.0063086436130106
-0.0046035395935177
-0.0027892561629414
-0.0008141103899106
0.0013467785902321
0.0036908732727169
