bvp
-0.0099954260513186
-0.0079380292445421
-0.0060473340563476
-0.0042654406279325
-0.0025286993477493
-0.000779289053753
0.0010271836072206
0.0029173451475799
0.0049000410363078
0.0069678481668233
0.0090980175882577
0.0112556461244821
0.0134002873674035
0.015491628088057
0.0174907147884368
0.0193597935140132
0.0210662707686424
0.0225884523242712
0.0239099040627479
0.0249957256019115
0.0257661547511816
0.0260882806032896
0.0257909502834081
0.0246959179639816
0.0226557347923517
0.0195887684822082
0.0155051657930016
0.0105207618325948
0.004853727761656
-0.0011990871280431
-0.0072993542999029
-0.0131069794297218
-0.0183149203658103
-0.0226750951260328
-0.0260159261524677
-0.0282529853284358
-0.029387891292572
-0.0294940043240785
-0.0286975167691707
-0.0271598752588033
-0.0250610057264566
-0.022583594545722
-0.0198999475687742
-0.0171618927270174
-0.0144931804388761
-0.0119835939258337
-0.0096850944682955
-0.0076117776334285
-0.0057429866865277
-0.0040282779373228
-0.0023983905557543
-0.0007834053831174
0.0008712406270205
0.0025991597212851
0.0044152252376079
0.0063181351870298
0.0082906559109687
0.0103012137115001
0.0123090716078877
0.0142692187801003
0.0161352567374706
0.0178638715296983
0.0194209106266498
0.0207855701446533
0.0219514705240726
0.0229219980537891
0.0236924663186073
0.0242200456559658
0.024401519447565
0.0240782313048839
0.0230670236051082
0.0212045162916183
0.0183905996382236
0.0146182551980018
0.009985102340579
0.004688867367804
-0.0009929295629262
-0.0067374631762504
-0.0122170718386769
-0.017136376351118
-0.0212578643113374
-0.0244123004376888
-0.0265029482543468
-0.0275121219456195
-0.0275023188441991
-0.0266038160771131
-0.024992998689413
-0.022870572283864
-0.0204437468200922
-0.0179083868861198
-0.0154306199401617
-0.0131342662498354
-0.0110948728397488
-0.0093367267400026
-0.0078351935371756
-0.0065284157171845
-0.0053332177922129
-0.004157839808613
-0.0029148294124752
-0.0015373139176517
9.123061317950489e-06
0.0017252524849027
0.0035845022648572
0.0055413008667528
0.0075390967540442
0.0095173260197043
0.0114171337336301
0.0131865963339805
0.0147851174697279
0.0161836445331573
0.0173546150326728
0.0182505715638399
0.0187856703996658
0.0188368242233991
0.0182626470923423
0.0169296860694885
0.0147433504462242
0.0116804111748933
0.0078109353780746
0.0032996321097016
-0.0016115824691951
-0.0066311759874224
-0.011449996381998
-0.015775628387928
-0.0193634182214736
-0.0220362991094589
-0.0236932914704084
-0.0243109297007322
-0.0239367187023162
-0.0226761121302843
-0.0206816978752613
-0.0181459039449691
-0.0152879822999238
-0.0123303616419434
-0.0094695426523685
-0.0068530468270182
-0.0045698229223489
-0.0026502835098654
-0.0010711911600083
0.000233104918152
0.0013533909805119
0.0023884703405201
0.0034326594322919
0.0045662731863558
0.0058481623418629
0.0073113311082124
0.0089587802067399
0.0107594989240169
0.0126523580402135
0.0145603027194738
0.0164062641561031
0.0181233081966638
0.0196587480604648
0.0209713075309991
0.0220168568193912
0.0227265581488609
0.022991981357336
0.0226689204573631
0.0216018445789814
0.0196603573858737
0.0167738888412714
0.012957532890141
0.008324135094881
0.0030761519446969
-0.0025195577181875
-0.0081644412130117
-0.0135604552924633
-0.018435563892126
-0.0225619040429592
-0.0257698278874158
-0.0279571805149316
-0.0290903579443693
-0.0291988905519247
-0.0283688437193632
-0.0267351269721984
-0.0244690831750631
-0.0217604003846645
-0.0187975727021694
-0.0157540403306484
-0.0127804204821586
-0.0099962390959262
-0.0074802162125706
-0.005264526233077
-0.0033366391435265
-0.0016476246528327
-0.0001233629882335
0.0013226219452917
0.0027753834147006
0.0043063601478934
0.0059644044376909
0.00777043774724
0.0097160562872886
0.0117678344249725
0.013877859339118
0.0159933939576149
0.018059141933918
0.0200171656906604
0.021811245009303
0.0233913268893957
0.0247069410979747
0.025688225403428
0.0262287743389606
0.0261848680675029
0.0253936424851417
0.0237052273005247
0.021020945161581
0.0173263773322105
0.0127089703455567
0.0073573584668338
0.001545590814203
-0.0043979729525744
-0.0101351980119943
-0.0153607334941625
-0.0198289062827825
-0.0233670771121978
-0.0258801635354757
-0.0273450892418622
-0.0277982745319604
-0.0273238774389028
-0.0260445140302181
-0.024111958220601
-0.0216964185237884
-0.0189748648554086
-0.0161186829209327
-0.0132783763110637
-0.0105663677677512
-0.0080481152981519
-0.0057486235164105
-0.0036656940355896
-0.0017773448489606
-4.259264096617699e-05
0.0015965118072926
0.003205205546692
0.0048416112549602
0.0065466458909213
0.0083408001810312
0.0102241626009345
0.0121782813221216
0.0141696380451321
0.0161542575806379
0.0180846787989139
0.0199184790253639
0.0216217823326587
0.0231640934944152
0.0245116427540779
0.0256241858005523
0.0264475811272859
0.0268986374139785
0.0268545467406511
0.0261612683534622
0.0246625784784555
0.0222386550158262
0.0188400968909263
0.0145097430795431
0.0093896333128213
0.00371067924425
-0.0022338852286338
-0.0081233046948909
-0.0136451534926891
-0.0185288004577159
-0.0225697793066501
-0.0256387498229742
-0.0276776552200317
-0.0286906957626342
-0.0287352092564106
-0.02791353687644
-0.0263642724603414
-0.0242514442652463
-0.0217524282634258
-0.019044917076826
-0.016292093321681
-0.0136270448565483
-0.0111401760950684
-0.0088737653568387
-0.0068263979628682
-0.0049658278003335
-0.0032432286534458
-0.0016031929990276
9.871670044958591e-06
0.0016451857518404
0.0033378326334059
0.0051046051084995
0.0069461269304156
0.0088499784469604
0.0107904756441712
0.0127282245084643
0.0146151036024093
0.0164036583155393
0.0180545467883348
0.0195410382002592
0.0208506323397159
0.0219797082245349
0.0229222849011421
0.0236560516059398
0.0241256356239318
0.0242303423583507
0.0238282848149538
0.0227591078728437
0.020878292620182
0.0180946327745914
0.0144007597118616
0.0098871039226651
0.0047362633049488
-0.0007984219118952
-0.0064218216575682
-0.0118274027481675
-0.0167298838496208
-0.0208971388638019
-0.0241696871817111
-0.0264637172222137
-0.0277653578668832
-0.0281227957457304
-0.027636706829071
-0.026447407901287
-0.0247200615704059
-0.0226304419338703
-0.0203512571752071
-0.0180387049913406
-0.0158190689980983
-0.0137770427390933
-0.0119500216096639
-0.0103296190500259
-0.0088716801255941
-0.0075155198574066
-0.0062015885487198
-0.0048775225877761
-0.0034990739077329
-0.0020336208399385
-0.0004632890922948
0.0012143224012106
0.0029847698751837
0.0048157186247408
0.0066612353548407
0.008471654728055
0.0102031761780381
0.0118221631273627
0.013304122723639
0.0146284215152263
0.0157642886042594
0.01664824411273
0.0171697568148374
0.0171814486384391
0.0165305454283952
0.0150959230959415
0.0128182088956236
0.009717721492052
0.0058989473618566
0.0015436997637152
-0.0031042958144098
-0.007764346897602
-0.0121523449197411
-0.0160133615136146
-0.0191411543637514
-0.0213843323290348
-0.0226523224264383
-0.0229269675910472
-0.0222685430198907
-0.0208069570362567
-0.0187224056571722
-0.0162227936089038
-0.0135199725627899
-0.0108066080138087
-0.0082378042861819
-0.0059199566021561
-0.0039078183472156
-0.0022082540672272
-0.0007872122805565
0.0004208083264529
0.0015018724370747
0.0025514289736747
0.0036601556930691
0.0048973918892443
0.006299028173089
0.0078644165769219
0.0095610115677118
0.0113340513780713
0.0131190456449985
0.0148533713072538
0.0164839141070842
0.0179712567478418
0.0192909575998783
0.0204305350780487
0.0213810950517654
0.022121962159872
0.0226005539298057
0.02271961979568
0.0223412681370973
0.0213064085692167
0.0194671265780925
0.0167263615876436
0.0130718322470784
0.0085923774167895
0.0034738145768642
-0.0020211201626807
-0.0075841704383492
-0.0128993485122919
-0.0176776889711618
-0.0216825902462005
-0.0247471556067466
-0.0267830546945333
-0.0277769491076469
-0.0277783926576375
-0.0268894731998443
-0.025257620960474
-0.0230641607195138
-0.0205068010836839
-0.0177800599485635
-0.0150564648211002
-0.0124714979901909
-0.0101148327812552
-0.0080279409885406
-0.0062070423737168
-0.0046112090349197
-0.0031750153284519
-0.0018216371536254
-0.0004733791574835
0.0009403205476701
0.0024772267788648
0.0041753444820642
0.0060429889708757
0.0080545675009489
0.0101577406749129
0.012285016477108
0.0143638029694557
0.0163263659924268
0.0181189272552728
0.0197063628584146
0.0210719835013151
0.022209744900465
0.0231044515967369
0.0237068887799978
0.0239210985600948
0.0236141495406627
0.022644180804491
0.0208927765488624
0.0182906836271286
0.0148368859663605
0.0106114437803626
0.0057756700552999
0.0005575839895755
-0.0047715241089463
-0.009926239028573
-0.0146387349814176
-0.0186831001192331
-0.0218877736479043
-0.0241422615945339
-0.0254018381237983
-0.0256875660270452
-0.0250793378800153
-0.0237023681402206
-0.0217125788331031
-0.0192871633917093
-0.0166157148778438
-0.0138833606615662
-0.0112494425848126
-0.0088314460590481
-0.0066968142054975
-0.0048612551763653
-0.0032942129764705
-0.0019308610353618
-0.0006871230434626
0.0005258934106677
0.0017893507611006
0.0031650601886212
0.0046887244097888
0.0063726850785315
0.0082087833434343
0.0101634403690695
0.0121762212365865
0.0141698820516467
0.0160645861178636
0.0177903976291418
0.0192973725497722
0.0205606464296579
0.0215762499719858
0.0223455838859081
0.0228521339595317
0.0230400804430246
0.0228062644600868
0.0220125783234834
0.0205168407410383
0.0182121954858303
0.0150596061721444
0.0111018661409616
0.0064628142863512
0.0013396320864558
-0.0040130582638084
-0.0093088252469897
-0.0142611786723136
-0.0186155457049608
-0.0221729762852191
-0.0248014684766531
-0.0264385044574737
-0.0270882025361061
-0.026814766228199
-0.0257338490337133
-0.0239998884499073
-0.0217877514660358
-0.0192758943885564
-0.0166380163282156
-0.0140352444723248
-0.0116003882139921
-0.0094214882701635
-0.0075352410785853
-0.0059308847412467
-0.0045595839619636
-0.0033458685502409
-0.0022006852086633
-0.0010363289620727
0.0002194638364017
0.0016141581581905
0.0031661747489124
0.0048662740737199
0.0066853896714746
0.0085825771093368
0.0105068860575556
0.012398300692439
0.0141949895769357
0.015843441709876
0.0173039510846138
0.018550731241703
0.019567348062992
0.0203333534300327
0.0208025220781564
0.0208870023488998
0.0204623378813266
0.0193916521966457
0.0175584927201271
0.0149007365107536
0.0114364642649889
0.0072704395279288
0.0025805821642279
-0.0024030834902077
-0.0074200578965246
-0.012204086408019
-0.016508761793375
-0.0201282631605863
-0.0229110736399889
-0.0247667357325553
-0.0256679411977529
-0.0256501175463199
-0.0248056463897228
-0.0232702661305665
-0.0212062615901231
-0.0187871679663658
-0.0161829739809036
-0.0135467639192938
-0.0110068889334797
-0.0086624985560774
-0.0065783881582319
-0.0047805868089199
-0.0032544792629778
-0.0019470201805233
-0.0007774895057082
0.0003436559345573
0.0014969648327678
0.0027436092495918
0.0041206367313861
0.0056398431770503
0.0072911018505692
0.0090481545776128
0.0108727440237998
0.0127159785479307
0.0145204849541187
0.0162270255386829
0.0177827160805463
0.0191461108624935
0.0202879272401332
0.0211854707449674
0.0218077562749385
0.0220960993319749
0.0219546165317296
0.0212595034390687
0.0198830775916576
0.0177258402109146
0.0147486478090286
0.0109949680045247
0.0065989475697278
0.0017759972251951
-0.0032071457244455
-0.0080715995281934
-0.0125588737428188
-0.0164525844156742
-0.0195894297212362
-0.0218618642538785
-0.0232183672487735
-0.0236630253493785
-0.0232535451650619
-0.0220970399677753
-0.0203419160097837
-0.0181654766201972
-0.0157576519995927
-0.0133004141971468
-0.0109452726319432
-0.008798505179584
-0.0069204661995172
-0.0053307330235838
-0.0040122801437973
-0.0029178459662944
-0.0019790143705904
-0.0011160990688949
-0.0002480149269104
0.0006978556048125
0.0017749076941981
0.0030088000930845
0.0043966099619865
0.0059131453745067
0.0075189140625298
0.0091675706207752
0.0108132995665073
0.0124136907979846
0.0139256054535508
0.0152998389676213
0.0164753571152687
0.0173695255070924
0.0178714971989393
0.0178484749048948
0.0171655938029289
0.015714893117547
0.0134440278634428
0.0103752268478274
0.0066122789867222
0.0023361688945442
-0.0022103558294475
-0.006746613420546
-0.0109828133136034
-0.0146526154130697
-0.017544949427247
-0.0195247046649456
-0.0205377358943223
-0.0206058528274297
-0.0198174994438886
-0.0183154810220003
-0.0162806008011102
-0.0139119308441877
-0.0114078661426901
-0.008949332870543
-0.006684545893222
-0.0047168238088488
-0.0030969507060945
-0.0018200052436441
-0.0008280628826469
-2.4996697902679443e-05
0.00069699017331
0.0014335867017507
0.0022574898321181
0.0032161381095647
0.0043318378739058
0.0056032915599644
0.0070082619786262
0.0085071269422769
0.0100496597588062
0.0115849915891885
0.0130697656422853
0.0144704710692167
0.0157601255923509
0.0169087685644626
0.0178659576922655
0.0185407940298318
0.0187944006174802
0.0184562113136053
0.0173593778163194
0.0153815392404794
0.012479898519814
0.0087121687829494
0.0042378548532724
-0.0006988325621932
-0.0057986779138445
-0.0107434131205081
-0.0152316614985466
-0.0190095771104097
-0.0218911170959472
-0.0237655937671661
-0.0245958473533391
-0.0244130361825227
-0.0233126115053892
-0.0214501563459634
-0.0190294440835714
-0.016278488561511
-0.0134198563173413
-0.0106449201703071
-0.0080971587449312
-0.0058648004196584
-0.0039810072630643
-0.0024294327013194
-0.0011530900374054
-6.645452231168747e-05
0.000928412657231
0.001926502212882
0.0030118487775325
0.004251018166542
0.0056796888820827
0.0072921412065625
0.0090454099699854
0.0108730848878622
0.0127000156790018
0.0144549440592527
0.0160793550312519
0.0175314899533987
0.0187849458307027
0.0198184493929147
0.0205956753343343
0.0210442226380109
0.0210478380322456
0.0204603765159845
0.019139451906085
0.0169844254851341
0.013963240198791
0.0101268216967582
0.0056135263293981
0.00064025784377
-0.0045209098607301
-0.0095750885084271
-0.0142374290153384
-0.0182597395032644
-0.0214486457407474
-0.0236756242811679
-0.0248810928314924
-0.0250760409981012
-0.0243392866104841
-0.022805156186223
-0.020644374191761
-0.018047459423542
-0.01521404273808
-0.0123409517109394
-0.0096025569364428
-0.0071285534650087
-0.0049905618652701
-0.0032023000530898
-0.0017281910404562
-0.0004951832816004
0.0005923104472458
0.0016355877742171
0.0027266268152743
0.0039368085563182
0.0053088921122252
0.0068529462441802
0.0085504157468676
0.0103635340929031
0.0122405160218477
0.0141181293874979
0.0159290246665477
0.017611775547266
0.0191173311322927
0.0204064659774303
0.0214344225823879
0.0221288502216339
0.0223770234733819
0.022034116089344
0.0209506750106811
0.0190085712820291
0.0161556098610162
0.0124310823157429
0.0079745454713702
0.0030124327167868
-0.0021746554411947
-0.0072904145345091
-0.0120549909770488
-0.0162285529077053
-0.0196260679513216
-0.0221232641488313
-0.0236579999327659
-0.0242308359593153
-0.023902554064989
-0.0227854512631893
-0.0210304223001003
-0.0188125073909759
-0.0163152292370796
-0.0137135591357946
-0.0111560672521591
-0.0087536629289388
-0.0065802903845906
-0.0046758595854043
-0.0030442299321293
-0.0016526142135262
-0.0004391754046082
0.0006731892935931
0.0017640504520386
0.0029056333005428
0.0041539794765412
0.0055414820089936
0.0070732305757701
0.0087291868403553
0.0104701546952128
0.012246586382389
0.0140107236802577
0.0157225169241428
0.0173432789742946
0.0188280213624238
0.020120495930314
0.0211431011557579
0.0217861011624336
0.021909536793828
0.0213614106178283
0.0200062561780214
0.0177559573203325
0.0145961847156286
0.0106026232242584
0.0059405332431197
0.0008473061025142
-0.0043942448683083
-0.0094843301922082
-0.0141358794644474
-0.0181059129536151
-0.0212196484208107
-0.0233789831399917
-0.0245586093515157
-0.0247974582016468
-0.0241891629993915
-0.0228700973093509
-0.0210044085979461
-0.0187693629413843
-0.0163423065096139
-0.0138870812952518
-0.0115399397909641
-0.0093983765691518
-0.0075132721103727
-0.005883993115276
-0.0044640861451625
-0.0031815518159419
-0.0019607401918619
-0.0007342207245528
0.0005516910459846
0.0019332016818225
0.0034277809318155
0.0050346497446298
0.0067356480285525
0.0084973033517599
0.0102755520492792
0.0120224533602595
0.0136927245184779
0.0152487605810165
0.016664333641529
0.0179251413792371
0.0190179720520973
0.0199052058160305
0.0205005649477243
0.0206658020615577
0.020231869071722
0.0190356001257896
0.0169596076011657
0.0139655619859695
0.0101142395287752
0.0055664288811385
0.0005652369000017
-0.0045928820036351
-0.0095929112285375
-0.014136760495603
-0.0179713498800992
-0.0209060981869697
-0.0228265803307294
-0.023706117644906
-0.0236041769385337
-0.0226484313607215
-0.021012669429183
-0.018897395581007
-0.0165093280375003
-0.014039909467101
-0.0116485226899385
-0.0094526410102844
-0.0075237327255308
-0.0058875461108982
-0.0045283446088433
-0.0033963918685913
-0.0024159708991646
-0.0014939275570213
-0.0005340978968888
0.0005422607064247
0.0017804816598072
0.0031892834231257
0.0047483760863542
0.0064191767014563
0.0081528630107641
0.0098964776843786
0.0115986131131649
0.0132131138816475
0.0147008337080478
0.0160290580242872
0.017162824049592
0.0180466920137405
0.0185908004641532
0.0186745338141918
0.0181636549532413
0.0169341024011373
0.0149018662050366
0.0120517946779727
0.0084545239806175
0.0042675039730966
-0.0002801152877509
-0.0049152160063385
-0.0093528432771563
-0.0133261075243353
-0.0166101958602666
-0.0190396159887313
-0.0205198321491479
-0.0210321452468633
-0.0206301864236593
-0.0194285381585359
-0.0175880715250968
-0.0153034208342432
-0.0127885453402996
-0.0102540636435151
-0.0078809848055243
-0.0057999896816909
-0.0040800860151648
-0.0027261786162853
-0.0016865115612745
-0.0008703374769538
-0.0001700847642496
0.0005193516844883
0.0012867206241935
0.0021960479207336
0.0032857796177268
0.0045732427388429
0.0060550384223461
0.0077012181282043
0.0094538778066635
0.0112371752038598
0.0129718258976936
0.0145821012556552
0.0159907974302768
0.017106557264924
0.0178131144493818
0.0179713759571313
0.017438156530261
0.0160961244255304
0.0138846598565578
0.01082094758749
0.0070083937607705
0.0026341767515987
-0.0020488498266786
-0.006756033282727
-0.0112060774117708
-0.015147378668189
-0.0183767769485712
-0.0207509696483612
-0.0221910439431667
-0.0226834509521722
-0.0222779773175716
-0.0210807509720325
-0.0192422587424516
-0.0169424619525671
-0.0143741369247436
-0.011724280193448
-0.0091540133580565
-0.0067814183421432
-0.0046751415356993
-0.0028600520454347
-0.001325633842498
-3.1239818781614304e-05
0.0010875635780394
0.0021083566825836
0.0031092863064259
0.0041582621634006
0.0053063174709677
0.0065840585157275
0.0079995105043053
0.0095391683280467
0.0111729940399527
0.0128598939627408
0.0145530840381979
0.016206681728363
0.017774200066924
0.0191891491413116
0.0203405302017927
0.0210669189691543
0.0211767517030239
0.0204841811209917
0.0188464988023042
0.0161971524357795
0.0125698335468769
0.0081046530976891
0.0030341348610818
-0.0023445934057235
-0.0077049080282449
-0.0127266235649585
-0.0171264130622148
-0.0206803996115922
-0.0232414845377206
-0.0247496850788593
-0.0252279695123434
-0.0247662905603647
-0.0235041938722133
-0.0216149110347032
-0.0192882716655731
-0.0167123340070247
-0.0140573205426335
-0.0114643322303891
-0.0090381382033228
-0.0068422532640397
-0.0048968507908284
-0.0031827646307647
-0.0016503320075571
-0.0002284338697791
0.001163809094578
0.0025993434246629
0.0041273678652942
0.0057686516083776
0.0075201555155217
0.0093610733747482
0.0112570114433765
0.0131643284112215
0.0150348041206598
0.0168201010674238
0.0184776559472084
0.0199758522212505
0.0212943237274885
0.0224193260073661
0.0233331248164176
0.0239956397563219
0.0243245344609022
0.0241873934864997
0.0234175100922584
0.0218508634716272
0.0193699337542057
0.0159411132335662
0.011635442264378
0.0066254488192498
0.0011624582111835
-0.0044534117914736
-0.0099042737856507
-0.0148868570104241
-0.019144132733345
-0.0224892012774944
-0.0248145088553428
-0.0260868333280086
-0.0263381786644458
-0.0256606303155422
-0.0241995546966791
-0.0221382081508636
-0.0196771398186683
-0.0170137286186218
-0.0143247582018375
-0.0117538627237081
-0.0094029670581221
-0.0073266755789518
-0.0055309697054326
-0.0039791306480765
-0.0026055232156068
-0.0013323397142812
-8.110096678137779e-05
0.0012238901108503
0.0026500364765524
0.004241042304784
0.0060036005452275
0.0079084346070885
0.009900702163577
0.0119120506569743
0.013871937058866
0.015716528519988
0.0173945538699626
0.0188708528876304
0.0201275683939456
0.021160390228033
0.0219662878662347
0.0225232616066932
0.0227713175117969
0.0226077176630496
0.021898653358221
0.0205009169876575
0.0182932838797569
0.0152143035084009
0.0112915989011526
0.0066516371443867
0.001508398912847
-0.0038646105676889
-0.0091688660904765
-0.0141139728948473
-0.018446147441864
-0.0219682473689317
-0.0245504472404718
-0.0261343121528625
-0.0267307069152593
-0.0264105945825576
-0.025293368846178
-0.0235379114747047
-0.0213316660374403
-0.0188716780394315
-0.0163429398089647
-0.0139019275084137
-0.0116650341078639
-0.0097004426643252
-0.0080261267721652
-0.0066157774999737
-0.0054112877696752
-0.0043368847109377
-0.0033099241554737
-0.0022497966419905
-0.0010864888317883
0.000233834143728
0.0017429759027436
0.0034416080452501
0.0052954759448766
0.0072433399036526
0.0092115318402647
0.0111279068514704
0.0129312993958592
0.014575813896954
0.0160316545516252
0.0172837786376476
0.0183276776224374
0.0191594641655683
0.0197586175054311
0.0200688242912292
0.0199904181063175
0.0193929374217987
0.0181407183408737
0.0161212868988513
0.0132732670754194
0.0096099227666854
0.0052315192297101
0.0003227535635232
-0.0048647164367139
-0.0100417165085673
-0.014916643500328
-0.0192277058959007
-0.0227652974426746
-0.0253844447433948
-0.0270113497972488
-0.0276437029242515
-0.0273431167006492
-0.0262221954762935
-0.0244320034980773
-0.0221524946391582
-0.0195806547999382
-0.0169122908264398
-0.0143202263861894
-0.0119352266192436
-0.0098359091207385
-0.0080486629158258
-0.0065533532761037
-0.005291492678225
-0.0041776141151785
-0.0031142020598053
-0.0020070530008524
-0.0007782538887113
0.0006254951003938
0.0022304551675915
0.0040348591282963
0.0060060927644371
0.0080822138115763
0.010182999074459
0.0122254490852355
0.0141366431489586
0.0158622432500123
0.0173707231879234
0.0186520721763372
0.0197110045701265
0.0205535367131233
0.0211651846766471
0.0214898213744163
0.0214243605732917
0.0208347551524639
0.0195881202816963
0.0175867173820734
0.0147910835221409
0.0112346597015857
0.0070324568077921
0.0023759310133755
-0.0024877092801034
-0.0072843544185161
-0.0117436395958065
-0.0156258828938007
-0.0187413040548563
-0.020962655544281
-0.0222319029271602
-0.0225600004196167
-0.0220214892178773
-0.0207440815865993
-0.0188928879797458
-0.0166548453271389
-0.0142260938882827
-0.0117969950661063
-0.0095326658338308
-0.0075538293458521
-0.0059229852631688
-0.0046402025036513
-0.0036520878784358
-0.0028707783203572
-0.0021937254350632
-0.0015183887444436
-0.0007536539342254
0.0001691356301307
0.001288293977268
0.0026118238456547
0.0041247624903917
0.005794858559966
0.007572048343718
0.009390952065587
0.011180093511939
0.0128713864833116
0.0144066708162426
0.0157373063266277
0.0168133955448865
0.0175675116479396
0.0179038997739553
0.0177037697285413
0.0168466549366712
0.0152390226721763
0.0128423301503062
0.0096948314458131
0.0059227687306702
0.0017330312402918
-0.00261637638323
-0.0068545243702828
-0.0107291797176003
-0.0140273747965693
-0.0165856145322322
-0.0182953663170337
-0.0191089212894439
-0.0190434735268354
-0.0181789379566907
-0.0166493616998195
-0.0146300233900547
-0.0123190283775329
-0.0099138487130403
-0.0075874263420701
-0.0054684188216924
-0.0036323615349829
-0.0021067457273602
-0.0008802153170108
9.144097566604614e-05
0.0008775412570685
0.0015605823136866
0.0022241352126002
0.0029430945869535
0.0037762140855193
0.0047600213438272
0.0059056221507489
0.0072011537849903
0.0086175436154007
0.0101136565208435
0.0116423014551401
0.0131555721163749
0.0145986024290323
0.0158892441540956
0.0169007554650306
0.017464704811573
0.0173952132463455
0.0165245160460472
0.0147388372570276
0.0120068732649087
0.0083955004811286
0.0040691564790904
-0.0007267502369359
-0.0056936130858957
-0.0105128865689039
-0.0148806301876902
-0.0185369364917278
-0.0212840940803289
-0.022997673600912
-0.0236370917409658
-0.0232492610812187
-0.0219580475240945
-0.0199449751526117
-0.0174269750714302
-0.0146315321326255
-0.0117724677547812
-0.0090312510728836
-0.0065444894134998
-0.0043950444087386
-0.0026074633933603
-0.0011531114578247
3.541819751262665e-05
0.0010494454763829
0.0019919141195714
0.0029615741223096
0.0040346174500882
0.0052549233660101
0.0066363266669213
0.0081686284393072
0.009822410531342
0.0115554640069603
0.0133206341415643
0.0150700025260448
0.0167540349066257
0.018314279615879
0.0196677297353744
0.0206916742026805
0.0212228186428546
0.0210781395435333
0.0200925786048173
0.0181548371911048
0.0152299813926219
0.0113730244338512
0.0067333132028579
0.0015444770688191
-0.0038987775333225
-0.009272402152419
-0.0142593644559383
-0.0185832493007183
-0.0220312345772981
-0.0244657322764396
-0.0258277915418148
-0.0261332504451274
-0.0254623144865036
-0.0239445585757493
-0.0217419415712356
-0.0190356895327568
-0.0160187035799026
-0.0128856943920254
-0.0098167518153786
-0.006959137506783
-0.0044135898351669
-0.0022277357056736
-0.0003950763493776
0.0011403756216168
0.0024710362777113
0.0037066638469696
0.0049547585658729
0.0063031460158526
0.007808790076524
0.0094965565949678
0.0113645670935511
0.0133880143985152
0.0155187584459781
0.0176876317709684
0.0198120009154081
0.0218004360795021
0.0235491972416639
0.0249327421188354
0.025795754045248
0.0259588696062564
0.0252443253993988
0.023513339459896
0.0207023248076438
0.0168487150222063
0.0120986830443143
0.0066948472522199
0.0009508631192147
-0.0047839847393333
-0.010169394314289
-0.0149146895855665
-0.0188004113733768
-0.0216826200485229
-0.0234918296337127
-0.0242311675101518
-0.0239696744829416
-0.0228289421647787
-0.0209672804921865
-0.0185655504465103
-0.0158137027174234
-0.0128967380151152
-0.0099812289699912
-0.007202323526144
-0.0046514179557561
-0.0023701302707195
-0.0003561461344361
0.0014245267957448
0.003026972990483
0.0045178909786045
0.0059662731364369
0.0074350098147988
0.0089723952114582
0.0106052383780479
0.0123372245579957
0.0141524095088243
0.0160198621451854
0.0178980976343154
0.0197416581213474
0.0215088054537773
0.0231649577617645
0.0246749073266983
0.025981480255723
0.0269815661013126
0.0275168642401695
0.0273887738585472
0.0263949520885944
0.0243754032999277
0.021253352984786
0.0170600935816764
0.0119400219991803
0.0061388369649648
-2.1577579900622368e-05
-0.0061804936267435
-0.011981495656073
-0.0171085372567176
-0.0213085375726223
-0.0244064703583717
-0.0263176411390304
-0.0270510502159595
-0.0266998726874589
-0.0254236832261085
-0.0234264396131038
-0.0209340751171112
-0.0181747768074274
-0.0153599418699741
-0.0126649849116802
-0.0102150272578001
-0.0080799153074622
-0.0062759602442383
-0.0047710840590298
-0.0034938734024763
-0.0023460807278752
-0.0012205337407067
-2.3745407816022635e-05
0.0013072239235043
0.0027996546123176
0.0044489982537925
0.0062274090014398
0.0080918027088046
0.0099897487089037
0.0118661317974329
0.0136702852323651
0.0153597546741366
0.0168983992189168
0.0182463619858026
0.0193412732332944
0.0200816951692104
0.0203279927372932
0.0199204310774803
0.0187053419649601
0.0165661517530679
0.0134560195729136
0.0094236601144075
0.0046238340437412
-0.0006929477676749
-0.0062104202806949
-0.0115877874195575
-0.0165005810558795
-0.0206715762615203
-0.0238897651433944
-0.0260223597288131
-0.0270217545330524
-0.0269235596060752
-0.0258359611034393
-0.0239277891814708
-0.0214169006794691
-0.0185509417206048
-0.0155790895223617
-0.0127230174839496
-0.0101536121219396
-0.007976752705872
-0.0062307137995958
-0.0048934444785118
-0.003893190762028
-0.0031204023398458
-0.0024452616926282
-0.0017408214043825
-0.0009038050193339
0.0001354799605906
0.0014138664118945
0.0029363329522311
0.0046728756278753
0.0065608201548457
0.0085183186456561
0.0104602258652448
0.0123025942593812
0.0139507241547107
0.0152816846966743
0.0161385219544172
0.0163439083844423
0.0157300010323524
0.0141758564859628
0.0116402376443147
0.0081797447055578
0.0039516985416412
-0.0007962603121995
-0.0057536847889423
-0.0105900578200817
-0.0149973416700959
-0.0187188517302274
-0.0215635523200035
-0.0234112218022346
-0.0242139250040054
-0.023996016010642
-0.0228507053107023
-0.0209298748522996
-0.0184274688363075
-0.0155597627162933
-0.0125439781695604
-0.0095775555819273
-0.0068199019879102
-0.0043753208592534
-0.0022842730395495
-0.0005316117894835
0.0009361496195197
0.0021956283599138
0.0033334956970065
0.0044337483122944
0.0055682808160781
0.0067929225042462
0.0081451181322336
0.0096395295113325
0.0112645393237471
0.0129846865311265
0.0147490045055747
0.0165005978196859
0.0181834958493709
0.0197432320564985
0.0211144275963306
0.0221972726285457
0.0228426065295934
0.0228621456772089
0.0220611542463302
0.0202819090336561
0.0174440443515777
0.0135699901729822
0.0087924264371395
0.0033450215123593
-0.0024620555341243
-0.0082783149555325
-0.0137551240622997
-0.0185845028609037
-0.0225240532308816
-0.0254062358289957
-0.0271422229707241
-0.0277269463986158
-0.0272380299866199
-0.0258217714726924
-0.023669920861721
-0.0209963358938694
-0.018018614500761
-0.0149415107443928
-0.0119397463276982
-0.0091448621824383
-0.0066382195800542
-0.0044483845122158
-0.0025552026927471
-0.0009008523775264
0.0005976929678581
0.0020362553186714
0.0035064744297415
0.00507616950199
0.006778001319617
0.0086105745285749
0.0105454847216606
0.0125349014997482
0.0145200667902827
0.0164420921355485
0.0182527676224708
0.0199203304946422
0.0214257631450891
0.0227500610053539
0.0238569248467683
0.024675577878952
0.0250916555523872
0.0249552391469478
0.0241043604910373
0.0223949495702981
0.0197337139397859
0.0161090306937694
0.0116079095751047
0.0064132781699299
0.000786155462265
-0.0049626333639025
-0.0105085745453834
-0.0155505686998367
-0.019839771091938
-0.0231959354132413
-0.0255128517746925
-0.0267569106072187
-0.0269613116979599
-0.0262157768011093
-0.0246558114886283
-0.0224557984620332
-0.0198189131915569
-0.0169566851109266
-0.0140638323500752
-0.0112982643768191
-0.0087699396535754
-0.0065374779514968
-0.0046107936650514
-0.0029570015612989
-0.0015092073008418
-0.0001798730518203
0.0011226206552237
0.0024776111822575
0.0039413082413375
0.0055452538654208
0.0072974250651896
0.00917799025774
0.0111368158832192
0.0131030930206179
0.0150022627785801
0.0167687721550464
0.0183524154126644
0.0197221618145704
0.0208670999854803
0.0217919461429119
0.0225083213299512
0.0230245999991893
0.0233325138688087
0.0233889836817979
0.0231035370379686
0.0223451722413301
0.0209656544029712
0.0188270956277847
0.0158313680440187
0.0119506986811757
0.0072504682466387
0.0018950933590531
-0.003865236416459
-0.0097239213064312
-0.0153575027361512
-0.0204659197479486
-0.0248029269278049
-0.0281921476125717
-0.0305312350392341
-0.0317896716296672
-0.032003778964281
-0.0312679968774318
-0.0297244600951671
-0.0275549590587615
-0.0249695815145969
-0.0221846625208854
-0.0193962808698415
-0.0167602617293596
-0.014380395412445
-0.0123030599206686
-0.0105206919834017
-0.0089835152029991
-0.0076131653040647
-0.006315927952528
-0.0049981125630438
-0.0035821360070258
-0.0020164381712675
-0.0002758111804723
0.0016408880474045
0.0037088114768266
0.0058768792077898
0.0080763893201947
0.0102338949218392
0.012280648574233
0.0141581743955612
0.0158234070986509
0.0172536950558424
0.0184484235942363
0.0194240435957908
0.0202024634927511
0.0207939520478248
0.0211767889559268
0.0212832316756248
0.0210028458386659
0.0202006474137306
0.018740814179182
0.0165154840797185
0.0134771037846803
0.0096628200262784
0.0052024004980921
0.0003093006089329
-0.0047435821034014
-0.0096599273383617
-0.0141582312062382
-0.0180010180920362
-0.0210117064416408
-0.0230820029973983
-0.0241732206195592
-0.0243137534707784
-0.0235919971019029
-0.0221454538404941
-0.0201479662209749
-0.017793420702219
-0.0152766294777393
-0.0127755897119641
-0.010435570962727
-0.0083556100726127
-0.0065830443054437
-0.005117991939187
-0.0039219628088176
-0.002926577348262
-0.0020445485133677
-0.0011838594218716
-0.0002606181951705
0.0007927726837806
0.0020226584747433
0.003449821146205
0.0050645852461457
0.0068250400945544
0.0086640026420354
0.0105024240911006
0.0122627187520265
0.0138800190761685
0.0153097156435251
0.0165281556546688
0.0175286922603845
0.0183161087334156
0.01889618486166
0.0192584879696369
0.0193583760410547
0.0191095899790525
0.0183962490409612
0.0170987788587808
0.0151203703135252
0.0124109014868736
0.0089896004647016
0.0049579548649489
0.0004944442771375
-0.0041652549989521
-0.0087541937828063
-0.0130031239241361
-0.0166707597672939
-0.0195691287517547
-0.0215780735015869
-0.0226491596549749
-0.0228027049452066
-0.0221190843731164
-0.0207255966961383
-0.01878541149199
-0.016490563750267
-0.014049582183361
-0.0116636157035827
-0.0094982981681823
-0.0076622115448117
-0.0061977785080671
-0.0050855497829616
-0.0042586443014442
-0.0036216164007782
-0.0030675919260829
-0.0024916129186749
-0.0018030676292255
-0.0009366949088871
0.0001433035358786
0.0014466108987107
0.0029593764338642
0.0046413596719503
0.006425904110074
0.0082307085394859
0.0099744535982608
0.0115899108350276
0.0130297103896737
0.0142628336325287
0.0152600016444921
0.0159741435199975
0.0163286104798316
0.0162199810147285
0.0155332656577229
0.0141650196164846
0.0120517360046505
0.0091980416327714
0.0056913942098617
0.0016945431707426
-0.0025757194962352
-0.0068725859746336
-0.0109441317617893
-0.0145568409934639
-0.0175141785293817
-0.0196704156696796
-0.0209409650415182
-0.0213070027530193
-0.0208123289048671
-0.019556201994419
-0.0176847279071807
-0.0153764262795448
-0.0128196133300662
-0.0101893646642565
-0.0076342746615409
-0.0052723563276231
-0.0031872396357357
-0.0014229081571102
1.7833895981311798e-05
0.0011698608286678
0.0020984667353332
0.0028883502818644
0.0036311042495071
0.0044147372245788
0.0053137405775487
0.0063779084011912
0.0076248776167631
0.0090406388044357
0.0105868782848119
0.0122123267501592
0.0138615947216749
0.0154766691848635
0.0169972330331802
0.0183665845543146
0.0195403322577476
0.020489789545536
0.0211930200457572
0.0216148477047681
0.0216878317296504
0.0213072504848241
0.0203429460525512
0.0186645146459341
0.0161766409873962
0.0128540769219398
0.0087623596191406
0.0040599312633275
-0.0010195572394877
-0.0062021040357649
-0.011210236698389
-0.0157907903194427
-0.0197336301207542
-0.0228819418698549
-0.025136737152934
-0.0264581982046365
-0.0268627405166625
-0.0264168586581945
-0.0252301059663295
-0.0234460942447185
-0.0212300568819046
-0.0187546629458665
-0.0161845721304416
-0.0136582870036363
-0.0112744541838765
-0.0090920161455869
-0.0071369665674865
-0.0054047862067818
-0.003862633369863
-0.0024568177759647
-0.0011221868917346
0.0002089533954858
0.0015977649018168
0.0030904025770723
0.0047113760374486
0.0064606899395585
0.0083165066316723
0.0102408491075038
0.0121854748576879
0.0140991117805242
0.0159341637045145
0.0176488123834133
0.0192069951444864
0.0205783974379301
0.021734569221735
0.0226377807557582
0.0232253596186637
0.0233998037874698
0.0230335220694541
0.0219880864024162
0.0201434642076492
0.0174307338893413
0.0138591341674327
0.0095295552164316
0.0046326806768774
-0.0005672958213835
-0.0057659237645566
-0.0106634525582194
-0.0150028821080923
-0.0185903310775756
-0.0213013216853141
-0.0230769924819469
-0.0239147301763296
-0.0238610543310642
-0.0230084769427776
-0.021489905193448
-0.0194663759320974
-0.0171102918684482
-0.0145892687141895
-0.0120536386966705
-0.0096252728253602
-0.0073865447193384
-0.005376280285418
-0.0035963840782642
-0.0020220810547471
-0.0006102686747908
0.0006936760619282
0.001950139645487
0.0032190713100135
0.004552180878818
0.005984928458929
0.0075311185792088
0.009182097390294
0.0109096188098192
0.0126712070778012
0.0144189931452274
0.0161109026521444
0.0177179258316755
0.0192210990935564
0.0206010565161705
0.0218302141875028
0.0228689517825841
0.0236572660505771
0.0241015553474426
0.0240701530128717
0.0234088655561208
0.0219723414629697
0.0196589641273021
0.0164392068982124
0.0123714338988065
0.0076034842059016
0.0023615942336618
-0.0030716396868228
-0.008388428017497
-0.0132924430072307
-0.0175334624946117
-0.0209303312003612
-0.0233783591538667
-0.0248450841754674
-0.0253602936863899
-0.0250051915645599
-0.0239031687378883
-0.0222105160355567
-0.0201035644859075
-0.0177624374628067
-0.0153556168079376
-0.0130274733528494
-0.0108876470476388
-0.0090024191886186
-0.0073899002745747
-0.0060228337533771
-0.0048424778506159
-0.0037774490192532
-0.0027560982853174
-0.0017114919610321
-0.0005868454463779
0.000657700933516
0.0020426402334123
0.0035697189159691
0.0052214078605175
0.0069623813033103
0.0087459264323115
0.0105209900066256
0.0122367469593882
0.0138470642268657
0.0153137128800153
0.0165980160236358
0.0176366381347179
0.0183207765221595
0.0185010768473148
0.018014458939433
0.0167174823582172
0.014520495198667
0.0114169409498572
0.0074970014393329
0.0029419199563562
-0.001995151862502
-0.0070161181502044
-0.0118106016889214
-0.0160897634923458
