bvp
0.0136291021481156
0.0162311382591724
0.0187262631952762
0.0210376903414726
0.0230970866978168
0.0248425882309675
0.0262002944946289
0.0270514078438282
0.027203606441617
0.0263927336782217
0.0243237316608428
0.0207366868853569
0.0154784303158521
0.008559513837099
0.0001785438507795
-0.0092906169593334
-0.0193418301641941
-0.0293998830020427
-0.0388906002044677
-0.0473036430776119
-0.0542385764420032
-0.0594287663698196
-0.0627424195408821
-0.0641707256436348
-0.0638149082660675
-0.0618713274598121
-0.0586094260215759
-0.0543451905250549
-0.0494142062962055
-0.0441447421908378
-0.0388313978910446
-0.0337114967405796
-0.028948500752449
-0.0246263295412063
-0.0207543056458234
-0.0172801446169614
-0.0141066638752818
-0.0111086284741759
-0.0081504536792635
-0.0051073641516268
-0.0018880097195506
0.0015504155308008
0.0052006961777806
0.0090145282447338
0.0129149528220295
0.0168080925941467
0.0205940641462802
0.0241777226328849
0.0274791307747364
0.0304417461156845
0.0330345258116722
0.0352469496428966
0.0370802655816078
0.0385370329022407
0.0396020300686359
0.0402081906795501
0.0402030050754547
0.0393440127372741
0.0373367443680763
0.0339037589728832
0.028859943151474
0.0221719946712255
0.0139891803264617
0.0046394206583499
-0.0054069105535745
-0.015596218407154
-0.0253606270998716
-0.0341813713312149
-0.0416363254189491
-0.0474266856908798
-0.0513828508555889
-0.0534601248800754
-0.053733579814434
-0.0523873977363109
-0.049693327397108
-0.0459799021482467
-0.0415965914726257
-0.0368796661496162
-0.0321248993277549
-0.0275668986141681
-0.02336435765028
-0.0195941030979156
-0.0162567347288131
-0.0132915563881397
-0.0105954874306917
-0.0080420020967721
-0.0054988269694149
-0.002846699906513
3.816094249486923e-07
0.003081154776737
0.0063859205693006
0.0098658083006739
0.0134457806125283
0.0170360188931226
0.0205424763262271
0.0238789226859807
0.026975966989994
0.0297786071896553
0.0322257094085216
0.03421600908041
0.0355807356536388
0.0360845625400543
0.0354611352086067
0.0334685370326042
0.0299450624734163
0.0248566456139087
0.0183289535343647
0.0106522981077432
0.002254270017147
-0.0063518043607473
-0.0146284429356455
-0.022072359919548
-0.0282617080956697
-0.0328891724348068
-0.035778921097517
-0.0368883088231086
-0.0362992919981479
-0.0342007540166378
-0.0308614447712898
-0.0266014020889997
-0.0217671245336532
-0.0167040713131427
-0.011724105104804
-0.007076870650053
-0.0029320414178073
0.000628035981208
0.003606011159718
0.0060773147270083
0.0081690922379493
0.0100333970040082
0.0118216220289468
0.013664873316884
0.0156586784869432
0.0178549867123365
0.020266368985176
0.0228736028075218
0.0256268829107284
0.0284471753984689
0.0312338899821043
0.0338708311319351
0.0362199395895004
0.0381039604544639
0.0392927676439285
0.0395113751292228
0.0384766869246959
0.0359541475772857
0.0318164750933647
0.0260876659303903
0.0189625341445207
0.0107984356582164
0.0020791790448129
-0.0066450461745262
-0.0148298740386962
-0.0220003705471754
-0.0277908612042665
-0.0319630093872547
-0.0344098322093486
-0.0351486168801784
-0.0343056432902812
-0.0320961438119411
-0.0288003366440534
-0.0247371066361665
-0.0202366821467876
-0.015612450428307
-0.011135596781969
-0.0070159579627215
-0.0033877613022923
-0.000304015004076
0.0022537820041179
0.0043564559891819
0.0061091645620763
0.0076359035447239
0.0090638706460595
0.0105082280933856
0.012060085311532
0.0137798264622688
0.0156949125230312
0.0177993401885032
0.0200540609657764
0.0223913192749023
0.0247245710343122
0.0269580967724323
0.0289842449128627
0.0306619256734848
0.031790018081665
0.0321029722690582
0.0313025750219821
0.029116753488779
0.0253650918602943
0.0200113281607627
0.0131911551579833
0.0052116941660642
-0.0034781089052557
-0.0123427733778953
-0.0208276771008968
-0.0284210219979286
-0.0347015783190727
-0.0393694043159484
-0.0422577783465385
-0.0433325208723545
-0.0426877029240131
-0.0405346006155014
-0.0371753722429275
-0.0329637303948402
-0.0282647125422954
-0.0234220158308744
-0.0187322702258825
-0.0144250905141234
-0.0106502911075949
-0.0074730664491653
-0.0048778299242258
-0.0027803964912891
-0.0010475642047822
0.0004784632474184
0.001956446096301
0.0035253155510872
0.0052849422208964
0.0072826528921723
0.0095127644017338
0.0119279036298394
0.0144530143588781
0.016998179256916
0.0194717198610305
0.0217911079525947
0.02388771250844
0.0257029365748167
0.0271722637116909
0.0281984712928533
0.028628209605813
0.0282524544745683
0.026838069781661
0.0241775996983051
0.0201416164636611
0.0147247249260544
0.0080734984949231
0.0004857070744037
-0.0076188137754797
-0.0157479625195264
-0.0233972184360027
-0.0301074124872684
-0.0355101749300956
-0.0393551513552665
-0.0415200442075729
-0.0420081913471221
-0.040936816483736
-0.0385180115699768
-0.0350342988967895
-0.0308136250823736
-0.0262060146778821
-0.0215548872947692
-0.0171609967947006
-0.0132496068254113
-0.0099512608721852
-0.007298067677766
-0.0052327122539281
-0.0036275943275541
-0.0023116206284612
-0.0011005734559148
0.0001738967839628
0.001642360119149
0.0033873682841658
0.0054439636878669
0.0078061744570732
0.0104333367198705
0.013252692297101
0.0161634255200624
0.0190442465245723
0.0217535644769668
0.0241162236779928
0.0259104762226343
0.0268736034631729
0.0267312582582235
0.0252460855990648
0.0222752764821052
0.0178185515105724
0.0120405321940779
0.0052622980438172
-0.0020740407053381
-0.0094578079879283
-0.0163704026490449
-0.0223465021699666
-0.027022548019886
-0.0301617626100778
-0.0316585712134838
-0.0315312705934047
-0.0299081839621067
-0.0270100925117731
-0.0231284461915493
-0.0185968056321144
-0.0137584330514073
-0.0089352112263441
-0.0043992763385176
-0.0003499379381537
0.0031002340838313
0.0059280795976519
0.0081885205581784
0.009991112165153
0.0114740300923585
0.0127834621816873
0.0140588590875267
0.0154191190376877
0.0169482193887233
0.0186862889677286
0.020630445331335
0.022743497043848
0.0249660983681678
0.0272257607430219
0.0294345896691083
0.0314714834094047
0.0331578254699707
0.0342477969825267
0.0344459451735019
0.0334484279155731
0.0309997946023941
0.0269540809094905
0.0213221423327922
0.0142908468842506
0.006212577689439
-0.0024318995419889
-0.0110923843458294
-0.019217163324356
-0.0263149663805961
-0.0320008471608161
-0.036020427942276
-0.0382553003728389
-0.0387170985341072
-0.0375326238572597
-0.0349236354231834
-0.0311860460788011
-0.026664063334465
-0.0217169746756553
-0.0166846141219139
-0.0118571352213621
-0.0074531510472297
-0.0036073243245482
-0.0003668507561087
0.0023009711876511
0.0044917808845639
0.0063441353850066
0.0080172568559646
0.0096653504297137
0.0114161018282175
0.0133595829829573
0.0155403353273868
0.0179507471621036
0.0205364264547824
0.0232134163379669
0.0258858315646648
0.0284585040062665
0.0308426618576049
0.0329500138759613
0.0346734672784805
0.0358613096177578
0.0363018773496151
0.0357360914349556
0.0339001230895519
0.0305859614163637
0.0257017537951469
0.0193134397268295
0.0116542726755142
0.0031001474708318
-0.0058774445205926
-0.0147654470056295
-0.023062914609909
-0.0303297042846679
-0.0362221077084541
-0.0405106395483017
-0.0430838875472545
-0.0439459830522537
-0.043208785355091
-0.0410744212567806
-0.0378107838332653
-0.0337264165282249
-0.0291429385542869
-0.0243635401129722
-0.0196468736976385
-0.0151946619153022
-0.0111480429768562
-0.0075840642675757
-0.0045130853541195
-0.0018836660310626
0.0004032519645988
0.0024758200161159
0.0044713485985994
0.0065141096711158
0.0086960643529891
0.0110681597143411
0.0136407241225242
0.0163869075477123
0.0192485433071851
0.0221471320837736
0.0249959658831357
0.0277069397270679
0.0301947686821222
0.0323812887072563
0.0341903828084468
0.0355254709720611
0.0362423658370971
0.0361408069729805
0.0349841490387916
0.0325429961085319
0.0286528244614601
0.0232677347958087
0.0164929125458002
0.0085885860025882
-5.1890499889850616e-05
-0.0089429561048746
-0.0175630189478397
-0.0254188496619462
-0.0321012400090694
-0.0373173952102661
-0.0408996976912021
-0.0428001508116722
-0.0430780313909053
-0.0418833009898662
-0.0394373312592506
-0.0360125936567783
-0.0319106206297874
-0.0274355057626962
-0.0228657983243465
-0.018433092162013
-0.0143090914934873
-0.0105975363403558
-0.0073330244049429
-0.0044907666742801
-0.0020030601881444
0.0002243358176201
0.0022981762886047
0.0043249377049505
0.0063974442891776
0.0085827745497226
0.0109149366617202
0.0133933294564485
0.0159868281334638
0.0186415892094373
0.0212898552417755
0.0238582734018564
0.0262758955359458
0.0284830629825592
0.0304373502731323
0.0321100428700447
0.0334738790988922
0.0344853028655052
0.035063162446022
0.0350713096559047
0.0343177840113639
0.0325793847441673
0.0296484865248203
0.0253882482647895
0.0197800621390342
0.0129510620608925
0.0051747439429163
-0.0031566061079502
-0.0115796066820621
-0.019613342359662
-0.0268107801675796
-0.0328050032258033
-0.0373422354459762
-0.040294412523508
-0.0416540578007698
-0.0415191017091274
-0.0400726497173309
-0.0375607386231422
-0.0342701897025108
-0.0305056553333997
-0.0265642888844013
-0.0227100849151611
-0.0191510543227195
-0.0160215385258197
-0.0133729223161935
-0.0111763020977377
-0.0093398056924343
-0.0077366339974105
-0.0062322849407792
-0.0047041694633662
-0.0030546337366104
-0.0012189567787572
0.0008321179775521
0.0030951872467994
0.0055395672097802
0.0081129949539899
0.0107479412108659
0.013368958607316
0.0159010235220193
0.0182774253189563
0.0204430632293224
0.0223470292985439
0.0239194631576538
0.02504145167768
0.0255307666957378
0.0251583904027938
0.0236936211585998
0.0209612473845481
0.0168909654021263
0.0115503873676061
0.0051562460139393
-0.0019429749809205
-0.0093102529644966
-0.016476996243
-0.0229989271610975
-0.028499498963356
-0.0326961390674114
-0.035411063581705
-0.0365750342607498
-0.0362293645739555
-0.034520611166954
-0.0316823199391365
-0.0280076581984758
-0.0238183122128248
-0.0194314215332269
-0.0151281272992491
-0.0111290831118822
-0.0075798276811838
-0.0045462269335985
-0.0020192172378301
7.172441110014915e-05
0.0018392319325357
0.003419121960178
0.0049539091996848
0.0065731252543628
0.0083708735182881
0.0103926938027143
0.012637173756957
0.0150647172704339
0.0176072176545858
0.0201790165156126
0.0226898305118083
0.025056192651391
0.0272079687565565
0.0290924124419689
0.0306788589805364
0.0319594070315361
0.0329390056431293
0.0336163789033889
0.033959399908781
0.0338779725134372
0.0332091227173805
0.0317323356866836
0.0292155668139457
0.0254759527742862
0.0204357355833053
0.0141580244526267
0.0068543180823326
-0.0011359443888068
-0.009386015124619
-0.0174329858273267
-0.0248324684798717
-0.0312079712748527
-0.0362830758094787
-0.0398914478719234
-0.0419709533452987
-0.0425538644194603
-0.0417594164609909
-0.0397821962833404
-0.0368713065981864
-0.0333052799105644
-0.0293666422367095
-0.0253165587782859
-0.0213726479560136
-0.0176939405500888
-0.0143737234175205
-0.0114396102726459
-0.0088614933192729
-0.0065671154297888
-0.0044594751670956
-0.0024299477227032
-0.0003695506602525
0.0018140424508601
0.0041763912886381
0.0067281485535204
0.009442456997931
0.0122652240097522
0.0151239093393087
0.017938744276762
0.0206330623477697
0.0231392867863178
0.0254032239317893
0.0273874681442976
0.0290729124099016
0.0304585136473178
0.031558446586132
0.0323980338871479
0.0330101028084754
0.0334235206246376
0.0336362272500991
0.0335840284824371
0.0331247635185718
0.0320469178259372
0.0301031358540058
0.0270635075867176
0.0227740183472633
0.0172029584646224
0.0104639148339629
0.0028107408434152
-0.005392322782427
-0.0137156601995229
-0.0217132195830345
-0.0289675928652286
-0.0351273976266384
-0.0399367846548557
-0.0432553701102733
-0.0450608991086483
-0.0454331971704959
-0.0445300824940204
-0.0425640419125556
-0.0397796556353569
-0.0364304296672344
-0.0327572599053382
-0.0289722867310047
-0.0252495314925909
-0.0217186845839023
-0.0184590816497802
-0.015497806482017
-0.0128140496090054
-0.0103473486378788
-0.0080114649608731
-0.005713970400393
-0.0033746815752238
-0.0009381251875311
0.0016213641501963
0.0043016034178435
0.0070776948705315
0.0099077736958861
0.0127395531162619
0.0155154541134834
0.0181759763509035
0.0206651799380779
0.0229372382164001
0.0249596461653709
0.0267143994569778
0.0281996298581361
0.0294283237308263
0.0304206646978855
0.0311921313405036
0.0317397490143775
0.0320246592164039
0.0319526717066764
0.0313661433756351
0.0300605371594429
0.0278234351426363
0.024484746158123
0.0199643820524215
0.0143034737557172
0.0076731545850634
0.0003612749278545
-0.0072592268697917
-0.0147714344784617
-0.0217607282102108
-0.0278643257915973
-0.0328101627528667
-0.0364321917295455
-0.0386669859290123
-0.0395426228642463
-0.0391650311648845
-0.0377020761370658
-0.0353641286492347
-0.0323820151388645
-0.0289869569242
-0.0253961570560932
-0.0218020901083946
-0.0183613505214452
-0.0151819735765457
-0.0123144052922725
-0.0097555704414844
-0.0074650542810559
-0.0053802961483597
-0.0034260614775121
-0.0015235915780067
0.0003992421552538
0.0023992084898054
0.0045124315656721
0.0067531205713748
0.0091136824339628
0.0115660186856985
0.0140663515776395
0.0165599193423986
0.0189832616597414
0.0212710127234458
0.0233687777072191
0.0252406895160675
0.0268657058477401
0.0282309707254171
0.0293291471898555
0.0301588084548711
0.0307214893400669
0.0310075040906667
0.0309726763516664
0.0305188652127981
0.0294918343424797
0.0277036167681217
0.0249751191586256
0.0211849492043256
0.0163094084709882
0.010445088148117
0.0038103964179754
-0.0032770694233477
-0.0104427225887775
-0.0173031017184257
-0.0235078539699316
-0.028768865391612
-0.0328766293823719
-0.0357087329030036
-0.0372328087687492
-0.0375026315450668
-0.0366465747356414
-0.0348502770066261
-0.0323352105915546
-0.0293356776237487
-0.0260779373347759
-0.0227627828717231
-0.0195516273379325
-0.0165585875511169
-0.0138513296842575
-0.0114555731415748
-0.0093567548319697
-0.0075036939233541
-0.0058190883137285
-0.0042132968083024
-0.0025981934741139
-0.0008991598151624
0.0009368970058858
0.0029371981509029
0.0051014483906328
0.0074036987498402
0.0097990538924932
0.0122338272631168
0.0146547108888626
0.017011497169733
0.0192530564963817
0.0213252156972885
0.0231762249022722
0.0247654393315315
0.0260688550770282
0.0270791929215192
0.0278021208941936
0.02824642136693
0.0284029580652713
0.0282190442085266
0.0275846682488918
0.0263401083648204
0.0243039280176162
0.0213179588317871
0.0173001494258642
0.0122819570824503
0.0064133279956877
-5.571963265538216e-05
-0.0068032154813408
-0.0134700797498226
-0.0196988116949796
-0.02516945078969
-0.0296265035867691
-0.0328953862190246
-0.0348913595080375
-0.0356207713484764
-0.035172376781702
-0.0337007418274879
-0.0314067155122756
-0.0285177789628505
-0.0252684894949197
-0.0218829158693552
-0.0185609776526689
-0.0154664302244782
-0.0127137880772352
-0.0103570437058806
-0.0083873439580202
-0.006742525845766
-0.0053241127170622
-0.0040165982209146
-0.0027055824175477
-0.0012920657172799
0.0002973228693008
0.0021029161289334
0.0041289012879133
0.0063488357700407
0.0087174773216247
0.011177516542375
0.0136580988764762
0.0160757601261138
0.0183446761220693
0.0203908123075962
0.0221612881869077
0.0236268974840641
0.024780660867691
0.0256332494318485
0.0262013673782348
0.0264849103987216
0.0264389999210834
0.0259580761194229
0.0248854421079158
0.0230491627007722
0.020313000306487
0.0166196878999471
0.0120109291747212
0.0066295871511101
0.0007120689842849
-0.0054325042292475
-0.0114584388211369
-0.0170252528041601
-0.0218319948762655
-0.0256403628736734
-0.0282906498759984
-0.0297108590602874
-0.0299159437417984
-0.0289997365325689
-0.0271252263337373
-0.0245111715048551
-0.0214097127318382
-0.0180806722491979
-0.014770895242691
-0.0116957519203424
-0.0090191727504134
-0.0068370644003152
-0.0051694032736122
-0.0039628781378269
-0.0031051519326865
-0.0024484088644385
-0.0018361285328865
-0.0011276975274085
-0.0002160253934562
0.0009645633399486
0.0024381685070693
0.004192728549242
0.006188690662384
0.0083647398278117
0.0106403613463044
0.0129219572991132
0.0151130417361855
0.017123395577073
0.0188694223761558
0.0202602669596672
0.0211786739528179
0.0214740261435508
0.0209761224687099
0.0195274502038955
0.0170247703790664
0.013454663567245
0.008911388926208
0.003597721690312
-0.0021875035017728
-0.0080799311399459
-0.0136983469128608
-0.0186937898397445
-0.0227830745279788
-0.0257660262286663
-0.0275315772742033
-0.0280572585761547
-0.0274049006402492
-0.0257116332650184
-0.0231740642338991
-0.020027533173561
-0.0165237821638584
-0.0129083208739757
-0.009398634545505
-0.0061638290062546
-0.0033086435869336
-0.0008705062791705
0.0011681104078888
0.0028632013127207
0.0042972806841135
0.0055689448490738
0.0067799417302012
0.0080218324437737
0.0093658519908785
0.0108573334291577
0.0125138508155941
0.0143257901072502
0.0162603184580802
0.0182682704180479
0.0202904865145683
0.022264938801527
0.0241353567689657
0.0258505139499902
0.0273455400019884
0.0285151563584804
0.0291976295411586
0.0291812717914581
0.028235238045454
0.0261576361954212
0.0228260718286037
0.018234621733427
0.0125096719712018
0.0059038195759058
-0.0012305710697546
-0.0084823435172438
-0.0154284331947565
-0.021677041426301
-0.0269003454595804
-0.030859924852848
-0.033426184207201
-0.0345822758972644
-0.0344105958938598
-0.0330711603164672
-0.0307775735855102
-0.0277736131101846
-0.0243127904832363
-0.020639169961214
-0.016967911273241
-0.0134692806750535
-0.0102613056078553
-0.0074087101966142
-0.00492291059345
-0.0027648266404867
-0.0008534491062164
0.0009181601926684
0.0026590973138809
0.0044582728296518
0.0063741421326994
0.0084347054362297
0.0106409844011068
0.0129715939983725
0.0153870675712823
0.0178337842226028
0.0202494636178016
0.0225703492760658
0.024737924337387
0.0267008952796459
0.0284064151346683
0.0297809056937694
0.0307107158005237
0.0310321226716041
0.0305383708328008
0.0290112718939781
0.0262721143662929
0.0222346782684326
0.0169436410069465
0.0105868019163608
0.0034795471001416
-0.0039725117385387
-0.0113255092874169
-0.0181519221514463
-0.0240846015512943
-0.0288452990353107
-0.0322581976652145
-0.0342498458921909
-0.0348397456109523
-0.0341293327510356
-0.0322923399507999
-0.029561223462224
-0.0262048579752445
-0.0224986635148525
-0.0186951868236064
-0.0150035908445715
-0.0115784257650375
-0.0085146781057119
-0.0058474335819482
-0.0035557998344302
-0.0015719793736934
0.0002037230879068
0.0018835235387086
0.0035757198929786
0.0053753964602947
0.0073547968640923
0.0095501178875565
0.0119539070874452
0.0145180728286504
0.0171643905341625
0.019800491631031
0.0223375260829925
0.0247020721435546
0.0268402285873889
0.0287177637219429
0.0303168315440416
0.0316243954002857
0.0326095893979072
0.0331970416009426
0.0332512743771076
0.0325844213366508
0.0309869740158319
0.0282713826745748
0.0243189744651317
0.0191200785338878
0.0127951567992568
0.0055924793705344
-0.002134645357728
-0.0099672470241785
-0.0174694862216711
-0.0242365486919879
-0.0299332775175571
-0.0343184284865856
-0.0372547768056392
-0.0387105122208595
-0.0387520901858806
-0.037526249885559
-0.0352405942976474
-0.0321496911346912
-0.0285373888909816
-0.0246900971978902
-0.0208679065108299
-0.0172794200479984
-0.0140640651807188
-0.0112850703299045
-0.0089332293719053
-0.0069402116350829
-0.0051984190940856
-0.0035819637123495
-0.0019658536184579
-0.0002432579640299
0.0016628646990284
0.0037965157534927
0.0061672842130064
0.0087467683479189
0.0114705003798007
0.0142493862658739
0.0169840306043624
0.019577519968152
0.0219468679279088
0.0240312237292528
0.0257943365722894
0.0272229388356208
0.0283237677067518
0.029116254299879
0.0296146925538778
0.0298001784831285
0.0295949131250381
0.0288554802536964
0.027389820665121
0.024992685765028
0.021494373679161
0.0168119631707668
0.0109872287139296
0.00420059915632
-0.0032423166558146
-0.0109472330659627
-0.0184809602797031
-0.0254240520298481
-0.031415220350027
-0.0361801534891128
-0.0395455323159694
-0.0414427109062671
-0.0419021397829055
-0.0410390868782997
-0.0390380918979644
-0.0361401923000812
-0.0326249375939369
-0.0287826545536518
-0.0248837023973464
-0.0211526155471801
-0.0177504103630781
-0.0147648686543107
-0.012209877371788
-0.0100361974909901
-0.0081498650833964
-0.0064316783100366
-0.0047560082748532
-0.0030076510738581
-0.0010936929611489
0.0010498218471184
0.0034514889121055
0.0060962159186601
0.0089235063642263
0.0118394447490572
0.0147364726290106
0.0175111107528209
0.0200756043195724
0.0223642084747552
0.0243353359401226
0.0259709097445011
0.0272746328264474
0.0282692313194274
0.0289910826832056
0.029478320851922
0.0297479312866926
0.0297664050012826
0.0294282510876655
0.0285551138222217
0.0269225053489208
0.0243122670799493
0.0205736830830574
0.0156702063977718
0.0097006065770983
0.0028955386951565
-0.0044074403122067
-0.0118063567206263
-0.0188854876905679
-0.0252621360123157
-0.0306219775229692
-0.0347409471869468
-0.0374931022524833
-0.0388471558690071
-0.0388600081205368
-0.0376706905663013
-0.0354877822101116
-0.0325671806931495
-0.0291853751987218
-0.0256111603230237
-0.0220783986151218
-0.0187657233327627
-0.015786163508892
-0.0131861679255962
-0.0109516698867082
-0.0090184556320309
-0.0072866827249526
-0.0056394464336335
-0.0039615905843675
-0.0021543628536164
-0.0001470639253966
0.0020928501617163
0.0045554656535387
0.0071925641968846
0.0099285142496228
0.0126741733402013
0.0153392208740115
0.0178423151373863
0.0201200041919946
0.0221311151981353
0.0238548554480075
0.0252864696085453
0.0264337621629238
0.0273149423301219
0.0279587861150503
0.0284048002213239
0.0286948475986719
0.0288538597524166
0.0288679171353578
0.0286654531955719
0.0281069837510585
0.0269958898425102
0.0251147840172052
0.0222754199057817
0.0183655247092247
0.0133817242458462
0.0074444478377699
0.0007932661101222
-0.0062380610033869
-0.0132619505748152
-0.0198829025030136
-0.0257404521107673
-0.0305451862514019
-0.0341046601533889
-0.0363341309130191
-0.0372513681650161
-0.0369613394141197
-0.0356372185051441
-0.033500462770462
-0.0307995770126581
-0.0277874786406755
-0.0246990863233804
-0.0217315014451742
-0.019029201939702
-0.0166758503764867
-0.0146919339895248
-0.0130369290709495
-0.0116184456273913
-0.0103131309151649
-0.0089954864233732
-0.0075613488443195
-0.0059404028579592
-0.0041008843109011
-0.0020473068580031
0.000187380996067
0.0025514415465295
0.0049834158271551
0.0074192523024976
0.0097975973039865
0.0120640005916357
0.0141731174662709
0.0160892363637685
0.0177879612892866
0.0192553363740444
0.0204723440110683
0.0213853251188993
0.0218849573284387
0.0218115709722042
0.020982963964343
0.0192343965172767
0.0164624024182558
0.0126619115471839
0.0079457405954599
0.0025399774312973
-0.0032422798685729
-0.0090394467115402
-0.0144844381138682
-0.0192448310554027
-0.023051381111145
-0.0257131606340408
-0.0271270163357257
-0.0272865127772092
-0.0262834504246711
-0.0242933481931686
-0.0215490497648715
-0.01831348054111
-0.0148550625890493
-0.0114224106073379
-0.0082199908792972
-0.0053910696879029
-0.0030098776333034
-0.0010818042792379
0.0004481840878725
0.0016806167550384
0.0027446285821497
0.003780212951824
0.0049166032113134
0.0062493942677974
0.0078272111713886
0.0096518583595752
0.0116839567199349
0.0138507075607776
0.0160597674548625
0.0182169210165739
0.0202405601739883
0.0220708139240741
0.0236729346215724
0.0250304006040096
0.0261243805289268
0.0269058682024478
0.0272760316729545
0.0270874090492725
0.0261641144752502
0.024333281442523
0.0214647091925144
0.0175124015659093
0.0125444727018475
0.0067503666505217
0.0004238353576511
-0.006072818301618
-0.0123538151383399
-0.0180535316467285
-0.0228627473115921
-0.0265544317662715
-0.0289958249777555
-0.0301488637924194
-0.0300624258816242
-0.0288579035550355
-0.0267142653465271
-0.023856021463871
-0.0205377023667097
-0.0170208942145109
-0.0135470787063241
-0.0103114256635308
-0.0074438066221773
-0.0050018108449876
-0.0029757227748632
-0.0013016685843467
0.0001209387555718
0.0014106328599154
0.002686514519155
0.0040530464611947
0.0055880844593048
0.0073365522548556
0.0093081966042518
0.0114765055477619
0.0137813370674848
0.0161390788853168
0.0184583477675914
0.0206547603011131
0.0226606503129005
0.0244295969605445
0.0259353164583444
0.0271622091531753
0.028084997087717
0.0286415610462427
0.0287144239991903
0.0281361378729343
0.0267198123037815
0.0243038907647132
0.020794479176402
0.0161930099129676
0.0106086879968643
0.0042565334588289
-0.0025607987772673
-0.0094852400943636
-0.0161430016160011
-0.0221837442368268
-0.0273123905062675
-0.031310562044382
-0.0340478457510471
-0.0354835353791713
-0.0356608927249908
-0.0346964858472347
-0.0327643081545829
-0.0300751831382513
-0.0268578007817268
-0.0233449954539537
-0.0197593979537487
-0.0162943229079246
-0.0130946487188339
-0.0102450419217348
-0.0077689019963145
-0.0056359744630753
-0.0037741120904684
-0.0020830789580941
-0.0004514008760452
0.0012245839461684
0.0030243378132581
0.0049936342984437
0.0071431938558816
0.0094548622146248
0.0118893757462501
0.0143894888460636
0.0168826803565025
0.0192894618958234
0.0215353015810251
0.0235603228211402
0.0253232605755329
0.0268019679933786
0.0279928967356681
0.0289061143994331
0.029551513493061
0.0299154315143823
0.0299337729811668
0.0294780153781175
0.0283682532608509
0.0264112893491983
0.0234484020620584
0.0193961225450038
0.0142731796950101
0.0082126595079898
0.0014565144665539
-0.0056675267405807
-0.0127822868525981
-0.0195048786699771
-0.0254893340170383
-0.0304591134190559
-0.0342251360416412
-0.0366909503936767
-0.0378493331372737
-0.0377734899520874
-0.0366032756865024
-0.0345256924629211
-0.0317555852234363
-0.0285230036824941
-0.0250606518238782
-0.0215846728533506
-0.0182730294764041
-0.0152482651174068
-0.0125696510076522
-0.0102360844612121
-0.0081964898854494
-0.006364572327584
-0.0046362290158867
-0.0029070796445012
-0.0010866979137063
0.0008920137770473
0.0030675712041556
0.0054481420665979
0.0080112628638744
0.0107042314484715
0.0134493466466665
0.0161554664373397
0.018731128424406
0.0210946053266525
0.0231807492673397
0.0249465219676494
0.0263753905892372
0.027479289099574
0.0282945185899734
0.0288678351789712
0.0292334277182817
0.0293852090835571
0.0292546972632408
0.0287078376859426
0.0275619849562644
0.0256156139075756
0.0226904116570949
0.0186825133860111
0.0136038195341825
0.0075952773913741
0.0009125871583819
-0.0061048520728945
-0.0130734089761972
-0.0196086391806602
-0.0253671314567327
-0.0300782062113285
-0.0335607975721359
-0.0357284918427467
-0.0365862473845481
-0.0362211056053638
-0.0347907952964305
-0.0325108133256435
-0.0296348370611667
-0.0264270734041929
-0.0231344252824783
-0.0199650451540946
-0.017072107642889
-0.0145428255200386
-0.0123970415443182
-0.0105955507606267
-0.0090541280806064
-0.0076613863930106
-0.0062979832291603
-0.0048528467305004
-0.0032344977371394
-0.0013782544992864
0.0007462445646524
0.0031257923692464
0.0057013966143131
0.0083799045532941
0.011055190116167
0.0136288423091173
0.0160220544785261
0.0181790217757225
0.0200667474418878
0.0216705650091171
0.0229802895337343
0.0239676013588905
0.0245636701583862
0.0246481169015169
0.0240597669035196
0.0226309578865766
0.0202299766242504
0.016795402392745
0.012360580265522
0.007067596539855
0.0011627250351011
-0.0050290273502469
-0.0111416224390268
-0.016809232532978
-0.0217050220817327
-0.0255701020359992
-0.0282292962074279
-0.0295980535447597
-0.0296845231205225
-0.0285852868109941
-0.0264714676886796
-0.023565812036395
-0.0201198235154151
-0.0163969565182924
-0.0126536525785923
-0.0091133629903197
-0.0059422915801405
-0.0032348600216209
-0.0010099872015416
0.0007811733521521
0.0022368463687598
0.0034820628352463
0.0046473704278469
0.0058503877371549
0.0071828500367701
0.0087051279842853
0.0104474313557147
0.0124137662351131
0.0145814232528209
0.0168960243463516
0.0192725919187068
0.0216081701219081
0.0238009579479694
0.0257665365934371
0.0274445749819278
0.0287978090345859
0.0298046097159385
0.0304405838251113
0.0306523647159338
0.0303381197154521
0.0293483454734087
0.0275093633681535
0.0246630832552909
0.0207139179110527
0.0156674515455961
0.0096473079174757
0.002890114672482
-0.0042777312919497
-0.0114779565483331
-0.0183240938931703
-0.0244615450501441
-0.0295990165323019
-0.0335293039679527
-0.0361390374600887
-0.0374089293181896
-0.0374055542051792
-0.0362656079232692
-0.0341769158840179
-0.0313578024506568
-0.0280352998524904
-0.0244294013828039
-0.0207463316619396
-0.0171711295843124
-0.0138525087386369
-0.010886120609939
-0.008306423202157
-0.0060903490521013
-0.0041686412878334
-0.0024412153288722
-0.0007952661253511
0.0008766269311308
0.0026622309815138
0.0046215974725782
0.0067836036905646
0.0091445678845047
0.0116715943440794
0.0143093802034854
0.0169843100011348
0.0196090545505285
0.0220923833549022
0.0243510287255048
0.0263192281126976
0.0279543921351432
0.0292397625744342
0.0301822647452354
0.0307999663054943
0.0310966074466705
0.0310303177684545
0.0304928869009017
0.0293143540620803
0.0272960811853408
0.0242622978985309
0.0201100595295429
0.0148420203477144
0.0085803363472223
0.0015634801238775
-0.0058751604519784
-0.0133453477174043
-0.0204463116824626
-0.0268112178891897
-0.0321432314813137
-0.0362367816269397
-0.0389823615550994
-0.0403623953461647
-0.0404432490468025
-0.0393625497817993
-0.0373113267123699
-0.034512460231781
-0.031201846897602
-0.0276152417063713
-0.0239728968590497
-0.0204603821039199
-0.0172140169888734
-0.0143131921067833
-0.0117777213454246
-0.0095718847587704
-0.0076160188764333
-0.0058043980970978
-0.0040262583643198
-0.0021841872949153
-0.0002057389356195
0.0019516621250659
0.0043018111027777
0.0068344641476869
0.0095181185752153
0.0122995879501104
0.0151064079254865
0.0178552195429801
0.0204623490571975
0.0228534676134586
0.0249712727963924
0.0267794337123632
0.028263309970498
0.0294291786849498
0.0303001310676336
0.0309041105210781
0.0312519632279872
0.0313098542392253
0.0309794377535581
0.0301012769341468
0.0284811034798622
0.0259268190711736
0.0222913194447755
0.0175168178975582
0.0116668138653039
0.0049340454861521
-0.0023760455660521
-0.0098804859444499
-0.0171657111495733
-0.0238387510180473
-0.0295712556689977
-0.0341245085000991
-0.0373552180826664
-0.0392128899693489
-0.0397344790399074
-0.039032693952322
-0.0372802279889583
-0.0346965715289115
-0.0315324589610099
-0.028045991435647
-0.02447628416121
-0.0210219137370586
-0.0178257059305906
-0.0149669544771313
-0.0124619379639625
-0.0102716097608208
-0.0083161443471908
-0.0064942156895995
-0.0047008618712425
-0.0028422335162758
-0.000848195515573
0.0013219062238931
0.0036783711984753
0.0061980197206139
0.0088249463587999
0.011482086032629
0.0140869077295064
0.0165639109909534
0.0188525561243295
0.0209106281399726
0.0227138102054595
0.0242532473057508
0.0255339350551366
0.0265748891979455
0.0274069551378488
0.0280651152133941
0.0285759065300226
0.0289397574961185
0.0291082058101892
0.0289638489484787
0.0283193588256835
0.0269455146044492
0.0246213022619485
0.021189933642745
0.0166055783629417
0.010959381237626
0.0044785244390368
-0.002500494942069
-0.0095766922459006
-0.016335854306817
-0.0223974641412496
-0.0274524092674255
-0.0312861688435077
-0.0337824262678623
-0.0349178239703178
-0.0347598269581794
-0.0334600992500782
-0.0312363244593143
-0.0283467769622802
-0.0250623598694801
-0.0216400157660245
-0.0183000043034553
-0.0152078485116362
-0.0124635873362421
-0.0101006468757987
-0.0080927573144435
-0.0063663907349109
-0.0048174783587455
-0.0033300528302788
-0.001793720643036
-0.0001197507372125
0.0017449510050937
0.0038121030665934
0.0060570780187845
0.0084287794306874
0.0108590442687273
0.0132719334214925
0.0155947860330343
0.0177669003605842
0.0197408385574817
0.021480493247509
0.0229609105736017
0.0241693742573261
0.0251073986291885
0.0257927030324935
0.0262563247233629
0.0265253614634275
0.0265892222523689
0.0263686813414096
0.025711104273796
0.0244160126894712
0.0222805179655551
0.0191512815654277
0.0149703435599803
0.0098030371591448
0.0038396175950765
-0.0026267236098647
-0.0092362845316529
-0.0156071651726961
-0.0213799513876438
-0.0262522846460342
-0.0299982540309429
-0.0324799083173275
-0.0336585789918899
-0.0335985161364078
-0.032453753054142
-0.0304435826838016
-0.0278259329497814
-0.0248707588762044
-0.0218341331928968
-0.0189358722418546
-0.0163417197763919
-0.0141516346484422
-0.0123971225693821
-0.0110477805137634
-0.0100236432626843
-0.0092089148238301
-0.0084655471146106
-0.0076513262465596
-0.0066449451260268
-0.0053673074580729
-0.003787285182625
-0.0019155978225171
0.0002035642392002
0.0025012316182255
0.0048945285379886
0.0072981887497007
0.0096330111846327
0.0118280053138732
0.0138126891106367
0.0154989790171384
0.0167624298483133
0.0174396000802516
0.0173481367528438
0.0163194220513105
0.0142328729853034
0.0110489148646593
0.0068351896479725
0.0017761823255568
-0.0038388420362025
-0.0096485465764999
-0.0152643555775284
-0.0203142780810594
-0.0244789645075798
-0.0275177769362926
-0.0292844418436288
-0.0297345798462629
-0.0289237219840288
-0.026993490755558
-0.0241496674716472
-0.0206403452903032
-0.0167385973036289
-0.0127234645187854
-0.0088525265455245
-0.0053321244195103
-0.0022970680147409
0.0001971516758203
0.002172939479351
0.0037193177267909
0.004970665089786
0.0060805375687778
0.0071965171955525
0.0084408745169639
0.0098995808511972
0.0116194952279329
0.0136103648692369
0.0158463194966316
0.0182670839130878
0.0207850746810436
0.0232992134988307
0.0257055982947349
0.0278944633901119
0.0297356992959976
0.0310640297830104
0.0316746570169925
0.0313395373523235
0.0298468060791492
0.0270517319440841
0.0229209698736667
0.0175561401993036
0.0111942626535892
0.00418780464679
-0.0030372263863682
-0.0100385965779423
-0.0164105240255594
-0.0218198560178279
-0.0260270498692989
-0.0288929678499698
-0.0303738135844469
-0.030511550605297
-0.0294233988970518
-0.0272876769304275
-0.0243265032768249
-0.0207883641123771
-0.0169292949140071
-0.0129913417622447
-0.0091799031943082
-0.005644591525197
-0.0024731457233428
0.000299984589219
0.0026844330132007
0.00473119225353
0.0065263211727142
0.0081754978746175
0.009786270558834
0.0114531489089131
0.0132461823523044
0.0152048822492361
0.0173366032540798
0.0196172315627336
0.0219965353608131
0.0244080424308776
0.0267799384891986
0.0290433727204799
0.0311273112893104
0.0329328179359436
0.0343034975230693
0.0350177772343158
0.0348105579614639
0.0334167294204235
0.0306272786110639
0.0263441074639558
0.0206173956394195
0.0136567950248718
0.005814685486257
-0.002455768873915
-0.0106580415740609
-0.0183103252202272
-0.0249921195209026
-0.0303763058036565
-0.0342517420649528
-0.0365362279117107
-0.0372708477079868
-0.0365962274372577
-0.0347232036292552
-0.0319056846201419
-0.028416633605957
-0.0245277658104896
-0.0204913690686225
-0.0165227390825748
-0.0127864144742488
-0.0093885893002152
-0.0063746748492121
-0.0037329960614442
-0.0014040488749742
0.0007081711664795
0.002719915471971
0.0047425916418433
0.0068588205613195
0.0091134356334805
0.0115178227424621
0.0140566499903798
0.016692865639925
0.0193733852356672
0.0220367088913917
0.0246212631464004
0.0270722843706607
0.0293450765311718
0.03140240162611
0.0332034267485141
0.0346837788820266
0.0357318818569183
0.0361720658838748
0.0357665680348873
0.0342466942965984
0.0313712432980537
0.0269930846989154
0.0211101472377777
0.0138875804841518
0.0056483238004148
-0.0031648662406951
-0.0120455678552389
-0.0204838905483484
-0.0280212610960006
-0.0342930741608142
-0.0390528924763202
-0.0421765446662902
-0.0436510033905506
-0.0435598716139793
-0.0420728810131549
-0.0394314192235469
-0.0359233580529689
-0.0318540558218956
-0.027520140632987
-0.0231850333511829
-0.0190568920224905
-0.0152748897671699
-0.0119071872904896
-0.0089565571397542
-0.0063701122999191
-0.0040543116629123
-0.0018931967206299
0.0002351275179535
0.0024440335109829
0.0048220255412161
0.0074151828885078
0.0102184247225523
0.0131821688264608
0.0162281859666109
0.0192660950124263
0.0222063343971967
0.0249687433242797
0.0274882391095161
0.0297175645828247
0.0316265076398849
0.0332006141543388
0.0344424210488796
0.0353728123009204
0.0360278934240341
0.0364494249224662
0.0366646535694599
0.0366522260010242
0.0363079905509948
0.0354346930980682
0.0337672010064125
0.0310262478888034
0.0269827973097562
0.0215162597596645
0.0146552789956331
0.0065917577594518
-0.0023353323340415
-0.011681105941534
-0.0209503397345542
-0.0296543501317501
-0.0373587012290954
-0.0437180697917938
-0.0484991371631622
-0.0515923872590065
-0.053011380136013
-0.0528778247535228
-0.0513959154486656
-0.0488245226442813
-0.0454523861408233
-0.0415745005011558
-0.0374683327972888
-0.0333710983395576
-0.0294616110622882
-0.0258517675101757
-0.0225885063409805
-0.0196616929024457
-0.0170139633119106
-0.0145524367690086
-0.0121654532849788
-0.0097455885261297
-0.0072108665481209
-0.0045150336809456
-0.0016474039293825
0.0013729836791753
0.0045054005458951
0.0076944357715547
0.0108750676736235
0.0139777846634387
0.016933936625719
0.0196801554411649
0.0221635177731513
0.0243476703763008
0.0262167062610387
0.0277761276811361
0.0290491431951522
0.0300654135644435
0.0308467801660299
0.0313936844468116
0.0316682606935501
0.0315752066671848
0.0309536550194025
0.0295924339443445
0.0272690467536449
