bvp
-0.0026036975905299
-0.0106914434581995
-0.0183552354574203
-0.0251900814473629
-0.0308655798435211
-0.0351465307176113
-0.0379039607942104
-0.0391164384782314
-0.0388643704354763
-0.0373221188783645
-0.034741286188364
-0.031421311199665
-0.0276778992265462
-0.0238149650394916
-0.0200961660593748
-0.0167183019220829
-0.0137955117970705
-0.0113575709983706
-0.0093591986224055
-0.0076969373039901
-0.0062313107773661
-0.0048122773878276
-0.0033027436584234
-0.0015947662759572
0.0003795064985752
0.0026406398974359
0.0051630749367177
0.007884444668889
0.0107182953506708
0.0135673750191926
0.0163357015699148
0.0189388897269964
0.021311555057764
0.023408954963088
0.025202078744769
0.026666572317481
0.027762733399868
0.0284090377390384
0.0284673385322093
0.0277558304369449
0.0260824784636497
0.0232847724109888
0.0192717518657445
0.0140620237216353
0.0078038754872977
0.0007700957357883
-0.0066690538078546
-0.0140881277620792
-0.0210556462407112
-0.0271799005568027
-0.0321449264883995
-0.0357335470616817
-0.0378358177840709
-0.0384457968175411
-0.0376510024070739
-0.0356170684099197
-0.0325721055269241
-0.0287912804633378
-0.0245757736265659
-0.0202243272215127
-0.0160017888993024
-0.0121118417009711
-0.0086801964789628
-0.0057500284165143
-0.0032898210920393
-0.0012110236566513
0.0006104093044996
0.0023120283149182
0.0040235929191112
0.0058492645621299
0.007857946678996
0.0100835878401994
0.0125278206542134
0.0151577647775411
0.0179062783718109
0.0206824038177728
0.0233866944909095
0.0259239375591278
0.0282123293727636
0.0301910135895013
0.0318246483802795
0.033099390566349
0.0340055748820304
0.0345100909471511
0.0345310121774673
0.0339282304048538
0.0325188301503658
0.0301159676164388
0.0265750661492347
0.0218313559889793
0.0159282498061656
0.009035219438374
0.0014432519674301
-0.006465945392847
-0.0142670171335339
-0.0215412937104702
-0.0279194414615631
-0.0331118702888488
-0.0369271785020828
-0.0392778515815734
-0.0401743985712528
-0.0397125706076622
-0.0380565151572227
-0.0354193337261676
-0.0320462621748447
-0.0282023604959249
-0.0241562593728303
-0.020154720172286
-0.0163948759436607
-0.0130056720227003
-0.0100437765941023
-0.0074999355711042
-0.0053109899163246
-0.0033760415390133
-0.0015756571665406
0.0002071097842417
0.002068412490189
0.00407425314188
0.0062599591910839
0.0086328871548175
0.0111722564324736
0.0138266328722238
0.0165180992335081
0.0191555228084325
0.0216488745063543
0.0239187162369489
0.0259016379714012
0.0275555681437253
0.0288646016269922
0.0298386998474597
0.03050522133708
0.0308895781636238
0.0309849735349416
0.0307218134403228
0.0299563147127628
0.0284903571009635
0.026113323867321
0.0226495061069726
0.0180047936737537
0.0122042559087276
0.0054076742380857
-0.0021005468443036
-0.0099434684962034
-0.0176984872668981
-0.024947915226221
-0.031322993338108
-0.0365353859961032
-0.0403940454125404
-0.0428088270127773
-0.0437854751944541
-0.043414007872343
-0.0418507494032382
-0.0393015891313552
-0.0360104814171791
-0.0322440490126609
-0.0282680541276931
-0.0243230089545249
-0.02060385979712
-0.0172439366579055
-0.0143056251108646
-0.0117815881967544
-0.0096060112118721
-0.0076725939288735
-0.0058569852262735
-0.0040400526486337
-0.0021262799855321
-5.21522160852328e-05
0.0022151621524244
0.004679899662733
0.0073153222911059
0.0100640533491969
0.0128462184220552
0.0155716259032487
0.0181523822247982
0.0205138027667999
0.0226019546389579
0.0243882909417152
0.0258698314428329
0.0270623508840799
0.0279860440641641
0.028642950579524
0.0289905704557895
0.0289255566895008
0.0282887630164623
0.0268892217427492
0.024540115147829
0.0211038682609796
0.0165373962372541
0.0109214149415493
0.0044647064059972
-0.0025164438411593
-0.0096371602267026
-0.0164909809827804
-0.0226957648992538
-0.0279318541288375
-0.0319676026701927
-0.0346702709794044
-0.0360047444701194
-0.0360239781439304
-0.0348533764481544
-0.0326749198138713
-0.0297154784202575
-0.0262320376932621
-0.022487822920084
-0.0187246669083833
-0.0151398610323667
-0.0118725262582302
-0.0089991446584463
-0.0065360129810869
-0.0044477637857198
-0.0026591222267597
-0.0010679471306502
0.0004387174267321
0.0019670641049742
0.0036042807623744
0.0054135238751769
0.007427922450006
0.0096408240497112
0.0120039079338312
0.0144393527880311
0.0168569535017013
0.019168309867382
0.0212970972061157
0.0231856051832437
0.0247988514602184
0.026125993579626
0.0271767824888229
0.0279742702841758
0.0285458285361528
0.0289083421230316
0.029045931994915
0.0288896150887012
0.0283093322068452
0.0271249152719974
0.02513924613595
0.022185219451785
0.0181726794689893
0.0131248831748962
0.0071935537271201
0.0006467946805059
-0.0061641344800591
-0.0128486929461359
-0.0190232135355472
-0.0243533104658126
-0.0285866297781467
-0.0315698534250259
-0.0332482159137725
-0.0336541905999183
-0.0328967943787574
-0.0311543326824903
-0.0286603961139917
-0.0256785601377487
-0.0224741101264953
-0.0192884225398302
-0.0163166914135217
-0.0136926053091883
-0.0114821456372737
-0.0096853952854871
-0.008245974779129
-0.0070666493847966
-0.0060283513739705
-0.0050093596801161
-0.0038999575190246
-0.0026111248880624
-0.0010826303623616
0.0007061599753797
0.0027305199764668
0.0049281460233032
0.0072164302691817
0.0095091927796602
0.0117284841835498
0.0138114802539348
0.015712097287178
0.0173983331769704
0.0188458487391471
0.0200236104428768
0.0208714287728071
0.0212823003530502
0.0211053416132926
0.0201726239174604
0.0183382611721754
0.0155146392062306
0.0116997454315423
0.0069937957450747
0.0015999899478629
-0.0041932021267712
-0.0100440829992294
-0.0155967567116022
-0.0205198470503091
-0.0245386026799678
-0.0274560321122407
-0.0291623827069997
-0.0296362191438674
-0.0289411526173353
-0.0272164642810821
-0.0246572904288768
-0.0214918963611125
-0.0179663803428411
-0.0143300248309969
-0.0108123365789651
-0.0075972424820065
-0.004803848452866
-0.0024788556620478
-0.0006010998040437
0.0009052213281393
0.0021522156894207
0.0032676290720701
0.004375479184091
0.0055814133957028
0.0069637936539947
0.0085698273032903
0.0104153258726
0.0124834701418876
0.0147207491099834
0.0170403309166431
0.0193389914929866
0.021517064422369
0.0234927367419004
0.0252104215323925
0.0266412682831287
0.0277728270739316
0.028586883097887
0.0290313586592674
0.029001660645008
0.0283446796238422
0.0268855802714824
0.0244695041328668
0.021007914096117
0.0165136866271495
0.0111116413027048
0.0050280354917049
-0.0014312918065115
-0.007911492139101
-0.0140464296564459
-0.019498948007822
-0.0239953342825174
-0.0273465551435947
-0.0294568184763193
-0.0303218364715576
-0.0300184357911348
-0.0286897234618663
-0.0265279412269592
-0.0237539410591125
-0.0205957051366567
-0.0172715652734041
-0.0139785716310143
-0.0108807859942317
-0.0080958139151334
-0.0056850062683224
-0.0036520790308713
-0.0019491761922836
-0.0004889564588665
0.0008377945050597
0.0021428847685456
0.0035244529135525
0.0050549930892884
0.0067741340026259
0.0086871339008212
0.0107696456834673
0.0129771996289491
0.0152519848197698
0.0175233576446771
0.0197110585868358
0.021736754104495
0.0235371086746454
0.0250712446868419
0.0263199023902416
0.0272748488932847
0.0279195122420787
0.0282057505100965
0.0280367340892553
0.0272670816630125
0.0257238820195198
0.0232439097017049
0.0197190083563327
0.0151377273723483
0.0096053220331668
0.0033347203861922
-0.0033790431916713
-0.0101899728178977
-0.0167363211512565
-0.0226771887391805
-0.0277254153043031
-0.0316701717674732
-0.0343866012990474
-0.0358364842832088
-0.0360619276762008
-0.0351732037961483
-0.0333351418375968
-0.0307529084384441
-0.0276530887931585
-0.0242597833275795
-0.0207741949707269
-0.0173653308302164
-0.0141670145094394
-0.0112730609253048
-0.0087307728826999
-0.0065377685241401
-0.0046456367708742
-0.0029705986380577
-0.0014094891957938
0.0001422292552888
0.0017745164223015
0.0035508566070348
0.0055014714598655
0.0076236361637711
0.0098891789093613
0.0122546944767236
0.0146668963134288
0.0170617941766977
0.0193659048527479
0.0215042531490325
0.0234111547470092
0.0250391438603401
0.0263638105243444
0.0273801069706678
0.0280852951109409
0.0284532718360424
0.0284119807183742
0.027833579108119
0.0265456996858119
0.0243670772761106
0.0211589951068162
0.0168752428144216
0.0115903466939926
0.005495969671756
-0.0011244933120906
-0.0079294238239526
-0.014556324109435
-0.0206594429910182
-0.0259413048624992
-0.0301745682954788
-0.0332150384783744
-0.0350058451294899
-0.0355719737708568
-0.0350091569125652
-0.0334707051515579
-0.0311514120548963
-0.0282683558762073
-0.0250401217490434
-0.0216698907315731
-0.0183360334485769
-0.0151847060769796
-0.0123200938105583
-0.0097960717976093
-0.0076139448210597
-0.0057279882021248
-0.0040580192580819
-0.0025057112798094
-0.000971408560872
0.000630791299045
0.0023630443029105
0.0042604901827871
0.0063312887214124
0.0085582919418811
0.0109049472957849
0.0133212758228182
0.0157446730881929
0.0181016568094491
0.020314821973443
0.0223118811845779
0.0240364540368318
0.0254576317965984
0.0265709832310676
0.027390943840146
0.0279383212327957
0.0282205305993556
0.0282055586576461
0.0278026014566421
0.026864368468523
0.0252152867615222
0.0226947180926799
0.0191977880895137
0.0147040719166398
0.0092950202524662
0.0031594214960932
-0.0034201461821794
-0.010100214742124
-0.0165184177458286
-0.0223348885774612
-0.0272665508091449
-0.0311088450253009
-0.0337441861629486
-0.0351404137909412
-0.0353426672518253
-0.0344624109566211
-0.0326654613018035
-0.0301567539572715
-0.0271620955318212
-0.0239104777574539
-0.0206160191446542
-0.0174583345651626
-0.0145664419978857
-0.0120117478072643
-0.0098090721294283
-0.0079228822141885
-0.0062786871567368
-0.0047778943553566
-0.0033141309395432
-0.0017899493686854
-0.0001302938908338
0.0017095752991735
0.0037423458416014
0.0059538264758884
0.0083091417327523
0.0107533419504761
0.013212495483458
0.0156030319631099
0.0178451221436262
0.0198730658739805
0.0216403771191835
0.0231211204081773
0.0243103168904781
0.0252215694636106
0.0258794371038675
0.0263080578297376
0.0265158023685216
0.0264744125306606
0.0261006411164999
0.0252568367868661
0.0237729586660861
0.0214792378246784
0.0182466153055429
0.014029967598617
0.0088970158249139
0.0030316929332911
-0.0032854094170033
-0.0097116231918334
-0.0158829744905233
-0.0214546769857406
-0.0261374562978744
-0.0297229290008544
-0.0320939496159553
-0.0332249924540519
-0.0331751033663749
-0.032071366906166
-0.0300907362252473
-0.0274489969015121
-0.0243893228471279
-0.0211604591459035
-0.0179884396493434
-0.015052163042128
-0.0124677354469895
-0.0102829206734895
-0.0084831696003675
-0.0070048840716481
-0.0057497471570968
-0.0046013104729354
-0.0034449498634785
-0.0021852136123925
-0.0007538856007158
0.0008906365837901
0.002763295546174
0.0048466636799275
0.0070883850567042
0.0094089759513735
0.011715873144567
0.0139187844470143
0.0159437358379364
0.0177408903837203
0.0192844681441783
0.0205701030790805
0.0216108355671167
0.0224265046417713
0.0230247676372528
0.0233774855732917
0.0234033409506082
0.0229700524359941
0.0219163820147514
0.0200839806348085
0.0173541437834501
0.0136850988492369
0.0091374516487121
0.0038783969357609
-0.0018332197796553
-0.0076748891733586
-0.0132972346618771
-0.018364930525422
-0.0225938241928815
-0.0257765166461467
-0.0277946069836616
-0.0286204144358634
-0.0283105578273534
-0.0269930269569158
-0.0248520039021968
-0.0221130680292844
-0.0190242175012826
-0.0158314425498247
-0.012754563242197
-0.0099673429504036
-0.0075827036052942
-0.0056443903595209
-0.0041296370327472
-0.0029629010241478
-0.0020333777647465
-0.0012132909614592
-0.0003770124167203
0.000582750653848
0.0017451010644435
0.0031562424264848
0.0048253363929688
0.0067214067094028
0.0087782945483922
0.0109085533767938
0.0130193578079342
0.0150254573673009
0.0168582703918218
0.0184712558984756
0.0198406539857387
0.02095902338624
0.0218182206153869
0.0223831813782453
0.0225692056119442
0.0222387574613094
0.0212236903607845
0.0193660948425531
0.0165615417063236
0.0127908112481236
0.0081370994448661
0.0027875883970409
-0.0029831810388714
-0.0088451504707336
-0.0144516453146934
-0.0194776803255081
-0.0236525554209947
-0.0267811343073844
-0.0287517700344324
-0.0295358654111623
-0.0291834399104118
-0.0278155859559774
-0.0256121568381786
-0.0227927174419164
-0.0195949207991361
-0.0162563621997833
-0.0129978070035576
-0.010003101080656
-0.0073994891718029
-0.0052462927997112
-0.0035343840718269
-0.002195393666625
-0.0011190674267709
-0.0001748809590935
0.0007663145661354
0.0018144287168979
0.0030497340485453
0.0045193126425147
0.0062376516871154
0.0081910472363233
0.0103418361395597
0.0126283094286918
0.0149669162929058
0.0172629747539758
0.0194240473210811
0.0213700085878372
0.0230417437851429
0.0244085043668746
0.0254658199846744
0.0262171998620033
0.0266444385051727
0.0266789160668849
0.0261889770627021
0.0249957460910081
0.0229152627289295
0.0198111236095428
0.0156368538737297
0.0104546006768941
0.0044345068745315
-0.0021561263129115
-0.0089752469211816
-0.0156434774398803
-0.021790575236082
-0.0270982254296541
-0.0313276536762714
-0.0343289524316787
-0.0360399633646011
-0.0364831797778606
-0.0357591956853866
-0.0340329743921756
-0.0315139703452587
-0.0284320153295993
-0.0250163618475198
-0.0214845314621925
-0.0180312618613243
-0.0148101449012756
-0.0119188539683818
-0.0093957902863621
-0.0072244657203555
-0.0053422413766384
-0.003652992658317
-0.0020448993891477
-0.0004118345677852
0.001329873688519
0.0032342597842216
0.0053249350748956
0.0075983377173542
0.0100304335355758
0.0125816846266388
0.0151970703154802
0.0178068559616804
0.0203320272266864
0.0226928368210792
0.024819154292345
0.0266598165035247
0.0281875152140855
0.0293960981070995
0.0302860029041767
0.0308376364409923
0.0309828463941812
0.03059047088027
0.0294778533279895
0.0274493005126714
0.0243497565388679
0.0201127156615257
0.0147853586822748
0.0085313972085714
0.0016200917307287
-0.0055983536876738
-0.0127326380461454
-0.0193970259279012
-0.0252517461776733
-0.0300307739526033
-0.0335578396916389
-0.0357519201934337
-0.036622866988182
-0.0362599194049835
-0.0348160788416862
-0.0324888564646244
-0.0294996816664934
-0.0260786693543195
-0.0224541872739791
-0.0188381727784872
-0.0154054360464215
-0.0122750839218497
-0.0095024742186069
-0.0070831310003995
-0.0049633812159299
-0.0030537275597453
-0.0012450274080038
0.000573637895286
0.0024982169270515
0.00459636002779
0.0069003440439701
0.0094085112214088
0.0120930941775441
0.014906195923686
0.0177797358483076
0.0206277556717395
0.0233576633036136
0.0258844345808029
0.0281411204487085
0.0300849750638008
0.0316989235579967
0.032987855374813
0.0339693650603294
0.0346562452614307
0.0350303202867507
0.0350162051618099
0.0344695076346397
0.0331911034882068
0.0309680998325347
0.027627233415842
0.0230815634131431
0.017360744997859
0.0106223132461309
0.0031430881936103
-0.004706987645477
-0.0125056523829698
-0.0198282394558191
-0.0262939389795064
-0.0315988846123218
-0.035536203533411
-0.0380045473575592
-0.0390058271586895
-0.0386347845196723
-0.0370619669556617
-0.0345114357769489
-0.0312400609254837
-0.0275219492614269
-0.0236294660717248
-0.019806619733572
-0.0162438787519931
-0.013063408434391
-0.0103161511942744
-0.0079866796731948
-0.006002178415656
-0.0042477343231439
-0.0025902134366333
-0.0009040385484695
0.0009111436083912
0.002922632265836
0.0051626712083816
0.0076305964030325
0.0102956891059875
0.0130978226661682
0.0159516129642725
0.0187589656561613
0.0214243400841951
0.0238656364381313
0.0260215885937213
0.0278564803302288
0.0293589327484369
0.0305361505597829
0.0314074195921421
0.0319942608475685
0.0323011055588722
0.0322876274585723
0.031848706305027
0.0308200549334287
0.0290071610361337
0.0262233596295118
0.0223328042775392
0.0172952748835086
0.0111982300877571
0.0042620943859219
-0.0031814621761441
-0.0107291545718908
-0.0179543867707252
-0.0244560278952121
-0.0298997908830642
-0.0340472161769866
-0.0367698222398757
-0.0380485877394676
-0.0379625931382179
-0.0366715267300605
-0.0343969091773033
-0.0314043723046779
-0.0279829185456037
-0.0244183018803596
-0.0209644101560115
-0.0178183689713478
-0.0151044391095638
-0.012869257479906
-0.0110862143337726
-0.0096675977110862
-0.0084853861480951
-0.0073957513086497
-0.0062603605911135
-0.0049626822583377
-0.0034180216025561
-0.0015768825542181
0.0005726171657443
0.0030000430997461
0.0056334901601076
0.0083723235875368
0.0111065413802862
0.013734458014369
0.0161740165203809
0.0183663237839937
0.020271549001336
0.0218556709587574
0.0230683013796806
0.0238192602992057
0.0239656157791614
0.0233213640749454
0.0216952618211507
0.0189442746341228
0.0150199132040143
0.0099929980933666
0.0040556890890002
-0.0024938303977251
-0.0092818764969706
-0.01590271666646
-0.0219638384878635
-0.027122788131237
-0.0311142578721046
-0.0337669365108013
-0.0350093767046928
-0.0348681397736072
-0.033460795879364
-0.0309829637408256
-0.0276884976774454
-0.0238629132509231
-0.0197942871600389
-0.0157475229352712
-0.0119428625330328
-0.0085392771288752
-0.0056255985982716
-0.003219692967832
-0.0012745446292683
0.0003090603568125
0.0016634280327707
0.0029314770363271
0.0042457971721887
0.0057116756215691
0.0073958416469395
0.0093233622610569
0.0114828590303659
0.0138358063995838
0.0163224935531616
0.0188625007867813
0.0213585961610078
0.0237105526030063
0.0258317422121763
0.0276593044400215
0.0291554126888513
0.0302988644689321
0.0310653038322925
0.0313987210392952
0.0311876609921455
0.0302643030881881
0.028432510793209
0.0255157425999641
0.0214109234511852
0.0161328017711639
0.0098317060619592
0.0027782162651419
-0.0046731396578252
-0.012123629450798
-0.0191676095128059
-0.025431441143155
-0.0306122098118066
-0.0345044136047363
-0.03700777515769
-0.0381204709410667
-0.0379253290593624
-0.0365743227303028
-0.0342720113694667
-0.0312570594251155
-0.027781406417489
-0.0240870956331491
-0.0203863009810447
-0.0168503765016794
-0.0136047732084989
-0.0107244243845343
-0.0082305883988738
-0.006092959549278
-0.0042372727766633
-0.0025577517226338
-0.0009355634683743
0.0007396093569695
0.0025523810181766
0.0045532500371336
0.0067567424848675
0.0091426540166139
0.0116617083549499
0.0142474249005317
0.0168279446661472
0.0193307865411043
0.0216846633702516
0.0238253381103277
0.0257039628922939
0.0272914189845323
0.0285758655518293
0.0295536667108535
0.0302105266600847
0.0304951258003711
0.0302994176745414
0.0294592604041099
0.0277801249176263
0.0250811912119388
0.0212446115911006
0.0162587873637676
0.0102413697168231
0.0034310109913349
-0.0038433419540524
-0.0111998589709401
-0.0182427689433097
-0.0246016234159469
-0.0299661364406347
-0.0341107994318008
-0.0369059331715106
-0.0383166670799255
-0.0383956283330917
-0.0372733883559703
-0.0351445078849792
-0.0322466157376766
-0.0288347043097019
-0.0251549128443002
-0.021425075829029
-0.017825549468398
-0.0144926449283957
-0.0115103870630264
-0.0089056938886642
-0.0066511090844869
-0.0046760840341448
-0.0028835434932261
-0.0011658144649118
0.000580197898671
0.0024377875961363
0.0044595943763852
0.0066641313023865
0.0090381894260644
0.0115430485457181
0.0141233243048191
0.0167144779115915
0.0192456487566232
0.0216414481401443
0.0238277353346347
0.0257418937981128
0.0273429080843925
0.0286155026406049
0.0295680034905672
0.0302236936986446
0.030599920079112
0.0306761357933282
0.0303675588220357
0.0295215062797069
0.0279401987791061
0.0254255458712577
0.0218345038592815
0.0171238966286182
0.0113701578229665
0.0047683455049991
-0.0023828693665564
-0.0097121391445398
-0.0168210435658693
-0.0233324505388736
-0.0289282612502574
-0.0333724729716777
-0.0365217179059982
-0.0383252315223217
-0.0388172045350074
-0.038105234503746
-0.0363568551838398
-0.0337835401296615
-0.0306198820471763
-0.0271021239459514
-0.0234533566981554
-0.019871287047863
-0.0165124684572219
-0.0134784327819943
-0.0108102597296237
-0.0084918998181819
-0.0064609888941049
-0.0046247197315096
-0.002877066610381
-0.001115383580327
0.0007450322154909
0.0027611400000751
0.0049587218090891
0.0073349513113498
0.0098643731325864
0.0125026404857635
0.0151867642998695
0.017838517203927
0.020373847335577
0.022712867707014
0.0247875247150659
0.0265497975051403
0.0279788114130496
0.0290810614824295
0.0298837106674909
0.0304229874163866
0.0307253003120422
0.030780903995037
0.0305193681269884
0.0298028290271759
0.0284452028572559
0.026248250156641
0.023042969405651
0.0187329705804586
0.0133321359753608
0.0069828974083065
-5.079153925180435e-05
-0.0074124047532677
-0.0146968020126223
-0.0214993208646774
-0.0274602621793746
-0.0322981253266334
-0.0358284264802932
-0.0379698351025581
-0.0387408249080181
-0.038246750831604
-0.0366587676107883
-0.0341930240392684
-0.0310946870595216
-0.0276211909949779
-0.0240209717303514
-0.0205109417438507
-0.0172576159238815
-0.0143649987876415
-0.011870352551341
-0.0097495820373296
-0.0079310229048132
-0.0063116052187979
-0.0047725420445203
-0.0031961591448634
-0.0014826883561909
0.0004375746939331
0.0025989997666329
0.0049986098892986
0.0075950524769723
0.0103142373263835
0.0130632407963275
0.0157449562102556
0.0182695761322975
0.0205641128122806
0.022578714415431
0.0242871288210153
0.0256835967302322
0.0267801955342292
0.0276033319532871
0.0281878449022769
0.0285709220916032
0.028784655034542
0.0288414489477872
0.0287089422345161
0.0282840561121702
0.0273884143680334
0.0257967747747898
0.0232884250581264
0.0197043418884277
0.0149946138262748
0.0092443311586976
0.0026731509715318
-0.0043901917524635
-0.0115509117022156
-0.0183969400823116
-0.0245451815426349
-0.0296806693077087
-0.0335816442966461
-0.036127820611
-0.0373001955449581
-0.0371781289577484
-0.0359275341033935
-0.0337768122553825
-0.0309884939342737
-0.0278337523341178
-0.0245690140873193
-0.0214138850569725
-0.0185342375189065
-0.0160320717841386
-0.0139417620375752
-0.0122349131852388
-0.0108334859833121
-0.0096270404756069
-0.0084894252941012
-0.0072932722978293
-0.0059282127767801
-0.0043225474655628
-0.002453348133713
-0.000339814228937
0.0019681360572576
0.0044002248905599
0.0068774707615375
0.0093230698257684
0.0116691505536437
0.0138609521090984
0.0158601254224777
0.0176449250429868
0.0192064568400383
0.0205417498946189
0.0216404721140861
0.0224632527679204
0.0229185819625854
0.0228532534092664
0.0220702476799488
0.0203725285828113
0.0176165755838155
0.0137592386454343
0.0088846944272518
0.0032040460500866
-0.0029679369181394
-0.0092503326013684
-0.0152427973225712
-0.0205746889114379
-0.0249451212584972
-0.0281455181539058
-0.0300648566335439
-0.0306831989437341
-0.030063496902585
-0.0283476095646619
-0.0257473196834325
-0.0225217957049608
-0.0189486481249332
-0.0152971763163805
-0.0118033159524202
-0.0086459629237651
-0.0059313355013728
-0.0036905677989125
-0.001887634396553
-0.0004347469657659
0.0007864730432629
0.0019046384841203
0.0030451058410108
0.0043214722536504
0.0058237547054886
0.0076017873361706
0.0096558118239045
0.0119413286447525
0.0143813323229551
0.0168793350458145
0.0193334743380546
0.0216521434485912
0.0237660966813564
0.0256312750279903
0.0272238571196794
0.0285339131951332
0.029560538008809
0.0303017925471067
0.0307326670736074
0.030780341476202
0.030312392860651
0.0291457623243331
0.0270798485726118
0.0239477418363094
0.0196678340435028
0.0142797008156776
0.0079557402059435
0.0009865739848464
-0.0062538273632526
-0.0133533831685781
-0.0199092216789722
-0.0255699269473552
-0.0300675779581069
-0.0332360006868839
-0.0350121222436428
-0.0354250334203243
-0.0345837734639644
-0.0326673872768878
-0.0299112126231193
-0.0265842713415622
-0.0229608863592147
-0.019294599071145
-0.0157979987561702
-0.0126270391047
-0.0098698772490024
-0.0075437342748045
-0.0056025180965662
-0.0039528654888272
-0.0024737985804677
-0.0010371878743171
0.0004738764837384
0.0021530864760279
0.0040633231401443
0.0062277093529701
0.0086243897676467
0.0111940754577517
0.0138553790748119
0.0165178775787353
0.0190924704074859
0.0215011350810527
0.0236843191087245
0.0256043523550033
0.0272445231676101
0.0286045670509338
0.0296933036297559
0.0305164866149425
0.0310579743236303
0.0312571972608566
0.0309903807938098
0.0300684161484241
0.0282651353627443
0.0253718234598636
0.0212551616132259
0.0159006286412477
0.0094350734725594
0.0021242517977952
-0.0056563690304756
-0.0134701188653707
-0.0208747237920761
-0.0274743176996707
-0.0329582393169403
-0.037121545523405
-0.0398676581680774
-0.0411961637437343
-0.0411863289773464
-0.0399856083095073
-0.0377981923520565
-0.0348671674728393
-0.03145232796669
-0.0278063137084245
-0.0241515636444091
-0.0206622928380966
-0.0174540616571903
-0.0145807135850191
-0.0120380278676748
-0.0097740925848484
-0.0077040963806211
-0.0057259164750576
-0.0037331823259592
-0.0016257213428616
0.0006754994392395
0.0032087531872093
0.0059631681069731
0.008888991549611
0.0119134970009326
0.0149517618119716
0.0179146062582731
0.0207181088626384
0.0232933852821588
0.0255928207188844
0.0275917649269104
0.0292863976210355
0.0306888204067945
0.03181903809309
0.0326898470520973
0.033282708376646
0.0335191562771797
0.033241007477045
0.0322195850312709
0.0302019752562046
0.0269769243896007
0.0224358551204204
0.0166133120656013
0.0096982400864362
0.0020156144164502
-0.0060145733878016
-0.0139314075931906
-0.0212885159999132
-0.0277008451521396
-0.0328767634928226
-0.0366313382983207
-0.0388843715190887
-0.0396547317504882
-0.0390547402203083
-0.0372776947915554
-0.0345745608210563
-0.0312245339155197
-0.027507446706295
-0.0236806403845548
-0.0199585556983947
-0.0164970196783542
-0.0133864693343639
-0.0106546189635992
-0.00827491376549
-0.006178006529808
-0.0042660804465413
-0.0024271020665764
-0.0005472395569086
0.0014735595323145
0.0037034144625067
0.0061675924807786
0.008848663419485
0.0116935186088085
0.0146244717761874
0.0175528544932603
0.0203917045146226
0.0230648182332515
0.0255110003054142
0.0276842098683118
0.0295541211962699
0.03110958263278
0.0323594696819782
0.0333280153572559
0.034045934677124
0.0345287956297397
0.0347396582365036
0.0345591083168983
0.0337876491248607
0.0321819223463535
0.0295093916356563
0.0256044901907444
0.0204150341451168
0.0140312314033508
0.0066892132163047
-0.0012544579803943
-0.0093695009127259
-0.0172046553343534
-0.0243367906659841
-0.0304109659045934
-0.0351651608943939
-0.0384429134428501
-0.0402017012238502
-0.0405119061470031
-0.0395392216742038
-0.0375163070857524
-0.0347140915691852
-0.031417042016983
-0.0279005616903305
-0.0244084745645523
-0.0211328770965337
-0.0182009730488061
-0.0156713780015707
-0.0135374870151281
-0.0117356935515999
-0.0101594598963856
-0.008678013458848
-0.0071581443771719
-0.0054869907908141
-0.003588993102312
-0.0014330262783914
0.0009693693136796
0.0035730267409235
0.0063114794902503
0.0091076772660017
0.0118814371526241
0.0145549736917018
0.0170592628419399
0.0193410515785217
0.0213656853884458
0.0231117624789476
0.0245562903583049
0.0256523061543703
0.0263045411556959
0.0263541415333747
0.0255902037024498
0.0237947478890419
0.0208038762211799
0.0165611431002616
0.0111496075987815
0.004797191824764
-0.0021453814115375
-0.0092495828866958
-0.0160667914897203
-0.0221827551722526
-0.0272566340863704
-0.0310441721230745
-0.03340720012784
-0.0343115776777267
-0.0338211543858051
-0.0320904292166233
-0.0293490774929523
-0.0258773863315582
-0.0219778604805469
-0.0179458521306514
-0.0140414824709296
-0.0104656722396612
-0.0073444000445306
-0.0047251023352146
-0.0025833440013229
-0.0008359081111848
0.0006408235058188
0.0019894861616194
0.0033523212186992
0.0048561752773821
0.0065979394130408
0.0086287083104252
0.0109458891674876
0.01349937915802
0.0162046216428279
0.0189570635557174
0.0216483883559703
0.0241815075278282
0.0264806672930717
0.0284962691366672
0.0302047729492187
0.0316018164157867
0.0326845943927764
0.0334237180650234
0.0337360501289367
0.0334741733968257
0.0324382670223712
0.0304096192121505
0.0272015109658241
0.0227138735353946
0.0169743411242961
0.0101550770923495
0.0025621773675084
-0.0053994711488485
-0.0132759381085634
-0.0206179767847061
-0.0270313769578933
-0.0322139970958232
-0.0359724536538124
-0.0382233969867229
-0.0389859750866889
-0.0383671261370182
-0.0365460999310016
-0.0337626338005065
-0.030300173908472
-0.0264578275382518
-0.0225185491144657
-0.0187221989035606
-0.015246232971549
-0.012195617891848
-0.0096017764881253
-0.0074291103519499
-0.0055902013555169
-0.0039666970260441
-0.0024280385114252
-0.0008470432367175
0.0008856859058141
0.0028502508066594
0.005087842233479
0.0075927935540676
0.0103119406849145
0.0131555814296007
0.0160166174173355
0.0187889244407415
0.021379467099905
0.0237154904752969
0.0257486794143915
0.0274556539952754
0.0288337748497724
0.0298902913928031
0.0306214597076177
0.030983468517661
0.0308686681091785
0.0301048308610916
0.0284804943948984
0.0257870517671108
0.0218714661896228
0.016688235104084
0.0103324931114912
0.0030444990843534
-0.0048145484179258
-0.0128090968355536
-0.0204854793846607
-0.0274236723780632
-0.033276867121458
-0.0377977602183818
-0.0408500842750072
-0.0424050763249397
-0.0425277985632419
-0.0413592681288719
-0.0390997529029846
-0.0359951891005039
-0.0323209427297115
-0.028357733041048
-0.0243632588535547
-0.0205468125641345
-0.0170519091188907
-0.0139498524367809
-0.0112440669909119
-0.0088822813704609
-0.0067737158387899
-0.0048080729320645
-0.002873416757211
-0.0008712378330528
0.0012738090008497
0.0036107350606471
0.0061601353809237
0.008908568881452
0.0118069229647517
0.0147801786661148
0.017742533236742
0.0206084456294775
0.0232983957976102
0.025743743404746
0.027893079444766
0.0297183021903038
0.0312152449041605
0.032392218708992
0.033245924860239
0.033733207732439
0.0337515957653522
0.0331404469907283
0.0317028425633907
0.0292402822524309
0.0255987308919429
0.0207192339003086
0.0146734165027737
0.0076713990420103
4.325807094573975e-05
-0.0078002773225307
-0.0154184168204665
-0.0223911218345165
-0.0283625405281782
-0.0330713018774986
-0.03636334836483
-0.03818991035223
-0.0385967530310153
-0.037708006799221
-0.0357102788984775
-0.0328418835997581
-0.0293795689940452
-0.0256135873496532
-0.021815437823534
-0.0182095486670732
-0.014954786747694
-0.0121357636526227
-0.0097638713195919
-0.0077875480055809
-0.006108671426773
-0.004601867403835
-0.0031342161819338
-0.0015825584996491
0.0001539916265755
0.0021455695386976
0.0044229794293642
0.0069694304838776
0.0097206570208072
0.0125785320997238
0.0154324900358915
0.0181782431900501
0.0207294691354036
0.0230238605290651
0.0250237584114074
0.026710208505392
0.0280678533017635
0.0290596298873424
0.0296006854623556
0.0295476969331502
0.0287134982645511
0.0269058514386415
0.02397689409554
0.0198644436895847
0.0146180968731641
0.0084107257425785
0.0015307213179767
-0.005646982230246
-0.0127047467976808
-0.0192315056920051
-0.0248674154281616
-0.0293359272181987
-0.0324599966406822
-0.0341644212603569
-0.0344706401228904
-0.0334876850247383
-0.0313966013491153
-0.0284276604652404
-0.0248380694538354
-0.0208956040441989
-0.0168626718223094
-0.0129752056673169
-0.0094192614778876
-0.0063130049966275
-0.0036990046501159
-0.001547320280224
0.0002306513488292
0.0017607656773179
0.0031839511357247
0.004636192228645
0.0062301843427121
0.0080413930118083
0.0101035982370376
0.0124139208346605
0.0149387773126363
0.0176138319075107
0.0203446708619594
0.023017605766654
0.0255172383040189
0.0277426149696111
0.029619550332427
0.0311085078865289
0.0322053842246532
0.0329347662627697
0.0333356633782386
0.0334353558719158
0.0332137644290924
0.0325763970613479
0.0313561856746673
0.0293473191559314
0.0263550095260143
0.0222432687878608
0.0169738568365573
0.0106327114626765
0.0034363511949777
-0.0042870435863733
-0.0121384961530566
-0.0196989029645919
-0.0265763867646455
-0.0324431173503398
-0.0370594710111618
-0.0402852967381477
-0.0420791506767272
-0.0424888283014297
-0.041636973619461
-0.0397042445838451
-0.0369134433567523
-0.0335154794156551
-0.029771938920021
-0.0259323921054601
-0.0222115907818079
-0.0187706518918275
-0.0157052036374807
-0.0130437733605504
-0.0107549261301755
-0.0087593700736761
-0.0069460165686905
-0.0051919277757406
-0.0033836364746093
-0.001434015808627
0.0007111465092748
0.0030749607831239
0.0056493207812309
0.0083909528329968
0.0112248370423913
0.0140578346326947
0.0167937204241752
0.0193450655788183
0.0216425601392984
0.0236407909542322
0.0253181960433721
0.0266728531569242
0.0277175828814506
0.0284755267202854
0.028977807611227
0.0292602032423019
0.0293516889214515
0.0292541794478893
0.0289157573133707
0.0282080397009849
0.0269303563982248
0.024847287684679
0.021743144840002
0.0174782946705818
0.01203572191298
0.0055432263761758
-0.0017360346391797
-0.0094374418258667
-0.0171410869807004
-0.0244218260049819
-0.0308958236128091
-0.0362559035420417
-0.0402918793261051
-0.0428967401385307
-0.04406363889575
-0.0438792780041694
-0.0425124615430831
-0.0401933044195175
-0.0371851436793804
-0.0337563380599021
-0.0301559623330831
-0.0265937689691782
-0.0232263784855604
-0.0201515182852745
-0.0174081474542617
-0.0149812726303935
-0.0128127271309494
-0.0108159873634576
-0.0088902944698929
-0.006933188997209
-0.0048552714288234
-0.0025966386310756
-0.0001371968537569
0.0025038106832653
0.0052764937281608
0.0081130592152476
0.0109406420961022
0.0136905657127499
0.0163035728037357
0.0187324211001396
0.0209420658648014
0.022908192127943
0.0246157739311456
0.0260593201965093
0.0272456668317317
0.0281955692917108
0.0289358869194984
0.0294791087508201
0.0297971665859222
0.0298004876822233
0.0293338540941476
0.0281970109790563
0.0261859018355608
0.0231422297656536
0.0189980305731296
0.0138030434027314
0.007729950826615
0.0010594027116894
-0.0058510527014732
-0.012608028948307
-0.0188268143683671
-0.0241729505360126
-0.0283958427608013
-0.031350277364254
-0.0329993888735771
-0.0334003008902072
-0.0326843000948429
-0.0310374535620212
-0.0286799483001232
-0.0258447844535112
-0.0227593202143907
-0.0196305457502603
-0.0166311487555503
-0.0138866584748029
-0.011468811891973
-0.0093965511769056
-0.007640765979886
-0.0061310958117246
-0.0047696633264422
-0.0034529205877333
-0.0020907716825604
-0.0006158696487545
0.001014000037685
0.0028175436891615
0.0047922008670866
0.0069147832691669
0.0091433580964803
0.011422773823142
0.0136924125254154
0.0158940572291612
0.0179775450378656
0.0199017785489559
0.0216341689229011
0.0231529828161001
0.024445004761219
0.0254875198006629
0.0262223035097122
0.0265405066311359
0.0262866988778114
0.0252809189260005
0.0233559049665927
0.0204017367213964
0.0164034310728311
0.0114597138017416
0.0057809110730886
-0.000331291463226
-0.0065182447433471
-0.0124066723510622
-0.017650743946433
-0.0219655204564332
-0.0251494832336902
-0.0270984545350074
-0.0278087314218282
-0.0273673478513956
-0.0259339362382888
-0.0237197298556566
-0.0209644995629787
-0.0179113894701004
-0.0147841945290565
-0.0117718446999788
-0.0090187732130289
-0.0066170198842883
-0.004601951688528
-0.002955911681056
-0.001616227440536
-0.0004831957630813
0.0005652871914207
0.0016481145285069
0.0028571155853569
0.004247167147696
0.0058372602798044
0.0076158512383699
0.0095479227602481
0.0115825291723012
0.0136594558134675
0.0157139468938112
0.0176805332303047
0.0194986350834369
0.0211203433573246
0.0225164219737052
0.0236773807555437
0.0246107503771781
0.0253335312008857
0.0258592888712883
0.0261833164840936
0.0262664444744586
0.0260198339819908
0.0253004170954227
0.0239258334040641
0.0217091590166091
0.0185039173811674
0.014246292412281
0.0089840088039636
0.0028848452493548
-0.0037775076925754
-0.0106567200273275
-0.0173758193850517
-0.0235663428902626
-0.0289043541997671
-0.0331449098885059
-0.0361438058316707
-0.0378595180809497
-0.0383408404886722
-0.0377067923545837
-0.036126110702753
-0.0338013172149658
-0.0309540908783674
-0.0278078597038984
-0.0245688240975141
-0.0214100461453199
-0.0184612125158309
-0.0158023294061422
-0.013458976522088
-0.0114027466624975
-0.0095647415146231
-0.0078592915087938
-0.0062033887952566
-0.0045253653079271
-0.0027683423832058
-0.0008923504501581
0.0011249794624745
0.003287648782134
0.0055802324786782
0.0079688820987939
0.0104039423167705
0.0128247253596782
0.0151681220158934
0.0173765085637569
0.0194032695144414
0.0212195254862308
0.0228156596422195
0.0241917446255683
0.0253477543592453
0.0262805111706256
0.0269765257835388
0.0273931734263896
0.027436988428235
0.0269563719630241
0.0257604513317346
0.023659536615014
0.0205134060233831
0.0162749383598566
0.0110176019370555
0.0049386667087674
-0.0016604349948465
-0.0084090298041701
-0.0149131147190928
-0.0208068899810314
-0.0257950127124786
-0.0296745114028453
-0.0323382392525672
-0.0337665565311908
-0.0340149514377117
-0.0332018285989761
-0.0314948447048664
-0.0290944594889879
-0.0262156426906585
-0.0230701193213462
-0.019851429387927
-0.0167232304811477
-0.0138082141056656
-0.0111760785803198
-0.0088397711515426
-0.0067676650360226
-0.004901522770524
-0.003169385716319
-0.0014944840222597
0.0001973193138837
0.0019715409725904
0.0038787554949522
0.0059480643831193
0.0081840390339493
0.0105671463534235
0.0130556998774409
0.0155904218554496
0.0181022509932518
0.0205225758254528
0.0227925758808851
0.0248649455606937
0.0266991034150123
0.0282600708305835
0.0295240096747875
0.0304840225726366
0.0311476122587919
0.0315182171761989
0.0315653011202812
