bvp
0.0029633622616529
0.0053236628882586
0.0078276321291923
0.0104599194601178
0.0131772002205252
0.015914000570774
0.0185930673032999
0.0211367532610893
0.0234786458313465
0.0255702026188373
0.0273782350122928
0.028880801051855
0.0300671979784965
0.0309360530227422
0.0314833782613277
0.0316797234117984
0.0314465500414371
0.0306486617773771
0.0291115958243608
0.0266577787697315
0.0231522768735885
0.0185489952564239
0.0129213044419884
0.0064665377140045
-0.0005123857408761
-0.0076436670497059
-0.0145368641242384
-0.0208326652646064
-0.0262383744120597
-0.0305460486561059
-0.0336365513503551
-0.0354745835065841
-0.0360999293625354
-0.0356174185872077
-0.0341845117509365
-0.0319950431585311
-0.0292611625045537
-0.0261963605880737
-0.0230001136660575
-0.0198425780981779
-0.016848899424076
-0.0140910418704152
-0.0115931723266839
-0.0093413097783923
-0.0072897798381745
-0.0053694299422204
-0.0034994061570614
-0.001598899718374
0.0004014912992715
0.0025489886756986
0.0048618526197969
0.0073284893296658
0.0099109290167689
0.012551705352962
0.0151830986142158
0.0177364833652973
0.0201505534350872
0.0223742369562387
0.024363450706005
0.0260808132588863
0.0275005344301462
0.0286118648946285
0.0294193308800458
0.0299393702298402
0.0301897190511226
0.0301693975925445
0.0298349075019359
0.029085112735629
0.0277655646204948
0.0256949625909328
0.0227065794169902
0.0186947882175445
0.0136565770953893
0.0077117569744586
0.0010936055332422
-0.0058792992495
-0.0128393163904547
-0.0194114185869693
-0.0252541303634643
-0.0300919711589813
-0.0337365977466106
-0.0360955893993377
-0.0371702834963798
-0.0370468497276306
-0.0358820781111717
-0.0338845811784267
-0.0312930569052696
-0.02835114300251
-0.0252825636416673
-0.0222757514566183
-0.0194783173501491
-0.0169925857335329
-0.0148693099617958
-0.0131037775427103
-0.0116388704627752
-0.0103777479380369
-0.0092022502794861
-0.0079905381426215
-0.0066335964947938
-0.0050509134307503
-0.0032009223941713
-0.0010832198895514
0.0012657763436436
0.0037828674539923
0.0063932319171726
0.0090224370360374
0.0115984389558434
0.0140503961592912
0.0163115747272968
0.0183226577937603
0.0200270302593708
0.0213550459593534
0.0222060699015855
0.0224416945129632
0.0218983478844165
0.0204201005399227
0.0179025139659643
0.0143317300826311
0.0098047191277146
0.0045269788242876
-0.0012051906669512
-0.0070364605635404
-0.012600096873939
-0.0175658613443374
-0.0216696579009294
-0.0247251838445663
-0.0266271773725748
-0.0273516587913036
-0.0269531719386577
-0.0255569946020841
-0.0233453437685966
-0.0205386076122522
-0.0173739660531282
-0.0140840355306863
-0.0108775170519948
-0.0079205203801393
-0.0053178099915385
-0.0031041828915476
-0.0012554777786135
0.000291297212243
0.0016232188791036
0.002841169014573
0.004048429429531
0.0053384760394692
0.0067839152179658
0.0084283547475934
0.0102845076471567
0.0123374536633491
0.0145479626953601
0.0168564226478338
0.0191897004842758
0.0214707069098949
0.0236297212541103
0.0256099589169025
0.0273593496531248
0.0288123413920402
0.0298708640038967
0.0303920321166515
0.0301918350160121
0.0290700476616621
0.026850963011384
0.0234295260161161
0.0188106968998909
0.0131285805255174
0.0066392966546118
-0.0003072163090109
-0.0073075061663985
-0.0139487143605947
-0.0198508203029632
-0.0247050076723098
-0.028301877900958
-0.030541319400072
-0.0314267538487911
-0.0310515537858009
-0.029579970985651
-0.027225162833929
-0.0242291186004877
-0.0208445899188518
-0.0173155050724744
-0.0138568924739956
-0.0106374602764844
-0.0077666621655225
-0.00528962071985
-0.0031900275498628
-0.0013978350907564
0.0001955246552824
0.0017117597162723
0.0032592676579952
0.0049184523522853
0.0067404881119728
0.0087499991059303
0.0109450127929449
0.0132979322224855
0.0157606955617666
0.0182709246873855
0.020757270976901
0.0231458842754364
0.0253684148192405
0.0273692421615123
0.0291104093194007
0.0305724795907735
0.0317431613802909
0.0325875654816627
0.0330141261219978
0.0328611023724079
0.031914584338665
0.0299510583281517
0.0267904996871948
0.0223455857485532
0.0166545491665601
0.0098910592496395
0.0023519124370068
-0.0055744890123605
-0.0134543050080537
-0.0208591409027576
-0.0274100024253129
-0.0328079797327518
-0.0368525013327598
-0.039449855685234
-0.040611159056425
-0.0404392965137958
-0.039108507335186
-0.036840833723545
-0.0338825248181819
-0.0304826721549034
-0.0268745888024568
-0.0232597813010215
-0.0197953097522258
-0.0165854468941688
-0.0136790545657277
-0.0110735315829515
-0.0087227374315261
-0.0065465969964861
-0.004446055740118
-0.0023250635713338
-0.0001110080629587
0.0022357236593961
0.0047234203666448
0.0073351021856069
0.0100336475297808
0.0127680050209164
0.0154828457161784
0.0181268453598022
0.0206541940569877
0.0230199210345745
0.0251682139933109
0.0270112250000238
0.0284087490290403
0.0291676465421915
0.0290630236268043
0.0278714690357446
0.0254156980663537
0.0216152407228946
0.0165244471281766
0.0103440219536423
0.0034046657383441
-0.0038716816343367
-0.0110241621732711
-0.0176068097352981
-0.0232338551431894
-0.0276132393628358
-0.0305648408830165
-0.0320219174027442
-0.0320221297442913
-0.0306937173008918
-0.0282393768429756
-0.0249199066311121
-0.0210346691310405
-0.0168938282877206
-0.0127844382077455
-0.0089404210448265
-0.0055235223844647
-0.0026140548288822
-0.0002125836908817
0.0017459271475672
0.0033722226507961
0.0048024291172623
0.006177351810038
0.0076238461770117
0.009242445230484
0.011100823059678
0.013227772898972
0.0156084559857845
0.0181883424520492
0.0208841543644666
0.0235945731401443
0.0262070596218109
0.0285934023559093
0.0305921584367752
0.0319947190582752
0.0325531624257564
0.0320125669240951
0.0301588382571935
0.0268687605857849
0.0221493616700172
0.0161573905497789
0.0091951638460159
0.0016805659979581
-0.0059076431207358
-0.0130927758291363
-0.0194512121379375
-0.0246467031538486
-0.0284499619156122
-0.0307445041835308
-0.0315232872962951
-0.030879845842719
-0.0289938300848007
-0.0261114258319139
-0.0225217938423156
-0.0185298845171928
-0.014428274706006
-0.0104704368859529
-0.0068466393277049
-0.0036707590334117
-0.0009835106320679
0.0012360557448118
0.0030576952267438
0.0045855497010052
0.005941960029304
0.0072512095794081
0.0086257355287671
0.0101543962955474
0.0118924472481012
0.0138571262359619
0.0160300098359584
0.0183613561093807
0.0207710228860378
0.0231424979865551
0.025311067700386
0.0270529445260763
0.0280871838331222
0.0281040836125612
0.0268212892115116
0.024048376828432
0.0197366923093795
0.0140039762482047
0.0071325446479022
-0.0004596086218953
-0.008270707912743
-0.0157786272466182
-0.0225018374621868
-0.028045617043972
-0.0321283116936683
-0.0345905423164367
-0.0353956967592239
-0.034628190100193
-0.0324848964810371
-0.0292529016733169
-0.0252753533422946
-0.0209110789000988
-0.0164961144328117
-0.0123132476583123
-0.0085692042484879
-0.0053808046504855
-0.0027745615225285
-0.0006988057866692
0.0009573964052833
0.0023415863979607
0.0036132079549133
0.0049217599444091
0.0063914498314261
0.0081082265824079
0.0101076811552047
0.0123728355392813
0.0148446392267942
0.0174369998276233
0.0200489126145839
0.0225670468062162
0.0248549990355968
0.0267360173165798
0.0279836021363735
0.0283332131803035
0.0275197196751832
0.0253323819488286
0.021669702604413
0.0165786780416965
0.0102697350084781
0.0030997237190604
-0.0044759539887309
-0.0119644273072481
-0.0188913606107234
-0.0248453244566917
-0.0295087620615959
-0.0326753631234169
-0.0342574566602706
-0.0342863388359546
-0.0329042822122573
-0.0303458329290151
-0.0269099697470664
-0.0229281671345233
-0.0187317077070474
-0.0146195171400904
-0.0108293760567903
-0.0075199664570391
-0.0047676940448582
-0.0025719015393406
-0.0008642056491225
0.000475465785712
0.0015958319418132
0.0026492225006222
0.0037711805198341
0.00506660528481
0.0066012516617774
0.0083997631445527
0.0104500539600849
0.0127101931720972
0.0151138566434383
0.0175716169178485
0.019963951781392
0.0221239011734724
0.0238207131624221
0.0247659496963024
0.0246524550020694
0.0232157427817583
0.0202966183423995
0.0158868692815303
0.0101479012519121
0.0033991960808634
-0.0039191376417875
-0.0113005377352237
-0.0182325951755046
-0.0242528803646564
-0.0289905667304992
-0.0321908555924892
-0.0337260290980339
-0.0336001217365264
-0.0319477617740631
-0.0290189795196056
-0.0251474846154451
-0.0207092389464378
-0.016079107299447
-0.0115915443748235
-0.0075105121359229
-0.0040115569718182
-0.0011740484042093
0.0010172210168093
0.0026579168625175
0.0038988422602415
0.0049169831909239
0.0058910478837788
0.0069821835495531
0.0083132563158869
0.0099490713328123
0.0118907634168863
0.0140881901606917
0.0164592787623405
0.0189046785235404
0.0213132258504629
0.0235564056783914
0.0254735797643661
0.0268592368811368
0.0274677146226167
0.0270413737744092
0.0253558494150638
0.0222712717950344
0.0177769586443901
0.0120172956958413
0.0052876714617013
-0.0020018517971038
-0.0093803573399782
-0.0163711924105882
-0.0225409008562564
-0.0275360234081745
-0.0311068501323461
-0.0331200882792472
-0.0335610173642635
-0.032527856528759
-0.0302185770124197
-0.0269085764884948
-0.022921435534954
-0.0185948051512241
-0.0142431613057851
-0.0101249972358345
-0.006425199098885
-0.0032523295376449
-0.0006403801962733
0.0014479113742709
0.0031113082077354
0.0044910684227943
0.0057455259375274
0.0070253061130642
0.0084532462060451
0.0101098166778683
0.0120264226570725
0.0141877979040145
0.0165413562208414
0.0190091636031866
0.0214978884905576
0.0239028185606002
0.0260987151414155
0.0279176831245422
0.0291350297629833
0.0294833108782768
0.0286920871585607
0.0265401490032672
0.0229099318385124
0.0178305655717849
0.0114933308213949
0.0042361170053482
-0.0034936820156872
-0.0111912358552217
-0.0183559097349643
-0.024547379463911
-0.0294222049415111
-0.0327521152794361
-0.0344337299466133
-0.0344919078052043
-0.0330702364444732
-0.0304076299071311
-0.0268078111112117
-0.0226062703877687
-0.0181370247155427
-0.0137021588161587
-0.0095462286844849
-0.0058380579575896
-0.0026640973519533
-3.374720108695328e-05
0.0021081108134239
0.003864643163979
0.0053686629980802
0.0067644692026078
0.0081873461604118
0.0097417356446385
0.0114881470799446
0.0134422527626156
0.0155801596119999
0.0178459007292985
0.0201606955379247
0.02243223041296
0.0245564803481102
0.0264060534536838
0.0278134644031524
0.0285661071538925
0.0284235589206218
0.0271573923528194
0.024603322148323
0.0207079574465751
0.0155543014407157
0.0093609187752008
0.0024608867242932
-0.0047322972677648
-0.011769451200962
-0.0182157568633556
-0.0236948747187852
-0.0279190056025981
-0.0307059548795223
-0.0319867581129074
-0.0318033434450626
-0.030296292155981
-0.0276858657598495
-0.0242490172386169
-0.0202931277453899
-0.0161254480481147
-0.0120213907212018
-0.0082005560398101
-0.0048139439895749
-0.0019393325783312
0.0004169992171227
0.0023123098071664
0.0038523224648088
0.0051698707975447
0.0064018974080681
0.0076688826084136
0.0090588983148336
0.0106189735233783
0.0123556405305862
0.0142421759665012
0.0162273682653903
0.0182389784604311
0.0201726630330085
0.0218705814331769
0.0231122970581054
0.0236329790204763
0.0231642052531242
0.0214847587049007
0.0184700936079025
0.0141303772106766
0.0086261695250868
0.0022566486150026
-0.0045746564865112
-0.0114090563729405
-0.0177878458052873
-0.0233016312122344
-0.027625823393464
-0.0305414963513612
-0.0319465026259422
-0.0318599119782447
-0.0304152853786945
-0.0278398059308528
-0.0244236476719379
-0.0204859469085931
-0.0163419805467128
-0.0122737372294068
-0.0085065495222806
-0.0051934756338596
-0.0024069231003522
-0.0001402669586241
0.0016782500315457
0.003164445515722
0.0044574746862053
0.005701613612473
0.0070256013423204
0.0085199857130646
0.0102249477058649
0.0121336495503783
0.0142028396949172
0.0163630153983831
0.0185223743319511
0.0205588452517986
0.022304592654109
0.0235406402498483
0.0240145847201347
0.0234781522303819
0.0217339340597391
0.0186811611056327
0.0143516147509217
0.0089250728487968
0.002713993191719
-0.0038795862346887
-0.0104180816560983
-0.0164784640073776
-0.0216921269893646
-0.0257718749344348
-0.028526421636343
-0.0298672690987586
-0.0298109147697687
-0.0284730922430753
-0.0260533839464187
-0.0228131376206874
-0.0190483145415782
-0.0150578618049621
-0.0111108887940645
-0.0074198748916387
-0.004127805121243
-0.0013091688742861
0.001023051678203
0.0029085117857903
0.0044274902902543
0.0056869806721806
0.0068072373978793
0.0079071931540966
0.009088228456676
0.010420941747725
0.0119397155940532
0.0136447148397564
0.0155063662678003
0.0174676515161991
0.01944225654006
0.0213084872812032
0.0228990390896797
0.0239942148327827
0.0243351254612207
0.023662207648158
0.0217677541077137
0.0185481086373329
0.0140402186661958
0.0084304390475153
0.0020366250537335
-0.0047287964262068
-0.0114094670861959
-0.0175606720149517
-0.0227969884872436
-0.0268242470920085
-0.0294551588594913
-0.0306132175028324
-0.0303325653076171
-0.0287547204643487
-0.0261136814951896
-0.0227062031626701
-0.018854696303606
-0.0148710645735263
-0.0110264383256435
-0.0075293211266398
-0.0045118508860468
-0.0020241918973624
-3.992556594312191e-05
0.001528518856503
0.0028101822827011
0.0039530396461486
0.0050989971496164
0.0063632214441895
0.0078215841203928
0.0095037147402763
0.0113930329680442
0.0134364254772663
0.0155599061399698
0.0176836904138326
0.0197324361652135
0.021637950092554
0.0233304779976606
0.0247196406126022
0.0256767179816961
0.0260302200913429
0.0255802012979984
0.0241329483687877
0.0215494316071271
0.0177910011261701
0.0129440445452928
0.0072165760211646
0.0009154523722827
-0.0055870339274406
-0.0118940314278006
-0.0176253635436296
-0.0224526077508926
-0.0261256713420152
-0.028488827869296
-0.0294882543385028
-0.0291735231876373
-0.0276892855763435
-0.0252556484192609
-0.0221424736082553
-0.018639663234353
-0.0150244003161787
-0.0115354135632514
-0.0083600580692291
-0.0056246742606163
-0.003385117277503
-0.0016266548773273
-0.0002749940613284
0.0007855533622205
0.0016899763140827
0.0025727255269885
0.0035521236713975
0.0047168899327516
0.0061171744018793
0.0077623492106795
0.0096248816698789
0.0116503071039915
0.0137701211497187
0.0159083735197782
0.0179774183779954
0.0198683701455593
0.021441837772727
0.0225242152810096
0.0229164995253086
0.0224176086485385
0.0208604056388139
0.0181533489376306
0.0143133699893951
0.009479833766818
0.00390738947317
-0.0020618014968931
-0.0080401105806231
-0.0136376498267054
-0.0184971056878566
-0.0223247651010751
-0.0249221175909042
-0.0262041892856359
-0.0261953622102737
-0.025014404207468
-0.02285822853446
-0.0199820902198553
-0.0166741795837879
-0.013225401751697
-0.0098968241363763
-0.006892283912748
-0.0043429974466562
-0.0023036301136016
-0.0007565133273601
0.0003790131304413
0.0012315661879256
0.0019519297638908
0.0026807310059666
0.0035250657238066
0.0045515755191445
0.0057903723791241
0.0072416756302118
0.0088802650570869
0.0106590846553444
0.0125161241739988
0.0143811032176017
0.0161732155829668
0.0177890714257955
0.0190890710800886
0.0198918730020523
0.0199870318174362
0.019170057028532
0.0172873325645923
0.0142735103145241
0.0101759610697627
0.005163655616343
-0.0004845982184633
-0.0064105400815606
-0.0122183486819267
-0.017519848421216
-0.0219743028283119
-0.0253184996545314
-0.027385713532567
-0.028113342821598
-0.0275423433631658
-0.0258104875683784
-0.0231349989771842
-0.0197828412055969
-0.0160403009504079
-0.0121910022571682
-0.0084953224286437
-0.0051640854217112
-0.0023341667838394
-5.906354635953903e-05
0.0016849692910909
0.0029846944380551
0.0039698486216366
0.0047892639413475
0.0055891573429107
0.00649572070688
0.0076003316789865
0.00894979480654
0.0105471787974238
0.0123624950647354
0.0143430931493639
0.0164175238460302
0.0184973292052745
0.0204780530184507
0.022233061492443
0.0236016549170017
0.0243848711252212
0.024360055103898
0.0233152210712432
0.0210947226732969
0.0176418237388134
0.0130248237401247
0.0074393097311258
0.0011877674842253
-0.0053531248122453
-0.0117687033489346
-0.0176486633718013
-0.0226347614079713
-0.0264592636376619
-0.0289644245058298
-0.030104799196124
-0.0299365948885679
-0.0285997688770294
-0.026297764852643
-0.023276487365365
-0.019802302122116
-0.0161387976258993
-0.0125233624130487
-0.0091465022414922
-0.0061380416154861
-0.0035602981224656
-0.0014068139716982
0.0003876416012644
0.0019237813539803
0.0033129621297121
0.0046611037105321
0.0060599287971854
0.0075798509642481
0.0092624761164188
0.0111163193359971
0.013118801638484
0.0152223631739616
0.0173631086945533
0.0194723550230264
0.0214877557009458
0.0233581326901912
0.0250391140580177
0.0264788791537284
0.0275944545865058
0.0282489005476236
0.0282494574785232
0.0273767970502376
0.025435110554099
0.0223030354827642
0.0179704576730728
0.0125554520636796
0.0063002910465002
-0.0004520388320088
-0.0072968639433383
-0.0138166155666112
-0.0196294132620096
-0.0244257394224405
-0.0279879290610551
-0.0301961954683065
-0.0310293510556221
-0.0305628813803195
-0.0289587974548339
-0.026445236057043
-0.0232905596494674
-0.0197762642055749
-0.0161710754036903
-0.0127062378451228
-0.0095539633184671
-0.0068149617873132
-0.0045173424296081
-0.0026250295341014
-0.0010534795001149
0.0003114026039838
0.0015961583703756
0.0029243389144539
0.004398085642606
0.0060799992643296
0.0079856319352984
0.0100879408419132
0.0123277269303798
0.0146272722631692
0.0169044509530067
0.0190821904689073
0.0210926756262779
0.0228819288313388
0.0244152750819921
0.0256746746599674
0.0266414806246757
0.0272699482738971
0.0274683963507413
0.0271019916981458
0.0260108709335327
0.0240339897572994
0.0210436433553695
0.0169888958334922
0.0119296805933117
0.0060472516342997
-0.0003701723180711
-0.006960391998291
-0.0133302360773086
-0.0191013738512992
-0.0239522233605384
-0.0276476107537746
-0.0300519652664661
-0.0311300605535507
-0.0309403259307146
-0.0296218153089284
-0.0273779742419719
-0.0244600176811218
-0.0211445279419422
-0.0177033841609954
-0.0143747581169009
-0.0113417003303766
-0.0087188854813575
-0.006548139732331
-0.004804266616702
-0.0034097994212061
-0.0022533119190484
-0.001207725610584
-0.000147921469761
0.0010335333645343
0.0024147641379386
0.0040389262139797
0.0059116035699844
0.0079988595098257
0.0102311950176954
0.012515683658421
0.0147505849599838
0.0168392397463321
0.0187030062079429
0.0202899575233459
0.0215752124786376
0.0225521177053451
0.0232158359140157
0.023541122674942
0.0234617032110691
0.0228642188012599
0.0216047130525112
0.0195446647703647
0.0165906529873609
0.0127218952402472
0.0080059329047799
0.0026048682630062
-0.0032326504588127
-0.009193480014801
-0.014933381229639
-0.020118698477745
-0.0244639851152896
-0.0277560018002986
-0.0298677328974008
-0.0307646319270133
-0.0305016078054904
-0.0292129851877689
-0.0270955134183168
-0.0243830569088459
-0.0213205032050609
-0.0181450806558132
-0.015070510096848
-0.0122686438262462
-0.009852803312242
-0.007868967950344
-0.0062977708876132
-0.0050660069100558
-0.0040634432807564
-0.0031626576092094
-0.0022407434880733
-0.0011974468361586
3.5550910979509354e-05
0.001492008799687
0.0031722637359052
0.0050486680120229
0.007071194704622
0.0091699790209531
0.0112614417448639
0.0132609708234667
0.0150949247181415
0.0167075600475072
0.018063835799694
0.0191464815288782
0.0199430137872695
0.0204237885773181
0.0205221343785524
0.0201289560645818
0.019106013700366
0.0173156782984733
0.0146616790443658
0.011128356680274
0.0068009560927748
0.001860624179244
-0.0034372438676655
-0.0087929610162973
-0.0138959353789687
-0.018456295132637
-0.0222310312092304
-0.0250422377139329
-0.0267875529825687
-0.0274442508816719
-0.0270674917846918
-0.0257828719913959
-0.0237720813602209
-0.0212515778839588
-0.0184473376721143
-0.0155708659440279
-0.0128023400902748
-0.0102817537263035
-0.0081028454005718
-0.0063061183318495
-0.0048753768205642
-0.0037447633221745
-0.0028151939623057
-0.0019739286508411
-0.0011128855403512
-0.0001427161623723
0.000998466508463
0.0023411200381815
0.0038839797489345
0.0055962651968002
0.0074249547906219
0.0093088401481509
0.0111896386370062
0.0130120115354657
0.0147211020812392
0.016266705468297
0.0176093820482492
0.0187187362462282
0.019560120999813
0.020076235756278
0.020175814628601
0.0197373889386653
0.0186282992362976
0.0167355984449386
0.0140014328062534
0.0104505028575658
0.0062019345350563
0.0014645908959209
-0.0034869292285293
-0.0083529530093073
-0.012848874554038
-0.0167310740798711
-0.0198112353682518
-0.0219650790095329
-0.0231370702385902
-0.0233400724828243
-0.0226491745561361
-0.0211924016475677
-0.0191408991813659
-0.0166952423751354
-0.014064660295844
-0.0114445034414529
-0.0089973658323287
-0.0068381805904209
-0.0050268899649381
-0.0035717659629881
-0.0024390146136283
-0.0015633646398782
-0.0008581716101616
-0.0002263176720589
0.0004276682157069
0.0011854406911879
0.002104131039232
0.0032109436579048
0.004505502525717
0.0059657134115695
0.0075523452833294
0.0092135099694132
0.0108916256576776
0.0125299105420708
0.0140695190057158
0.0154338786378502
0.0165132880210876
0.0171649698168039
0.0172290131449699
0.0165540650486946
0.0150287179276347
0.0126116210594773
0.0093513606116175
0.0053922082297503
0.0009638790506869
-0.0036451513879001
-0.0081234201788902
-0.0121720368042588
-0.0155343161895871
-0.0180150363594293
-0.019492020830512
-0.0199259761720895
-0.0193646103143692
-0.0179353151470422
-0.0158280171453952
-0.0132707003504037
-0.0105012021958827
-0.0077416570857167
-0.0051785260438919
-0.0029466338455677
-0.001118557062
0.000296464189887
0.001344955060631
0.0021161967888474
0.0027253534644842
0.0032954243943095
0.0039389845915138
0.0047394833527505
0.0057379435747861
0.0069328155368566
0.0082916757091879
0.0097652962431311
0.0112976636737585
0.0128329591825604
0.0143204033374786
0.0157133061438798
0.0169581025838851
0.0179762095212936
0.0186511259526014
0.0188309606164693
0.0183489955961704
0.0170593913644552
0.0148735763505101
0.0117837013676762
0.0078738220036029
0.00331961363554
-0.0016263087745755
-0.0066621652804315
-0.011471495963633
-0.0157566908746957
-0.0192679911851882
-0.0218251515179872
-0.0233283322304487
-0.0237598568201065
-0.0231806933879852
-0.0217208247631788
-0.0195608492940664
-0.0169084332883358
-0.0139786163344979
-0.0109801571816205
-0.008101156912744
-0.005491878837347
-0.003249792382121
-0.0014121113345026
4.1632913053035736e-05
0.0011793039739131
0.0021009044721722
0.0029196497052907
0.0037440252490341
0.0046645854599773
0.0057449005544185
0.0070167565718293
0.0084819523617625
0.0101201813668012
0.0118953986093401
0.0137557284906506
0.0156321339309215
0.0174392126500606
0.0190733857452869
0.0204066894948482
0.021282885223627
0.0215228758752346
0.0209439191967248
0.0193939115852117
0.0167908705770969
0.013152303174138
0.0086064049974083
0.0033841060940176
-0.0022039916366338
-0.0078005194664001
-0.0130441281944513
-0.017616556957364
-0.0212762560695409
-0.0238713193684816
-0.025340873748064
-0.0257095247507095
-0.025073068216443
-0.0235792770981788
-0.0214103125035762
-0.0187686327844858
-0.0158629678189754
-0.0128905121237039
-0.0100184166803956
-0.00737065076828
-0.0050195157527923
-0.002980520017445
-0.0012179212644696
0.0003354977816343
0.0017568906769156
0.0031219907104969
0.0045004375278949
0.0059503121301531
0.0075118341483175
0.0092036994174122
0.0110226515680551
0.0129451900720596
0.0149321602657437
0.016935808584094
0.0189059525728225
0.0207918174564838
0.0225354768335819
0.0240558441728353
0.0252307038754224
0.0258886367082595
0.0258207656443119
0.0248151831328868
0.0227062217891216
0.0194221194833517
0.0150148700922727
0.0096651231870055
0.0036633482668548
-0.0026273429393768
-0.0088180182501673
-0.0145388375967741
-0.0194736830890178
-0.0233841277658939
-0.0261215679347515
-0.0276255421340465
-0.0279172770678997
-0.0270966924726963
-0.0253343284130096
-0.0228503309190273
-0.0198880247771739
-0.0166908726096153
-0.0134813748300075
-0.0104400115087628
-0.0076893689110875
-0.0052881175652146
-0.0032338555902242
-0.0014729080721735
8.34055244922638e-05
0.0015399092808365
0.0030019041150808
0.0045635048300027
0.0062952199950814
0.0082307169213891
0.0103621771559119
0.0126474434509873
0.0150215458124876
0.017408026382327
0.0197293162345886
0.0219155680388212
0.0239118710160255
0.0256829466670751
0.0272126514464616
0.0284935198724269
0.0295045934617519
0.0301842298358678
0.0304126217961311
0.0300187487155199
0.028809268027544
0.0266048945486545
0.0232808794826269
0.0188093110918998
0.0132873710244894
0.0069388095289468
9.025540202856064e-05
-0.0068699643015861
-0.0135409720242023
-0.0195550136268138
-0.0246116332709789
-0.0284972600638866
-0.031091883778572
-0.0323690474033355
-0.0323908515274524
-0.0312948562204837
-0.0292771905660629
-0.0265769232064485
-0.0234565772116184
-0.0201760325580835
-0.0169655010104179
-0.0140031483024358
-0.0113996900618076
-0.009191732853651
-0.0073469346389174
-0.0057802880182862
-0.0043764300644397
-0.0030125938355922
-0.0015773884952068
1.626182347536087e-05
0.0018238853663206
0.0038677321281284
0.0061368234455585
0.0085860826075077
0.0111400410532951
0.0137057658284902
0.0161885060369968
0.0185027197003364
0.0205801520496606
0.0223770830780267
0.0238769575953483
0.0250855591148138
0.0260190516710281
0.0266838278621435
0.0270506665110588
0.0270340703427791
0.0264899358153343
0.0252366084605455
0.0230911150574684
0.0199101902544498
0.0156313609331846
0.0103044910356402
0.004101525992155
-0.0026976419612765
-0.0097367679700255
-0.0166248232126235
-0.0229800269007682
-0.028468869626522
-0.0328349806368351
-0.0359152257442474
-0.0376439243555069
-0.0380495078861713
-0.0372449345886707
-0.035410538315773
-0.0327742062509059
-0.0295937601476907
-0.0261361207813024
-0.0226500052958726
-0.0193391442298889
-0.01634350605309
-0.0137316724285483
-0.0115032754838466
-0.0095999166369438
-0.0079234335571527
-0.0063565503805875
-0.0047812368720769
-0.0030953334644436
-0.001226533204317
0.000862521585077
0.0031780190765857
0.0056969593279063
0.008365225046873
0.0111019909381866
0.0138126043602824
0.0164031293243169
0.0187931451946496
0.0209240764379501
0.0227607581764459
0.0242904797196388
0.0255222264677286
0.0264804325997829
0.0271875951439142
0.0276382863521575
0.0277745239436626
0.0274762194603681
0.0265746377408504
0.0248823575675487
0.0222302041947841
0.0185095518827438
0.0137135200202465
0.0079599628224968
0.0014865444973111
-0.0053761494345963
-0.012245032005012
-0.0187311843037605
-0.0244817566126585
-0.0292099490761756
-0.0327140763401985
-0.0348877944052219
-0.0357225239276886
-0.0353010445833206
-0.033780787140131
-0.031373705714941
-0.0283303800970315
-0.0249230191111564
-0.0214196257293224
-0.0180528573691844
-0.0149948606267571
-0.0123441852629184
-0.0101222060620784
-0.0082800444215536
-0.0067181456834077
-0.0053109647706151
-0.0039280108176171
-0.0024509297218173
-0.0007883454672992
0.0011151576181873
0.0032779863104224
0.0056828549131751
0.0082776295021176
0.0109808780252933
0.0136948330327868
0.0163206253200769
0.0187699105590581
0.020972479134798
0.0228813383728265
0.0244750212877988
0.0257560573518276
0.0267453007400035
0.0274727195501327
0.0279626529663801
0.0282102711498737
0.0281571559607982
0.0276835598051548
0.0266219936311244
0.024784006178379
0.0219984613358974
0.0181586556136608
0.0132641801610589
0.0074436599388718
0.0009511560201644
-0.0058645107783377
-0.0126079842448234
-0.0188880767673254
-0.0243601892143487
-0.0287560187280178
-0.0318995043635368
-0.0337121710181236
-0.0342120118439197
-0.0335048846900463
-0.0317698530852794
-0.0292434766888618
-0.0262000076472759
-0.0229231771081686
-0.0196749530732631
-0.0166683979332447
-0.0140478704124689
-0.0118793882429599
-0.0101537853479385
-0.0088009284809231
-0.0077078882604837
-0.0067362841218709
-0.0057414937764406
-0.0045949071645736
-0.0032016215845942
-0.0015070649096742
0.0005022197728976
0.0027963661123067
0.0053034573793411
0.0079220589250326
0.0105410506948828
0.013056905940175
0.0153851155191659
0.0174674931913614
0.0192730799317359
0.0207892507314682
0.022004397585988
0.0228852499276399
0.0233549885451793
0.0232849232852458
0.0225114002823829
0.0208754166960716
0.0182658247649669
0.0146494898945093
0.0100889634341001
0.0047507444396615
-0.0011018556542694
-0.0071348035708069
-0.0129819307476282
-0.0182864479720592
-0.02273890376091
-0.0261061564087867
-0.0282468609511852
-0.0291155017912387
-0.0287615060806274
-0.0273231919854879
-0.0250090658664703
-0.0220679193735122
-0.0187621731311082
-0.0153492391109466
-0.0120618063956499
-0.0090853841975331
-0.0065395692363381
-0.0044675627723336
-0.0028386269696056
-0.0015636621974408
-0.0005161731969565
0.0004463943187147
0.0014605586184188
0.0026364168152213
0.0040446929633617
0.0057136323302984
0.0076346416026353
0.0097723510116338
0.0120708514004945
0.0144554153084754
0.0168376509100198
0.0191253740340471
0.0212321244180202
0.0230820924043655
0.0246055852621793
0.0257235430181026
0.0263303183019161
0.0262879878282547
0.0254373103380203
0.023623252287507
0.0207319315522909
0.0167313776910305
0.0117028662934899
0.0058508086949586
-0.000515948748216
-0.0070270071737468
-0.0132995629683136
-0.018980411812663
-0.0237779468297958
-0.0274816788733005
-0.029968935996294
-0.031203206628561
-0.0312279313802719
-0.0301566664129495
-0.0281602088361978
-0.0254513379186391
-0.0222663544118404
-0.0188434794545173
-0.0154005624353885
-0.012115029618144
-0.0091109331697225
-0.006456728093326
-0.0041691432707011
-0.0022179167717695
-0.0005330583080649
0.0009833704680204
0.0024418616667389
0.0039486945606768
0.00559020973742
0.0074204569682478
0.0094558242708444
0.0116776674985885
0.0140386428683996
0.0164697878062725
0.018891118466854
0.021226692944765
0.0234151799231767
0.0254085604101419
0.0271662063896656
0.0286521427333354
0.0298291817307472
0.0306414552032947
0.0309917796403169
0.0307311974465847
0.0296727884560823
0.0276281554251909
0.0244543645530939
0.0200966857373714
0.0146164055913686
0.0081987660378217
0.0011418857611715
-0.0061709033325314
-0.0133168064057827
-0.019891669973731
-0.0255596134811639
-0.0300791785120964
-0.0333103276789188
-0.0352114588022232
-0.0358293578028678
-0.0352838486433029
-0.0337490290403366
-0.0314327031373977
-0.0285576097667217
-0.0253463089466094
-0.022006893530488
-0.0187178011983633
-0.0156134730204939
-0.0127746053040027
-0.0102288220077753
-0.0079610180109739
-0.0059234807267785
-0.0040430384688079
-0.002231715247035
-0.000402140431106
0.0015188166871666
0.0035832128487527
0.0058189239352941
0.0082260034978389
0.0107755009084939
0.0134148616343736
0.0160778854042291
0.0186940468847751
0.0211954116821289
0.0235231071710586
0.0256317704916
0.0274891722947359
0.0290739722549915
0.0303744133561849
0.031383391469717
0.0320829935371875
0.032420564442873
0.0322900675237178
0.0315324217081069
0.0299576688557863
0.0273830685764551
0.0236794352531433
0.0188145134598016
0.0128797376528382
0.006094261072576
-0.0012136464938521
-0.008648588322103
-0.0158042088150978
-0.0223119556903839
-0.0278713703155517
-0.0322662815451622
-0.0353709645569324
-0.0371487811207771
-0.0376455821096897
-0.0369779355823993
-0.0353181473910808
-0.0328786745667457
-0.0298955515027046
-0.026609044522047
-0.0232418607920408
-0.0199783220887184
-0.0169471129775047
-0.0142132621258497
-0.0117852455005049
-0.0096298130229115
-0.0076840156689286
-0.0058649140410125
-0.004080032929778
-0.0022391262464225
-0.0002676439471542
0.0018807011656463
0.0042175343260169
0.0067219585180282
0.0093492725864052
0.0120412586256861
0.0147333554923534
0.0173606630414724
0.0198652818799018
0.0221987310796976
0.0243173129856586
0.0261807292699813
0.0277581047266721
0.0290335230529308
0.0300068035721778
0.0306919142603874
0.0311116743832826
0.0312819518148899
0.0311846174299716
0.0307412184774875
0.0298036430031061
0.0281708464026451
0.0256298724561929
0.0220107641071081
0.0172395575791597
0.0113708823919296
0.0045895185321569
-0.0028116879984736
-0.0104652270674705
-0.0179695710539817
-0.0249328315258026
-0.0310117043554782
-0.0359411612153053
-0.0395524203777313
-0.0417772345244884
-0.0426400527358055
-0.0422441810369491
-0.0407567024230957
-0.0383919104933738
-0.0353916957974433
-0.0320029109716415
-0.0284566357731819
-0.0249545890837907
-0.0216580629348754
-0.018674336373806
-0.0160460229963064
-0.013751657679677
-0.0117183933034539
-0.0098412185907363
-0.0080037768930196
-0.00609707320109
-0.0040343301370739
-0.0017625452019274
0.000732050742954
0.0034272386692464
0.0062734982930123
0.0092053916305303
0.0121525917202234
0.0150443390011787
0.0178096666932106
0.0203817915171384
0.0227055959403514
0.0247424561530351
0.0264722686260938
0.0278940368443727
0.0290243495255708
0.0298932436853647
0.0305378958582878
0.0309950523078441
0.0312902890145778
0.0314204767346382
0.0313323065638542
0.0309062078595161
0.0299559291452169
0.0282523576170206
0.0255711153149604
0.021750021725893
0.016737338155508
0.0106186922639608
0.0036198319867253
-0.0039154351688921
-0.0115692596882581
-0.0189039036631584
-0.0255129337310791
-0.0310613140463829
-0.0353103578090667
-0.0381297916173934
-0.0394994094967842
-0.0394984297454357
-0.0382884666323661
-0.0360983833670616
-0.033206183463335
-0.0299124419689178
-0.026509067043662
-0.0232479646801948
-0.0203138161450624
-0.0178084131330251
-0.0157508049160242
-0.0140891633927822
-0.0127188758924603
-0.0115037271752953
-0.01029709354043
-0.0089620677754282
-0.0073879328556358
-0.0054997308179736
-0.003265086794272
-0.0007009364198893
0.0021274164319038
0.0051190163940191
0.0081563647836446
0.0111245866864919
0.013925421051681
0.0164843928068876
0.0187538303434848
0.0207121204584836
0.0223567318171262
0.023687781766057
0.0246817599982023
0.0252649113535881
0.0253038369119167
0.0246243458241224
0.0230498388409614
0.0204426273703575
0.0167412851005792
0.0119901690632104
0.0063535934314131
0.000109049025923
-0.0063816108740866
-0.0127174789085984
-0.018508069217205
-0.0234154071658849
-0.0271829273551702
-0.0296505782753229
-0.0307595059275627
-0.0305493455380201
-0.0291476100683212
-0.0267515070736408
-0.0236081667244434
-0.0199964959174394
-0.0162047054618597
-0.012499701231718
-0.0090959910303354
-0.0061355661600828
-0.0036815553903579
-0.0017213784158229
-0.0001767063513398
0.0010804869234561
0.0022061606869101
0.003359189722687
0.0046779443509876
0.0062622530385851
0.0081649171188473
0.0103929918259382
0.012909423559904
0.0156325027346611
0.0184449702501297
0.021216370165348
0.0238269697874784
0.0261830203235149
0.028221383690834
0.0299022607505321
0.0311868973076343
0.0320068225264549
0.0322423838078975
0.0317235440015792
0.0302548967301845
0.0276592504233121
0.0238294322043657
0.0187743753194808
0.0126412622630596
0.005704628303647
-0.0016666128067299
-0.00905148871243
-0.0160245168954134
-0.0222019366919994
-0.0272773746401071
-0.0310424752533435
-0.0333933979272842
-0.0343265496194362
-0.0339279249310493
-0.0323602966964244
-0.0298474989831447
-0.0266528911888599
-0.0230531990528106
-0.0193104390054941
-0.015647817403078
-0.0122361127287149
-0.0091879069805145
-0.0065538557246327
-0.0043226387351751
-0.0024286266416311
-0.0007674526423215
0.000783622264862
0.0023463480174541
0.0040266616269946
0.0059030870907008
0.0080184349790215
0.010377156548202
0.0129487868398427
0.0156758800148963
0.0184835828840732
0.0212866142392158
0.0239930003881454
0.0265109091997146
0.028761213645339
0.0306853633373975
0.032236024737358
0.0333517789840698
0.0339299626648426
0.0338134281337261
0.0328015126287937
0.0306849125772714
0.0272949356585741
0.0225545931607484
0.0165186878293752
0.0093909986317157
0.0015116657596081
-0.0066849552094936
-0.0147323152050375
-0.0221922155469656
-0.028696333989501
-0.0339698866009712
-0.0378425382077693
-0.0402469225227832
-0.0412091352045536
-0.0408355519175529
-0.039296705275774
-0.0368092767894268
-0.0336175672709941
-0.0299751590937376
-0.0261255353689193
-0.0222806483507156
-0.0186016075313091
-0.0151895694434642
-0.0120892953127622
-0.0092977993190288
-0.0067720785737037
-0.0044386675581336
-0.0022074468433856
1.411326229572296e-05
0.0023099677637219
0.0047465027309954
0.0073645189404487
0.0101740816608071
0.0131531590595841
0.0162495672702789
0.0193866472691297
0.0224741660058498
0.0254233814775943
0.0281583648175001
0.0306183211505413
0.032757606357336
0.0345477797091007
0.0359749272465705
0.0370259620249271
0.0376648977398872
0.0378064401447773
0.0373013876378536
0.0359485745429992
0.0335339829325675
0.0298842638731002
0.0249191056936979
0.0186883267015218
0.0113853383809328
0.0033354102633893
-0.0050417901948094
-0.0132889710366725
-0.0209692493081092
-0.0277102123945951
-0.0332301445305347
-0.0373485721647739
-0.0399859398603439
-0.0411563515663147
-0.0409562736749649
-0.0395514890551567
-0.0371609069406986
-0.0340370088815689
-0.0304457712918519
-0.0266445688903331
-0.0228575393557548
-0.0192541219294071
-0.0159381236881017
-0.0129508031532168
-0.0102819204330444
-0.0078804241493344
-0.0056649642065167
-0.0035371659323573
-0.0013974145986139
0.0008394357282668
0.0032332786358892
0.0058145700022578
0.0085829049348831
0.0115065071731805
0.0145253799855709
0.017561174929142
0.0205321386456489
0.023365618661046
0.0260011069476604
0.028385380282998
0.03046883828938
0.0322088785469532
0.0335796065628528
0.0345814414322376
0.0352419316768646
