bvp
0.0093330796808004
0.0112454127520322
0.0131408404558897
0.0149472765624523
0.0166114754974842
0.0181010235100984
0.0194011870771646
0.0205076318234205
0.0214111991226673
0.0220743138343095
0.0224122125655412
0.0222951788455247
0.0215713549405336
0.0200962200760841
0.0177609380334615
0.0145205752924084
0.0104173142462968
0.0055892774835228
0.0002612578682601
-0.00527985394001
-0.0107179451733827
-0.0157437808811664
-0.0200899224728345
-0.0235556215047836
-0.0260175094008445
-0.0274296049028635
-0.0278163459151983
-0.0272602532058954
-0.0258868038654327
-0.023853700608015
-0.0213449317961931
-0.018557921051979
-0.0156814344227314
-0.0128757506608963
-0.0102614033967256
-0.0079135932028293
-0.0058597959578037
-0.0040827016346156
-0.0025292127393186
-0.0011218241415917
0.0002292552962899
0.0016120122745633
0.0030989367514848
0.004739393480122
0.0065588867291808
0.0085580218583345
0.0107073867693543
0.0129463206976652
0.0151931643486022
0.017362430691719
0.0193790346384048
0.021186027675867
0.0227469932287931
0.0240414068102836
0.0250495430082082
0.0257291570305824
0.0259963851422071
0.0257246475666761
0.0247642211616039
0.0229770988225936
0.0202780105173587
0.0166654158383607
0.0122306207194924
0.0071501438505947
0.0016693669604137
-0.0039218924939632
-0.009319913573563
-0.0142392218112945
-0.0184412766247987
-0.0217530243098735
-0.0240726973861455
-0.0253674685955047
-0.0256678666919469
-0.0250594373792409
-0.0236718095839023
-0.0216659437865018
-0.0192192867398262
-0.0165121033787727
-0.0137175982818007
-0.0109902024269104
-0.0084502790123224
-0.0061738155782222
-0.0041902554221451
-0.0024845614098012
-0.0010039019398391
0.0003294493071734
0.0016019525937736
0.0028934832662343
0.0042657274752855
0.00575632462278
0.0073785670101642
0.0091250175610184
0.0109738791361451
0.0128933368250727
0.0148403877392411
0.0167606957256793
0.0185941979289054
0.0202818997204303
0.0217712391167879
0.0230193566530942
0.0239881165325641
0.0246268808841705
0.0248527731746435
0.024546280503273
0.0235688537359237
0.0217924825847148
0.0191314443945884
0.0155730005353689
0.0111989974975585
0.006185857579112
0.0007816911675035
-0.0047265733592212
-0.0100458413362503
-0.0149065116420388
-0.0190843623131513
-0.0224122367799282
-0.0247859545052051
-0.0261662416160106
-0.0265755951404571
-0.026091756299138
-0.0248381905257701
-0.0229717958718538
-0.0206701643764972
-0.0181169603019952
-0.0154840685427188
-0.0129166711121797
-0.0105260014533996
-0.0083858696743845
-0.0065294099040329
-0.004947536624968
-0.0035922150127589
-0.0023871508892625
-0.0012441440485417
-7.801991887390614e-05
0.0011833329917863
0.0025905561633408
0.0041659800335764
0.0059027029201388
0.0077692926861345
0.0097169764339923
0.0116884661838412
0.0136246783658862
0.015466408804059
0.0171570368111133
0.0186493881046772
0.0199087262153625
0.0209039282053709
0.0215879827737808
0.021879106760025
0.0216571651399135
0.0207816269248724
0.0191243309527635
0.0166040211915969
0.0132125727832317
0.0090291015803813
0.004221910610795
-0.000962630379945
-0.0062275500968098
-0.0112664699554443
-0.0158033017069101
-0.0196156911551952
-0.0225433930754661
-0.024491973221302
-0.0254360344260931
-0.025417823344469
-0.0245388820767402
-0.0229488480836153
-0.0208327379077672
-0.0183939561247825
-0.0158340651541948
-0.0133332377299666
-0.0110326698049902
-0.0090194717049598
-0.0073213153518736
-0.0059168031439185
-0.0047529065050184
-0.0037587487604469
-0.0028549837879836
-0.0019614975899457
-0.0010053839068859
7.094349712133408e-05
0.001303378609009
0.0027025151066482
0.0042534065432846
0.0059199356473982
0.0076537770219147
0.009403764270246
0.0111220302060246
0.0127678401768207
0.0143051212653517
0.0156859587877988
0.0168272424489259
0.0176003240048885
0.0178420897573232
0.0173804461956024
0.0160675477236509
0.0138160455971956
0.0106278425082564
0.0066056326031684
0.0019470748957246
-0.0030752383172512
-0.0081468615680933
-0.0129502853378653
-0.0171960070729255
-0.0206418484449386
-0.0231092441827058
-0.024500485509634
-0.0248079970479011
-0.0241086855530738
-0.0225475206971168
-0.0203169770538806
-0.0176355391740798
-0.0147266332060098
-0.0117977019399404
-0.0090202102437615
-0.0065151723101735
-0.0043473038822412
-0.0025264518335461
-0.0010146312415599
0.0002627065405249
0.0014031019527465
0.0025104405358433
0.0036755185574293
0.0049613732844591
0.0063983919098973
0.007985733449459
0.0096965609118342
0.0114864613860845
0.0133022395893931
0.0150897484272718
0.0168009307235479
0.0183979980647563
0.0198533497750759
0.0211460143327713
0.0222529452294111
0.0231337752193212
0.0237143151462078
0.0238771941512823
0.0234662666916847
0.0223089531064033
0.0202544592320919
0.0172166749835014
0.0132067082449793
0.0083445822820067
0.0028494396246969
-0.0029846681281924
-0.0088221225887537
-0.0143259344622492
-0.0191969536244869
-0.0232025552541017
-0.026191808283329
-0.0280971322208642
-0.0289240013808012
-0.028737248852849
-0.0276524852961301
-0.0258280131965875
-0.0234494153410196
-0.0207111164927482
-0.0178011208772659
-0.0148866605013608
-0.012099259532988
-0.0095245372503995
-0.0072003416717052
-0.0051219048909842
-0.0032511795870959
-0.0015274700708687
0.0001211683265864
0.0017676232382655
0.0034786635078489
0.0053051058202981
0.0072674080729484
0.0093491915613412
0.0115045979619026
0.0136702191084623
0.0157747194170951
0.0177482161670923
0.0195328723639249
0.0210906527936458
0.0224043373018503
0.0234714671969413
0.0242913849651813
0.024845777079463
0.0250778961926698
0.0248833075165748
0.0241234563291072
0.022655364125967
0.0203625671565532
0.0171844903379678
0.0131424767896533
0.0083527714014053
0.0030206446535885
-0.0025826669298112
-0.0081520341336727
-0.0133808581158518
-0.0179929696023464
-0.0217711739242076
-0.0245721749961376
-0.0263267531991004
-0.0270346608012914
-0.02675686404109
-0.025603475049138
-0.023722980171442
-0.021295441314578
-0.0185217782855033
-0.0156049104407429
-0.0127287376672029
-0.0100406808778643
-0.0076391790062189
-0.0055680219084024
-0.0038185322191566
-0.0023375945165753
-0.0010403059422969
0.0001741331070661
0.0014054598286747
0.0027355067431926
0.0042164493352174
0.0058694751933217
0.0076872715726494
0.0096334684640169
0.0116469813510775
0.0136551205068826
0.0155862607061862
0.0173774398863315
0.0189760439097881
0.0203292854130268
0.02136274240911
0.021964531391859
0.0219883546233177
0.0212755519896745
0.0196906384080648
0.0171594526618719
0.0136974165216088
0.0094204060733318
0.0045342347584664
-0.0006929310038685
-0.0059640062972903
-0.0109854079782962
-0.0154936518520116
-0.0192722752690315
-0.0221622474491596
-0.0240692030638456
-0.0249657891690731
-0.0248883049935102
-0.0239292755722999
-0.0222275778651237
-0.0199571549892425
-0.0173127613961696
-0.0144894123077392
-0.011658763512969
-0.0089539038017392
-0.0064675267785787
-0.0042547853663563
-0.0023340224288403
-0.0006870930083096
0.0007374011911451
0.0020146998576819
0.0032286453060805
0.004455710761249
0.0057531064376235
0.0071538062766194
0.0086673079058527
0.0102814566344022
0.0119647681713104
0.0136707462370395
0.0153380297124385
0.0168787259608507
0.0181618817150592
0.0190103724598884
0.0192208271473646
0.0186011716723442
0.0170133244246244
0.0144086284562945
0.0108473571017384
0.0064979679882526
0.0016169745940715
-0.0034844956826418
-0.008478426374495
-0.0130544882267713
-0.0169486105442047
-0.0199617967009544
-0.02196641638875
-0.0229077748954296
-0.0228074919432401
-0.0217612199485301
-0.0199247915297746
-0.0174940098077058
-0.0146831823512911
-0.0117030106484889
-0.0087404288351535
-0.0059446096420288
-0.0034188735298812
-0.0012164958752691
0.0006584702059626
0.0022434466518461
0.0036038549151271
0.0048196054995059
0.0059756506234407
0.007151823490858
0.0084087289869785
0.0097776781767606
0.011260068975389
0.0128319701179862
0.0144512103870511
0.0160664767026901
0.017622759565711
0.0190554838627576
0.0202743466943502
0.0211494676768779
0.0215131547302007
0.0211812816560268
0.0199894960969686
0.0178349949419498
0.0147113632410764
0.0107223019003868
0.0060688229277729
0.0010199616663157
-0.0041197463870048
-0.0090417833998799
-0.0134639833122491
-0.0171545557677745
-0.0199444144964218
-0.0217320807278156
-0.0224878247827291
-0.0222541578114032
-0.0211378000676631
-0.0192955676466226
-0.016918247565627
-0.0142119424417614
-0.0113758770748972
-0.0085830753669142
-0.0059707411564886
-0.0036351289600133
-0.0016266189049929
4.927738336846232e-05
0.0014242681208997
0.0025586879346519
0.0035323649644851
0.0044328165240585
0.0053431084379553
0.0063315937295556
0.0074424468912184
0.0086890226230025
0.010054918937385
0.0115030817687511
0.012988512404263
0.0144668295979499
0.0158928390592336
0.0172117240726947
0.0183466058224439
0.0191861577332019
0.0195829272270202
0.0193697083741426
0.0183890648186206
0.0165272839367389
0.0137448664754629
0.0100955879315733
0.005728960968554
0.0008763903751969
-0.0041741407476365
-0.0091087250038981
-0.0136193763464689
-0.0174365118145942
-0.0203585922718048
-0.0222690552473068
-0.0231376569718122
-0.0230137817561626
-0.022016242146492
-0.0203179121017456
-0.0181248933076858
-0.0156548339873552
-0.0131173739209771
-0.0106950178742408
-0.0085261231288313
-0.0066950311884284
-0.0052307709120213
-0.004111080430448
-0.0032684789039194
-0.0026030414737761
-0.0020057410001754
-0.0013808668591082
-0.0006563127972185
0.0002148188650608
0.00125427916646
0.0024593388661742
0.0038071894086897
0.0052620465867221
0.0067794858478009
0.0083041032776236
0.0097594056278467
0.0110359229147434
0.0119886957108974
0.0124502964317798
0.0122573282569646
0.0112804509699344
0.009449073113501
0.0067710559815168
0.0033444482833147
-0.0006463178433477
-0.0049494048580527
-0.0092740766704082
-0.0133227128535509
-0.0168212428689003
-0.0195454806089401
-0.0213402062654495
-0.0221293568611145
-0.0219195205718278
-0.0207955725491046
-0.0189053565263748
-0.0164373572915792
-0.0136006325483322
-0.0106107760220766
-0.0076742898672819
-0.0049664676189422
-0.0026107656303793
-0.0006679751677438
0.0008637143764644
0.0020398483611643
0.0029538739472627
0.0037169819697737
0.0044393641874194
0.0052165975794196
0.0061201397329568
0.0071916654706001
0.0084433518350124
0.0098634827882051
0.0114211058244109
0.0130651667714118
0.0147217381745576
0.0162926223129034
0.0176527053117752
0.0186470001935958
0.0190966334193944
0.0188214480876922
0.0176751781255006
0.0155798634514212
0.0125478794798254
0.0086888177320361
0.0042023379355669
-0.0006435194518417
-0.0055442070588469
-0.0101920310407876
-0.014307202771306
-0.0176648907363414
-0.0201133880764246
-0.0215799715369939
-0.0220667161047458
-0.0216400250792503
-0.0204165279865264
-0.0185482464730739
-0.0162083748728036
-0.013577552512288
-0.0108310598880052
-0.0081269294023513
-0.0055943564511835
-0.0033228595275431
-0.0013534831814467
0.0003244043327867
0.0017638024874031
0.0030387295410037
0.0042242160998284
0.0053862910717725
0.0065767578780651
0.0078283064067363
0.0091532105579972
0.0105472402647137
0.0119948219507932
0.0134728029370307
0.0149539439007639
0.0164085235446691
0.0177976954728364
0.0190567634999752
0.0200804490596056
0.0207254942506551
0.0208291336894035
0.0202324651181697
0.0188076179474592
0.0164884179830551
0.0132947536185383
0.0093410862609744
0.0048272763378918
1.6584177501499653e-05
-0.004794186912477
-0.0093098888173699
-0.0132708055898547
-0.0164758451282978
-0.0187928378582
-0.0201589670032262
-0.0205741394311189
-0.0200915839523077
-0.0188119541853666
-0.0168813839554786
-0.0144846756011247
-0.0118271363899111
-0.0091101508587598
-0.0065091121941804
-0.0041568703018128
-0.0021331363823264
-0.0004616328515112
0.0008850982412695
0.0019751884974539
0.0029011357109993
0.0037599497009068
0.004636961966753
0.0055980808101594
0.0066888369619846
0.007932798936963
0.0093254959210753
0.0108321346342563
0.0123958801850676
0.0139514170587062
0.0154358297586441
0.0167930647730827
0.0179690551012754
0.0188961345702409
0.0194760803133249
0.0195774342864751
0.0190520044416189
0.0177649054676294
0.0156304612755775
0.0126425735652446
0.0088888648897409
0.0045443321578204
-0.000153808388859
-0.0049396427348256
-0.0095480317249894
-0.01373634301126
-0.0172999687492847
-0.0200832448899745
-0.0219865664839744
-0.0229694433510303
-0.0230499766767025
-0.0223017390817403
-0.0208471696823835
-0.0188458431512117
-0.0164790656417608
-0.0139315435662865
-0.0113694816827774
-0.0089234309270977
-0.0066839614883065
-0.0047036292962729
-0.0029975597281008
-0.0015454350505024
-0.0002988375490531
0.0008083907887339
0.0018500256119295
0.0028966225218027
0.0040042758919298
0.0052064796909689
0.0065111722797155
0.0079043926671147
0.0093592014163732
0.0108444169163703
0.0123295933008193
0.0137844225391745
0.0151727190241217
0.016443757340312
0.0175226107239723
0.0183041058480739
0.018657699227333
0.0184433851391077
0.0175331830978393
0.0158351175487041
0.0133176892995834
0.0100286109372973
0.0060996199026703
0.0017345459200441
-0.0028150954749435
-0.0072775864973664
-0.0113853570073843
-0.0149009749293327
-0.0176455937325954
-0.0195170920342206
-0.0204902850091457
-0.0206056274473667
-0.0199552569538354
-0.01867001876235
-0.0169068370014429
-0.014835488051176
-0.012626270763576
-0.01043744944036
-0.0083997584879398
-0.0066022989340126
-0.0050857621245086
-0.0038434858433902
-0.0028285705484449
-0.0019677653908729
-0.0011818384518846
-0.0004027709364891
0.0004202496493235
0.0013214678037911
0.0023193673696368
0.0034163771197199
0.0045997677370905
0.0058456715196371
0.0071239485405385
0.0083999997004866
0.0096295112743973
0.0107455719262361
0.0116476118564605
0.012204791419208
0.0122755290940403
0.0117322178557515
0.0104824211448431
0.0084882862865924
0.0057842433452606
0.0024849118199199
-0.0012229294516146
-0.0051008504815399
-0.0088852532207965
-0.0123166292905807
-0.0151674505323171
-0.017263725399971
-0.0184983592480421
-0.0188364759087562
-0.0183135215193033
-0.0170263331383466
-0.0151189090684056
-0.0127686616033315
-0.0101747624576091
-0.0075411805883049
-0.0050511769950389
-0.0028431210666894
-0.0009979561436921
0.0004631049232557
0.0015740940580144
0.0024113096296787
0.0030743880197405
0.0036679189652204
0.0042863320559263
0.0050019519403576
0.0058574271388351
0.0068666040897369
0.0080233933404088
0.0093084089457988
0.0106877870857715
0.0121109066531062
0.013510943390429
0.014803621917963
0.0158812347799539
0.0166080147027969
0.0168274007737636
0.0163841675966978
0.0151550145819783
0.013078624382615
0.0101762684062123
0.006556901615113
0.0024072309024631
-0.0020280969329178
-0.0064714881591498
-0.0106424856930971
-0.0142911802977323
-0.0172239579260349
-0.0193139053881168
-0.0205016080290079
-0.020793005824089
-0.0202532839030027
-0.0189952217042446
-0.0171654727309942
-0.0149320987984538
-0.0124713340774178
-0.0099524613469839
-0.0075236344709992
-0.0052992640994489
-0.0033486653119325
-0.0016896734014153
-0.0002936339005827
0.0008974643424153
0.0019513287115842
0.0029331645928323
0.0039018858224153
0.0049088522791862
0.0059938202612102
0.0071793682873249
0.008468072861433
0.0098445210605859
0.0112810982391238
0.012743366882205
0.014191398397088
0.0155746806412935
0.0168219599872827
0.0178336165845394
0.0184805132448673
0.0186093263328075
0.0180609468370676
0.0167045406997203
0.0144735425710678
0.0113888876512646
0.0075668329373002
0.003211660310626
-0.001407548203133
-0.0059918668121099
-0.0102512361481785
-0.0139375384896993
-0.0168638750910758
-0.0189110003411769
-0.0200269576162099
-0.020222071558237
-0.0195635352283716
-0.0181718897074461
-0.0162126049399375
-0.0138791557401418
-0.0113707650452852
-0.0088686095550656
-0.0065165529958903
-0.0044107809662818
-0.002597025129944
-0.0010743709281086
0.0001941896043717
0.0012680571526288
0.0022175186313688
0.0031154958996921
0.0040317205712199
0.0050289137288928
0.0061557199805974
0.0074346531182527
0.0088558867573738
0.0103833097964525
0.0119654443114995
0.0135445334017276
0.0150636984035372
0.0164712816476821
0.017717694863677
0.0187435820698738
0.0194667931646108
0.0197775922715663
0.0195472985506057
0.0186501946300268
0.016993785277009
0.0145489713177084
0.0113676730543375
0.007579818367958
0.0033750892616808
-0.0010206777369603
-0.0053684059530496
-0.0094353798776865
-0.0130119221284985
-0.0159257315099239
-0.0180530603975057
-0.0193262938410043
-0.0197375565767288
-0.0193375013768672
-0.0182291567325592
-0.0165559221059083
-0.0144829042255878
-0.0121782394126057
-0.0098019791767001
-0.0074981502257287
-0.0053829625248909
-0.0035331940744072
-0.0019814847037196
-0.0007180706597864
0.000302979722619
0.0011533150682225
0.0019173100590705
0.0026787419337779
0.0035088525619357
0.0044572409242391
0.0055472571402788
0.0067764203995466
0.0081206643953919
0.0095420815050601
0.010995571501553
0.0124299693852663
0.0137908840551972
0.0150295663625001
0.0161094684153795
0.0170047469437122
0.0176917612552642
0.0181342083960771
0.0182671658694744
0.0179930496960878
0.0171955358237028
0.0157646536827087
0.0136239528656005
0.0107541503384709
0.0072099762037396
0.0031257634982466
-0.0012958860024809
-0.0058112819679081
-0.0101682702079415
-0.0141338407993316
-0.0175132974982261
-0.0201621055603027
-0.0219918563961982
-0.0229719616472721
-0.0231285132467746
-0.0225397180765867
-0.0213264338672161
-0.0196390561759471
-0.0176436584442853
-0.015506986528635
-0.0133777614682912
-0.0113682802766561
-0.0095478016883134
-0.0079495888203382
-0.0065786438062787
-0.0054136202670633
-0.0044091641902923
-0.0035048029385507
-0.0026383774820715
-0.0017554375808686
-0.0008109645568765
0.0002303498331457
0.0013901445781812
0.0026712389662861
0.004055677447468
0.0055085169151425
0.0069870762526988
0.008450599387288
0.0098639484494924
0.0111953448504209
0.0124140996485948
0.0134901786223053
0.0143909836187958
0.0150720505043864
0.0154662104323506
0.0154807651415467
0.0150073915719985
0.0139426691457629
0.0122149344533681
0.0098095200955867
0.0067822588607668
0.0032578697428107
-0.0005813930183649
-0.0045122671872377
-0.0082952696830034
-0.011707111261785
-0.0145676545798778
-0.016751566901803
-0.0181889869272708
-0.0188634451478719
-0.0188082233071327
-0.0180989634245634
-0.016845703125
-0.0151866748929023
-0.013278966769576
-0.0112833119928836
-0.0093458909541368
-0.0075814272277057
-0.0060607930645346
-0.0048046745359897
-0.003788354806602
-0.0029594923835247
-0.0022573068272322
-0.0016221951227635
-0.0009981369366869
-0.0003352899220772
0.000405322323786
0.0012481923913583
0.0022024828940629
0.0032634353265166
0.0044152326881885
0.0056335125118494
0.0068863932974636
0.0081339199095964
0.0093259532004594
0.0103982193395495
0.0112655237317085
0.0118173351511359
0.0119260586798191
0.0114693883806467
0.0103587061166763
0.0085639208555221
0.0061273407191038
0.0031644466798752
-0.0001472462899982
-0.0035888450220227
-0.0069245733320713
-0.0099250813946127
-0.0123894438147544
-0.0141644831746816
-0.0151568725705146
-0.0153379254043102
-0.0147458845749497
-0.0134847918525338
-0.0117120090872049
-0.0096149006858468
-0.0073858276009559
-0.0051999813877046
-0.0031979924533516
-0.0014746652450412
-7.35411886125803e-05
0.0010103995446115
0.0018200611229985
0.0024244938977062
0.0029099942184984
0.0033694726880639
0.00388859747909
0.0045357402414083
0.0053564016707241
0.0063652591779828
0.0075399111956357
0.0088266190141439
0.0101558957248926
0.0114579340443015
0.0126719949766993
0.0137465745210647
0.0146290715783834
0.0152525780722498
0.015531051903963
0.0153650036081671
0.0146555472165346
0.0133256968110799
0.0113437213003635
0.0087408265098929
0.0056152534671127
0.0021205199882388
-0.0015540441963821
-0.0052035618573427
-0.0086279138922691
-0.0116488365456461
-0.0141202053055167
-0.0159346032887697
-0.0170302484184503
-0.017396105453372
-0.0170710738748312
-0.0161368902772665
-0.0147076481953263
-0.012918896973133
-0.0109161855652928
-0.0088396221399307
-0.0068080872297286
-0.0049131852574646
-0.0032204727176576
-0.0017678302247077
-0.0005616801790893
0.0004224262665957
0.0012336520012468
0.0019377011340111
0.0026072049513459
0.0033091693185269
0.0040939953178167
0.0049911951646208
0.0060102152638137
0.0071430131793022
0.008368344977498
0.0096586123108863
0.0109833013266325
0.0123023223131895
0.0135544780641794
0.0146485362201929
0.0154598308727145
0.0158386658877134
0.0156333334743976
0.0147199034690856
0.0130288582295179
0.0105623323470354
0.0073994705453515
0.0036912369541823
-0.0003541460901033
-0.0044936197809875
-0.0084742037579417
-0.0120563209056854
-0.0150369638577103
-0.0172717198729515
-0.0186866745352745
-0.0192758962512016
-0.0190920550376176
-0.0182357244193553
-0.0168411470949649
-0.0150588154792785
-0.0130405947566032
-0.010929157026112
-0.0088487118482589
-0.0068962341174483
-0.005134638864547
-0.0035895542241632
-0.0022497493773698
-0.0010710367932915
1.2138858437538149e-05
0.0010670567862689
0.0021452414803206
0.0032758887391537
0.004469261970371
0.0057235099375247
0.0070295697078108
0.0083736712113022
0.0097378566861152
0.0110992491245269
0.0124317230656743
0.0137100452557206
0.0149114523082971
0.0160137731581926
0.0169922262430191
0.0178115852177143
0.018410250544548
0.0186864919960498
0.0185048785060644
0.0177245866507291
0.0162346735596656
0.0139829823747277
0.0109925707802176
0.0073661040514707
0.0032798729371279
-0.0010344752809032
-0.0053189271129667
-0.0093211503699421
-0.0128222880885005
-0.0156554337590932
-0.017711617052555
-0.0189372804015874
-0.0193335618823766
-0.0189599711447954
-0.0179320871829986
-0.016406163573265
-0.0145568745210766
-0.0125557063147425
-0.0105525851249694
-0.008663848042488
-0.0069670747034251
-0.0054989736527204
-0.0042559951543807
-0.0032005938701331
-0.0022727877367287
-0.0014032940380275
-0.0005234433338046
0.0004307134076952
0.0015129169914871
0.0027527599595487
0.0041442587971687
0.0056492956355214
0.0072112018242478
0.008768942207098
0.0102673405781388
0.0116624254733324
0.0129234865307807
0.0140338130295276
0.0149901751428842
0.0157991610467433
0.0164679884910583
0.0169894341379404
0.0173265077173709
0.0174065362662076
0.0171266086399555
0.0163656286895275
0.0150054125115275
0.0129628330469131
0.0102210622280836
0.0068463534116744
0.0029865182004868
-0.0011467672884464
-0.0053064273670315
-0.0092429807409644
-0.0127351330593228
-0.0156101714819669
-0.0177520774304866
-0.0191028267145156
-0.019660884514451
-0.0194758307188749
-0.0186412129551172
-0.0172883290797472
-0.0155754880979657
-0.0136703709140419
-0.0117315491661429
-0.0098930550739169
-0.0082523198798298
-0.0068625966086983
-0.0057321544736623
-0.004829813260585
-0.0040938658639788
-0.0034436315763741
-0.0027932785451412
-0.0020658534485846
-0.0012034527026116
-0.000170235231053
0.0010455852607265
0.0024254033342003
0.0039198617450892
0.0054617612622678
0.0069823157973587
0.0084217069670557
0.0097332159057259
0.0108786094933748
0.0118138846009969
0.012473989278078
0.012768262065947
0.0125907165929675
0.0118412086740136
0.0104510355740785
0.0084072696045041
0.0057693137787282
0.0026680342853069
-0.0007150473538786
-0.0041748168878257
-0.0075033521279692
-0.01050606649369
-0.0130160404369235
-0.0149047607555985
-0.0160894580185413
-0.0165384989231824
-0.0162737183272838
-0.0153673253953456
-0.0139340348541736
-0.0121211046352982
-0.010094123892486
-0.0080149481073021
-0.0060185235925018
-0.0042012096382677
-0.0026223021559417
-0.0013085126411169
-0.0002547359326854
0.0005754134617745
0.0012438726844266
0.0018269382417201
0.0024029228370636
0.0030419777613133
0.0037974980659782
0.0046990583650767
0.0057492400519549
0.006926474161446
0.0081931259483098
0.0095055252313613
0.0108224153518676
0.01210552547127
0.0133095225319266
0.0143691981211304
0.0151909850537776
0.0156518910080194
0.0156111558899283
0.014934548176825
0.0135228373110294
0.0113370791077613
0.0084155015647411
0.0048773167654871
0.0009123580530285
-0.0032414032611995
-0.0073268036358058
-0.0110947210341691
-0.0143251763656735
-0.0168453771620988
-0.0185472257435321
-0.0193968918174505
-0.019430061802268
-0.0187379010021686
-0.0174507033079862
-0.0157222971320152
-0.013715486973524
-0.0115875517949461
-0.0094767417758703
-0.0074913399294018
-0.0057036527432501
-0.0041500255465507
-0.002832593396306
-0.0017197905108332
-0.0007498911581933
0.0001553853508085
0.0010696786921471
0.0020470903255045
0.0031199096702039
0.0043022902682423
0.0055931415408849
0.0069759455509483
0.008418115787208
0.0098757315427064
0.0113033978268504
0.0126615958288311
0.0139190452173352
0.015054521150887
0.0160573869943618
0.0169221181422472
0.0176361463963985
0.018161991611123
0.0184199381619691
0.0182867441326379
0.0176172778010368
0.0162785407155752
0.0141837298870086
0.0113187301903963
0.0077544609084725
0.0036429027095437
-0.000799307366833
-0.0053154742345213
-0.009639230556786
-0.0135264974087476
-0.0167814642190933
-0.0192684717476367
-0.0209109168499708
-0.0216893181204795
-0.0216424465179443
-0.0208632387220859
-0.0194868501275777
-0.0176745355129241
-0.015595500357449
-0.0134097002446651
-0.0112553620710968
-0.009240991435945
-0.0074385115876793
-0.0058776997029781
-0.0045465854927897
-0.0034000822342932
-0.0023736199364066
-0.0013947519473731
-0.0003900497686117
0.0007052016444504
0.0019320815335959
0.0032994151115417
0.0047872117720544
0.0063561424612998
0.007958423346281
0.0095470435917377
0.0110805016010999
0.0125239947810769
0.0138495620340108
0.0150375198572874
0.0160779505968093
0.0169664677232503
0.0176913868635892
0.0182175505906343
0.0184776969254016
0.018374590203166
0.0177896190434694
0.0166017916053533
0.0147194266319274
0.0121119357645511
0.0088276481255888
0.0049939258024096
0.0008037772495299
-0.0035063482355326
-0.0076853586360812
-0.011497450992465
-0.0147461276501417
-0.0172898508608341
-0.0190488379448652
-0.0200022775679826
-0.0201788786798715
-0.0196496434509754
-0.0185257121920585
-0.0169511698186397
-0.0150867095217108
-0.0130909401923418
-0.011103693395853
-0.0092328712344169
-0.0075470372103154
-0.0060743037611246
-0.0048060584813356
-0.0037051842082291
-0.0027178057935088
-0.0017838146304711
-0.0008446582360193
0.0001498443307355
0.0012384932488203
0.0024480321444571
0.0037870276719331
0.0052381823770701
0.0067599262110888
0.0082973148673772
0.009794664569199
0.0112041039392352
0.0124891903251409
0.0136257763952016
0.0146018592640757
0.0154168987646698
0.0160791259258985
0.0165999718010425
0.0169870499521493
0.0172359813004732
0.01732013002038
0.0171791221946477
0.0167135559022426
0.0157976318150758
0.0143097899854183
0.0121664032340049
0.0093462113291025
0.0059045925736427
0.0019770814105868
-0.0022324598394334
-0.0064788372255861
-0.0105101568624377
-0.0140997655689716
-0.0170683152973651
-0.0192949958145618
-0.0207195673137903
-0.0213374495506286
-0.0211946219205856
-0.0203873291611671
-0.0190585646778345
-0.0173815321177244
-0.0155345108360052
-0.0136785339564085
-0.0119421444833278
-0.01041148789227
-0.0091259824112057
-0.0080814259126782
-0.0072391917929053
-0.0065376907587051
-0.0059026135131716
-0.005256266798824
-0.004527355544269
-0.0036583975888788
-0.0026115076616406
-0.0013758395798504
2.754799788817764e-05
0.0015489873476326
0.0031220277305692
0.0046790102496743
0.0061628306284546
0.0075319022871553
0.0087604774162173
0.0098358476534485
0.0107516162097454
0.0114957243204116
0.0120356027036905
0.0123083274811506
0.0122243650257587
0.0116865392774343
0.0106141436845064
0.0089611373841762
0.0067288959398865
0.0039762333035469
0.0008219282608479
-0.0025642095133662
-0.0059789926744997
-0.0092085693031549
-0.012052359059453
-0.0143431238830089
-0.0159606616944074
-0.0168394707143306
-0.0169718228280544
-0.0164063349366188
-0.0152399605140089
-0.0136041939258575
-0.0116523131728172
-0.0095497649163007
-0.0074603576213121
-0.0055265976116061
-0.0038513974286615
-0.0024868340697139
-0.0014327345415949
-0.0006444898899644
-4.574144259095192e-05
0.0004570025485008
0.0009589351247996
0.0015433130320161
0.0022719516418874
0.0031796926632523
0.0042736050672829
0.0055384705774486
0.0069431411102414
0.0084414836019277
0.009972988627851
0.0114699015393853
0.0128680877387523
0.0141145717352628
0.015167836099863
0.0159920249134302
0.0165480412542819
0.0167829953134059
0.0166220162063837
0.0159712582826614
0.0147367864847183
0.0128537928685545
0.0103143975138664
0.0071829883381724
0.0035924995318055
-0.0002754817251116
-0.0042130975052714
-0.0080042257905006
-0.0114439129829406
-0.0143589777871966
-0.0166219472885131
-0.0181558802723884
-0.0189335513859987
-0.0189754962921142
-0.0183481927961111
-0.017158567905426
-0.015543395653367
-0.0136559959501028
-0.0116482451558113
-0.0096493465825915
-0.0077536441385746
-0.0060227424837648
-0.0044917217455804
-0.0031712404452264
-0.0020471201278269
-0.001080498099327
-0.0002116807736456
0.000629236921668
0.0015088394284248
0.0024809062015265
0.0035805227234959
0.0048191309906542
0.0061829295009374
0.0076370313763618
0.0091353999450802
0.0106334388256073
0.012093897908926
0.0134815610945224
0.0147578157484531
0.0158845670521259
0.0168317183852195
0.0175799764692783
0.0181157700717449
0.0184177793562412
0.0184399746358394
0.018101941794157
0.0172949153929948
0.0159038137644529
0.0138389812782406
0.0110659627243876
0.0076243709772825
0.0036340854130685
-0.0007160662207752
-0.0051983129233121
-0.0095790512859821
-0.0136412754654884
-0.0171995256096124
-0.0201126877218484
-0.0222911480814218
-0.0236950796097517
-0.0243294518440961
-0.0242412071675062
-0.0235141944140195
-0.0222583673894405
-0.0205987505614757
-0.0186671670526266
-0.0165910366922616
-0.0144787281751632
-0.012411830946803
-0.0104473382234573
-0.0086209410801529
-0.0069476258940994
-0.0054217274300754
-0.0040186988189816
-0.0027010152116417
-0.0014249123632907
-0.0001440430060029
0.0011861259117722
0.0026007276028394
0.0041188555769622
0.0057416521012783
0.0074540581554174
0.0092283859848976
0.0110298637300729
0.0128200761973857
0.0145551040768623
0.0161863341927528
0.0176687650382518
0.0189680289477109
0.0200604125857353
0.0209263861179351
0.0215356834232807
0.0218293350189924
0.0217122603207826
0.0210631769150495
0.0197590067982673
0.0177067033946514
0.0148731023073196
0.0113047724589705
0.0071337823756039
0.0025645107962191
-0.002158154733479
-0.0067848917096853
-0.0110880983993411
-0.0148764383047819
-0.0180028621107339
-0.0203689169138669
-0.0219250544905662
-0.0226687602698802
-0.0226421300321817
-0.0219270698726177
-0.0206370372325181
-0.0189064312726259
-0.0168792642652988
-0.0146964285522699
-0.012480828911066
-0.0103273186832666
-0.0083024818450212
-0.0064475107938051
-0.0047791544348001
-0.0032893093302845
-0.0019442420452833
-0.00068792514503
0.0005473317578434
0.0018263477832078
0.0031982669606804
0.0046897982247173
0.006305284332484
0.0080299582332372
0.009833569638431
0.011676144786179
0.013515805825591
0.0153120243921875
0.0170223750174045
0.0186012685298919
0.0200056172907352
0.0212031304836273
0.022178266197443
0.0229328460991382
0.0234786048531532
0.023820586502552
0.0239345096051692
0.0237481836229562
0.0231409166008234
0.0219661965966224
0.020087793469429
0.0174167305231094
0.0139413448050618
0.0097399298101663
0.0049709207378327
-0.0001490500289946
-0.0053684855811297
-0.0104243159294128
-0.0150659214705228
-0.0190775040537118
-0.0222950000315904
-0.024616565555334
-0.0260060541331768
-0.0264880117028951
-0.0261382535099983
-0.0250761024653911
-0.0234562251716852
-0.0214527007192373
-0.0192359313368797
-0.0169554892927408
-0.0147356651723384
-0.0126733984798192
-0.0108313839882612
-0.0092314546927809
-0.0078537873923778
-0.0066444389522075
-0.0055291345342993
-0.0044271051883697
-0.0032630488276481
-0.0019772266969084
-0.0005321484059095
0.0010835987050086
0.0028554198797792
0.004748766310513
0.0067184385843575
0.0087151546031236
0.0106862615793943
0.0125752640888094
0.0143270399421453
0.0158975347876548
0.0172593891620636
0.0184001177549362
0.0193193983286619
0.0200276542454957
0.0205376353114843
0.0208450332283973
0.0209068022668361
0.0206306409090757
0.0198841206729412
0.0185241270810365
0.0164377149194479
0.0135757206007838
0.0099657112732529
0.0057095577940344
0.0009755589999258
-0.0040139146149158
-0.0090006384998559
-0.0137141924351453
-0.0178992971777915
-0.0213417150080204
-0.0238873064517974
-0.0254525132477283
-0.0260275900363922
-0.0256745889782905
-0.0245194025337696
-0.0227352157235145
-0.0205201841890811
-0.0180785935372114
-0.0156074427068233
-0.0132800471037626
-0.0112264193594455
-0.0095194298774003
-0.0081706373021006
-0.0071356832049787
-0.006328891031444
-0.0056429631076753
-0.0049666431732475
-0.0041972743347287
-0.0032511427998542
-0.0020736551377922
-0.0006460880395025
0.0010169567540287
0.0028786608017981
0.0048879464156925
0.0069782370701432
0.0090682338923215
0.0110731050372123
0.0129192750900983
0.0145529396831989
0.015935743227601
0.0170276202261447
0.0177664123475551
0.0180567018687725
0.0177758038043975
0.0167961157858371
0.0150159876793622
0.0123909413814544
0.0089587569236755
0.0048511857166886
0.0002838061191141
-0.0044754282571375
-0.0091434232890605
-0.0134515594691038
-0.0171660669147968
-0.020101485773921
-0.0221303049474954
-0.0231902133673429
-0.0232870504260063
-0.0224920008331537
-0.0209338553249835
-0.0187868643552064
-0.0162534769624471
-0.0135427638888359
-0.0108464499935507
-0.0083164777606725
-0.0060531473718583
-0.0041069574654102
-0.002484664786607
-0.0011539799161255
-4.988024011254311e-05
0.0009164637885987
0.0018461039289832
0.0028387028723955
0.0039791753515601
0.0053257071413099
0.0069020306691527
0.0086965793743729
0.0106669319793581
0.0127481520175933
0.0148649681359529
0.0169439334422349
0.0189193096011877
0.0207331292331218
0.0223356019705533
0.0236867032945156
0.024751977995038
0.0254866760224103
0.0258149709552526
0.0256207343190908
0.0247575268149375
0.0230736173689365
0.020447501912713
0.0168254803866148
0.0122467596083879
0.0068503366783261
0.0008692224510014
-0.0053869821131229
-0.0115678142756223
-0.0173329263925552
-0.0223972108215093
-0.0265519171953201
-0.029665183275938
-0.0316762998700141
-0.0325910001993179
-0.032475296407938
-0.0314456447958946
-0.0296580344438552
-0.0272971652448177
-0.0245631281286478
-0.021654175594449
-0.0187480449676513
-0.0159844793379306
-0.0134503468871116
-0.0111747859045863
-0.0091390991583466
-0.007292749825865
-0.0055659441277384
-0.003879246301949
-0.00215451605618
-0.0003260653465986
0.0016515254974365
0.0037982878275215
0.0061068222858011
0.0085458625108003
0.0110667366534471
0.013609305024147
0.0161086432635784
0.0185032188892364
0.0207434240728616
0.0227958895266056
0.0246396139264106
0.0262596011161804
0.0276421848684549
0.0287660043686628
0.0295848995447158
0.0300093255937099
0.0298988223075866
0.029075589030981
0.0273592006415128
0.024611547589302
0.0207779202610254
0.0159125719219446
0.0101827876642346
0.0038547595031559
-0.0027338284999132
-0.0092147625982761
-0.0152373220771551
-0.0205072909593582
-0.0248091910034418
-0.028013439849019
-0.0300710070878267
-0.0310028232634067
-0.0308908224105834
-0.0298680867999792
-0.0281047709286212
-0.0257926732301712
-0.0231298096477985
-0.0203030128031969
-0.0174702312797307
-0.0147477015852928
-0.0122048947960138
-0.009867625311017
-0.0077268271706998
-0.0057482030242681
-0.0038806162774562
-0.0020632110536098
-0.0002325866371393
0.0016671656630933
0.0036740242503583
0.005803829524666
0.008052259683609
0.0103982333093881
0.0128072705119848
0.0152347683906555
0.0176295116543769
0.0199388265609741
0.0221148487180471
0.0241189301013946
0.0259222649037837
0.0275043323636055
0.0288500785827636
0.0299419853836298
0.0307442266494035
0.0311837829649448
0.0311395209282636
0.0304490737617015
0.0289348904043436
0.0264424476772546
0.0228808317333459
0.0182553306221961
0.0126830358058214
0.0063886372372508
-0.0003173658624291
-0.0070761190727353
-0.0135267293080687
-0.0193467698991298
-0.0242777783423662
-0.0281377919018268
-0.0308253243565559
-0.0323168747127056
-0.0326599813997745
-0.0319642946124076
-0.0303910281509161
-0.0281389486044645
-0.025425961241126
-0.0224685687571764
-0.0194632466882467
-0.0165699757635593
-0.0138966627418994
-0.011492027901113
-0.0093538360670208
-0.0074435477145016
-0.0056977267377078
-0.004039061255753
-0.0023894100449979
-0.000681112636812
0.0011366605758666
0.003095454070717
0.0052057229913771
0.0074562225490808
0.0098167983815073
0.0122420471161603
0.0146741243079304
0.0170485358685255
0.0193037297576665
0.0213874969631433
0.0232567731291055
0.0248764641582965
0.0262207351624965
0.0272748749703168
0.0280323475599288
0.0284792836755514
0.0285691730678081
0.0282053351402282
0.0272453390061855
0.0255271345376968
0.0229085981845855
0.0193082019686698
0.0147352609783411
0.0093060201033949
0.0032441271468997
-0.0031411414965987
-0.0094983763992786
-0.0154820075258612
-0.0207888651639223
-0.0251807942986488
-0.0284961685538291
-0.0306544099003076
-0.0316568091511726
-0.031581811606884
-0.0305724181234836
-0.0288188997656106
-0.0265402067452669
-0.0239641889929771
-0.0213059913367033
-0.0187453255057334
-0.0164084509015083
-0.0143624581396579
-0.0126209324225783
-0.0111534819006919
-0.0098957745358347
-0.0087605211883783
-0.0076490580104291
-0.0064640562050044
-0.0051235314458608
-0.0035725105553865
-0.0017896983772516
0.0002106269821524
0.002383607905358
0.0046646329574286
0.0069789388217031
0.0092502925544977
0.011413007043302
0.0134203564375638
0.0152419582009315
0.0168549567461013
