bvp
-0.0021092956885695
-0.0011215079575777
-0.0003744689747691
0.0002653384581208
0.0009285314008593
0.0017282962799072
0.0027520162984728
0.0040574599988758
0.0056684138253331
0.0075692720711231
0.0097077954560518
0.0120087945833802
0.0143884867429733
0.0167607385665178
0.0190339274704456
0.0210986752063035
0.022812720388174
0.0239976271986961
0.0244550984352827
0.0239982232451438
0.022488884627819
0.0198723301291465
0.016201103106141
0.0116415936499834
0.0064564812928438
0.0009658761555328
-0.0044960337691009
-0.0096150189638137
-0.0141197042539715
-0.017795929685235
-0.0204949937760829
-0.0221362635493278
-0.0227059219032526
-0.0222555883228778
-0.0208996497094631
-0.0188059322535991
-0.016178673133254
-0.0132370088249444
-0.010189919732511
-0.0072113126516342
-0.004425608087331
-0.0019079910125583
0.0003084046766161
0.0022275454830378
0.0038876417092978
0.0053538577631115
0.0067053800448775
0.0080218156799674
0.0093721281737089
0.0108065782114863
0.0123519925400614
0.014009702950716
0.0157563425600528
0.017548955976963
0.0193343013525009
0.0210596695542335
0.0226787868887186
0.0241485070437192
0.0254203453660011
0.0264299381524324
0.0270816422998905
0.02723247744143
0.0266922023147344
0.0252506472170352
0.0227231606841087
0.0189969390630722
0.0140663078054785
0.0080491732805967
0.0011816322803497
-0.0062059015035629
-0.0137243997305631
-0.0209671501070261
-0.0275539010763168
-0.0331736207008361
-0.0376112163066864
-0.0407511219382286
-0.0425672531127929
-0.043110616505146
-0.0424983650445938
-0.0409014299511909
-0.0385276190936565
-0.0356033667922019
-0.0323568694293499
-0.0290000829845666
-0.0257088914513587
-0.0226077418774366
-0.0197633206844329
-0.0171855576336383
-0.0148377548903226
-0.0126556083559989
-0.010564649477601
-0.0084918551146984
-0.0063756201416254
-0.0041729914955794
-0.0018618288449943
0.000559868523851
0.0030755123589187
0.0056521957740187
0.0082441102713346
0.0107986433431506
0.0132650192826986
0.0156011981889605
0.0177762974053621
0.0197691898792982
0.0215571876615285
0.0230883434414863
0.0242525599896907
0.0248755011707544
0.0247396491467952
0.0236243456602096
0.0213556978851556
0.0178526956588029
0.0131571143865585
0.0074415262788534
0.0009940071031451
-0.0058168014511466
-0.012587278150022
-0.0189241804182529
-0.0244801137596368
-0.0289756078273057
-0.0322132408618927
-0.0340903177857399
-0.0346061028540134
-0.033855453133583
-0.0320101901888847
-0.0292949881404638
-0.0259621497243642
-0.022267859429121
-0.0184504725039005
-0.01471231225878
-0.0112083833664655
-0.00804053992033
-0.0052531706169247
-0.0028333626687526
-0.0007200161926448
0.0011806413531303
0.0029764636419713
0.0047687892802059
0.006635257974267
0.0086226733401417
0.0107485949993133
0.013004956766963
0.0153607968240976
0.0177664812654256
0.0201612692326307
0.0224819388240575
0.024669412523508
0.0266734194010496
0.0284541230648756
0.0299738906323909
0.0311770197004079
0.0319693014025688
0.0322087034583091
0.031711034476757
0.0302770305424928
0.027740616351366
0.0240208748728036
0.0191573332995176
0.0133199607953429
0.0067945993505418
-5.1287002861499786e-05
-0.0068131536245346
-0.0130939707159996
-0.0185432378202676
-0.0228868834674358
-0.0259452667087316
-0.0276389401406049
-0.0279844794422388
-0.0270883534103631
-0.0251421872526407
-0.0224078930914402
-0.0191863235086202
-0.015779910609126
-0.0124609544873237
-0.0094488151371479
-0.0068942424841225
-0.0048695905134081
-0.0033673397265374
-0.0023111647460609
-0.0015783007256686
-0.0010239749681204
-0.0005007977597415
0.0001254042144864
0.0009622322395443
0.0020811231806874
0.0035103582777082
0.0052327159792184
0.0071919951587915
0.0093079740181565
0.011493382975459
0.0136635797098279
0.0157341565936803
0.0176056250929832
0.0191406589001417
0.0201521888375282
0.020416485145688
0.0197066273540258
0.0178350284695625
0.0146967275068163
0.0103051830083131
0.0048077311366796
-0.0015270458534359
-0.0083417035639286
-0.0152301546186208
-0.0217796228826046
-0.0276089031249284
-0.0323986709117889
-0.0359118618071079
-0.0380052700638771
-0.0386355780065059
-0.0378590747714042
-0.0358226783573627
-0.0327474623918533
-0.0289061740040779
-0.024595396593213
-0.0201040618121624
-0.0156849380582571
-0.0115372035652399
-0.0077974908053874
-0.0045341299846768
-0.0017479183152318
0.0006186449900269
0.0026663979515433
0.0045203110203146
0.0063085313886404
0.0081443022936582
0.0101134125143289
0.01226675696671
0.0146170426160097
0.017140919342637
0.0197890289127826
0.0224999710917472
0.0252080559730529
0.0278411842882633
0.0303117707371711
0.0325017571449279
0.0342472791671752
0.0353357270359993
0.0355230271816253
0.0345688983798027
0.0322827659547328
0.0285710338503122
0.0234731044620275
0.0171734411269426
0.0099864937365055
0.002321658656001
-0.0053617837838828
-0.0126021169126033
-0.0189824551343917
-0.0241736136376857
-0.027960117906332
-0.0302432291209697
-0.031030137091875
-0.0304194670170545
-0.0285853520035743
-0.0257592499256134
-0.0222088508307933
-0.0182139314711093
-0.0140424435958266
-0.0099300872534513
-0.0060635656118392
-0.0025689583271741
0.0004942547529935
0.0031335512176156
0.0054127983748912
0.0074301995337009
0.0092949820682406
0.0111106354743242
0.0129648540169
0.0149225844070315
0.0170199833810329
0.0192621927708387
0.0216263737529516
0.0240676794201135
0.0265262369066476
0.0289339907467365
0.0312190763652324
0.0333012007176876
0.035076554864645
0.0364035964012146
0.0370976403355598
0.0369368642568588
0.0356887243688106
0.0331573486328125
0.029235728085041
0.0239456091076135
0.0174545627087354
0.0100660435855388
0.0021864725276827
-0.0057222442701458
-0.0131959058344364
-0.0198168270289897
-0.0252495966851711
-0.0292615965008735
-0.0317305289208889
-0.0326430052518844
-0.0320900455117225
-0.0302585866302251
-0.0274120029062032
-0.0238605737686157
-0.0199284180998802
-0.0159207079559564
-0.0120959347113966
-0.0086474269628524
-0.0056932680308818
-0.0032729969825595
-0.0013526185648515
0.0001613991335034
0.0014012327883392
0.0025129951536655
0.003634279128164
0.0048803770914673
0.0063353520818054
0.0080410558730363
0.0099914316087961
0.0121400617063045
0.0144146550446748
0.0167305935174226
0.0190002508461475
0.0211365558207035
0.0230486672371625
0.0246268566697835
0.0257228221744298
0.0261416397988796
0.025657819584012
0.0240557193756103
0.0211830157786607
0.0169976837933063
0.0115900859236717
0.0051772054284811
-0.0019197165966033
-0.0093059008941054
-0.016551736742258
-0.0232372377067804
-0.028994645923376
-0.033540453761816
-0.0366923660039901
-0.0383742973208427
-0.038613948971033
-0.0375337041914463
-0.035334724932909
-0.0322754606604576
-0.0286455079913139
-0.0247359946370124
-0.0208133235573768
-0.0171021558344364
-0.0137727772817015
-0.0109288087114691
-0.0086006969213485
-0.0067500504665076
-0.0052841920405626
-0.0040769916959106
-0.0029907752759754
-0.0018948828801512
-0.0006794482469558
0.0007338235154747
0.0023834221065044
0.0042658057063817
0.0063421269878745
0.0085513275116682
0.0108210677281022
0.0130706680938601
0.0152081390842795
0.0171218607574701
0.0186675917357206
0.0196611694991588
0.0198877453804016
0.019129741936922
0.0172089226543903
0.0140316793695092
0.0096228625625371
0.0041383989155292
-0.0021439483389258
-0.0088519845157861
-0.0155592225492
-0.0218302533030509
-0.0272654630243778
-0.0315410643815994
-0.0344374068081378
-0.0358503870666027
-0.0357899665832519
-0.0343721732497215
-0.0318040624260902
-0.028358370065689
-0.0243415180593729
-0.0200622100383043
-0.0158033221960067
-0.0117990057915449
-0.0082199051976203
-0.0051647797226905
-0.0026549366302788
-0.0006358316168189
0.0010055711027234
0.0024101254530251
0.0037170669529587
0.0050457790493965
0.006486817728728
0.0080979047343134
0.0099032456055283
0.0118954787030816
0.0140399606898427
0.0162805821746587
0.0185464266687631
0.0207553394138813
0.0228071343153715
0.0245683155953884
0.0258619450032711
0.0264747627079486
0.0261816438287496
0.0247801318764686
0.0221311412751674
0.0181986596435308
0.0130752846598625
0.0069868103601038
0.0002745566889643
-0.0066428547725081
-0.0133185517042875
-0.0193259865045547
-0.0243006739765405
-0.0279709678143262
-0.0301760174334049
-0.0308717731386423
-0.0301245898008346
-0.0280931424349546
-0.025007227435708
-0.0211494322866201
-0.0168330501765012
-0.0123718362301588
-0.0080485828220844
-0.004089331254363
-0.0006457171402871
0.0022127451375126
0.0044957213103771
0.0062789404764771
0.0076834913343191
0.0088534848764538
0.0099360356107354
0.0110630439594388
0.0123366629704833
0.0138223692774772
0.0155457630753517
0.0174886584281921
0.0195915773510932
0.0217679310590028
0.023923410102725
0.0259713120758533
0.0278373975306749
0.0294513963162899
0.0307266730815172
0.0315378829836845
0.0317115560173988
0.031038362532854
0.0293071419000625
0.0263533107936382
0.0221071802079677
0.0166274905204772
0.0101106548681855
0.0028728330507874
-0.0046880305744707
-0.0121390148997306
-0.0190599840134382
-0.0250842832028865
-0.0299253091216087
-0.0333906970918178
-0.0353894867002964
-0.0359317734837532
-0.0351201519370079
-0.0331352688372135
-0.0302158053964376
-0.0266336798667907
-0.0226668417453765
-0.0185723397880792
-0.0145678604021668
-0.0108254319056868
-0.0074663646519184
-0.0045526688918471
-0.0020855425391346
-1.5466241165995598e-05
0.0017433247994631
0.0032987124286592
0.0047655822709202
0.0062500555068254
0.0078363791108131
0.0095782214775681
0.0114946812391281
0.0135716963559389
0.0157691780477762
0.0180316269397735
0.0202954839915037
0.0224909000098705
0.0245450902730226
0.0263886954635381
0.027956074103713
0.0291732735931873
0.0299381483346223
0.0301073845475912
0.0295031443238258
0.0279394555836915
0.0252604819834232
0.021381152793765
0.0163202919065952
0.0102184936404228
0.0033371802419424
-0.0039624087512493
-0.0112602915614843
-0.0181312542408704
-0.0241952072829008
-0.0291529893875122
-0.0328054167330265
-0.0350578166544437
-0.0359134674072265
-0.0354601740837097
-0.033854816108942
-0.0313083790242672
-0.0280694738030433
-0.0244030747562646
-0.0205664448440074
-0.0167877785861492
-0.0132478326559066
-0.0100641818717122
-0.007287279702723
-0.0049127521924674
-0.0028969668783247
-0.0011666705831885
0.000371087284293
0.0018142872722819
0.0032516615465283
0.0047543859109282
0.0063725505024194
0.0081324912607669
0.0100352931767702
0.0120585393160581
0.0141603350639343
0.0162842627614736
0.0183670986443758
0.0203495770692825
0.0221821386367082
0.0238215774297714
0.0252284463495016
0.0263679437339305
0.0272030271589756
0.0276768952608108
0.0276957228779792
0.0271236691623926
0.0257963612675666
0.0235513933002948
0.0202683731913566
0.0159082189202308
0.0105402003973722
0.0043492270633578
-0.0023772260174155
-0.0092792296782135
-0.01596649736166
-0.0220661722123622
-0.027265328913927
-0.0313361436128616
-0.0341438055038452
-0.0356460846960544
-0.0358874723315238
-0.0349861830472946
-0.0331167839467525
-0.0304929539561271
-0.0273502152413129
-0.0239270478487014
-0.020446041598916
-0.017097033560276
-0.0140214897692203
-0.0113002825528383
-0.0089531205594539
-0.0069522215053439
-0.0052396501414477
-0.0037388836499303
-0.0023626226466149
-0.0010221416596323
0.0003614359302446
0.0018480429425835
0.0034741172567009
0.0052513526752591
0.0071669919416308
0.00918491743505
0.0112501280382275
0.0132988896220922
0.0152711300179362
0.0171193424612283
0.0188099909573793
0.0203184951096773
0.0216231103986501
0.0226977355778217
0.0234995670616626
0.0239537507295608
0.0239428430795669
0.0233107134699821
0.0218869186937809
0.0195260439068079
0.0161486603319644
0.0117727732285857
0.0065294560045003
0.0006576469168066
-0.0055213114246726
-0.0116395484656095
-0.0173245444893836
-0.0222454145550727
-0.026149658486247
-0.028880052268505
-0.0303771197795867
-0.0306733138859272
-0.0298795886337757
-0.0281673446297645
-0.0257503800094127
-0.0228659622371196
-0.0197520051151514
-0.0166244320571422
-0.0136608369648456
-0.0109893213957548
-0.0086796758696436
-0.0067405118606984
-0.0051287985406816
-0.0037706638686358
-0.002581528853625
-0.0014773607254028
-0.0003813615767285
0.0007698797271586
0.0020218822173774
0.0033992445096373
0.0049049751833081
0.0065232287161052
0.0082231797277927
0.0099633317440748
0.0116974785923957
0.0133812502026557
0.0149764353409409
0.0164491385221481
0.0177562236785888
0.0188220553100109
0.0195218138396739
0.0196863710880279
0.0191292967647314
0.0176868606358766
0.0152587946504354
0.0118399253115057
0.0075366804376244
0.0025639561936259
-0.0027775550261139
-0.0081375548616051
-0.0131583716720342
-0.0175147261470556
-0.0209422316402196
-0.023253533989191
-0.0243506301194429
-0.0242357309907674
-0.0230107214301824
-0.0208610314875841
-0.0180299077183008
-0.0147880762815475
-0.0114037655293941
-0.0081171877682209
-0.0051199370063841
-0.0025412309914827
-0.0004428862594068
0.0011787461116909
0.0023851715959608
0.0032810834236443
0.0039945915341377
0.0046590031124651
0.005396207794547
0.0062982640229165
0.0074140932410955
0.0087483748793601
0.010269921272993
0.0119246672838926
0.0136484522372484
0.015375992283225
0.0170456673949956
0.0185975916683673
0.0199611969292163
0.0210364311933517
0.0216820612549781
0.0217235796153545
0.0209810324013233
0.0193066243082284
0.0166200399398803
0.0129334293305873
0.0083634052425622
0.0031280205585062
-0.0024740931112319
-0.0080986861139535
-0.0133944004774093
-0.0180365983396768
-0.0217540264129638
-0.0243502911180257
-0.0257205870002508
-0.0258578471839427
-0.0248464308679103
-0.0228485204279422
-0.0200841538608074
-0.0168039500713348
-0.0132624860852956
-0.0096999090164899
-0.0063267853111028
-0.0033071963116526
-0.0007444890215992
0.0013256277889013
0.0029325345531105
0.0041581904515624
0.0051185307092964
0.0059435297735035
0.0067577492445707
0.0076640155166387
0.0087335910648107
0.0100022768601775
0.0114708319306373
0.0131104011088609
0.014870504848659
0.0166851449757814
0.0184782296419143
0.0201684907078742
0.021666657179594
0.0228621140122413
0.023609172552824
0.0237272083759307
0.0230208747088909
0.0213156007230281
0.0184979084879159
0.0145504865795373
0.009572104550898
0.0037762385327368
-0.0025282076094299
-0.008968349546194
-0.0151501446962356
-0.0207071471959352
-0.0253393445163965
-0.0288326479494571
-0.031065285205841
-0.0320078283548355
-0.0317167676985263
-0.0303225871175527
-0.0280143581330776
-0.0250208303332328
-0.0215900409966707
-0.0179689973592758
-0.0143815921619534
-0.0110067427158355
-0.0079623693600296
-0.0052986498922109
-0.0030049551278352
-0.0010291095823049
0.0007038582116365
0.0022794967517256
0.0037826476618647
0.0052866535261273
0.0068483469076454
0.0085079818964004
0.0102883651852607
0.0121925268322229
0.014203617349267
0.016287911683321
0.0183985792100429
0.0204762667417526
0.0224421545863151
0.0241837725043296
0.0255410484969615
0.0263040345162153
0.0262337103486061
0.0251065790653228
0.0227667745202779
0.0191688127815723
0.0144026763737201
0.0086934948340058
0.0023747929371893
-0.0041537298820912
-0.0104724839329719
-0.0161860398948192
-0.0209602918475866
-0.0245489291846752
-0.026805929839611
-0.0276848245412111
-0.0272335261106491
-0.0255892239511013
-0.0229663085192441
-0.0196343045681715
-0.0158899631351232
-0.0120251085609197
-0.0082942936569452
-0.00489092618227
-0.0019347984343767
0.0005310997366905
0.002533889375627
0.0041548004373908
0.0055085718631744
0.006722854450345
0.0079219210892915
0.0092154191806912
0.0106863938271999
0.0123773403465747
0.014283861964941
0.0163611564785242
0.0185369532555341
0.0207258854061365
0.0228436011821031
0.0248159263283014
0.0265788156539201
0.0280662514269351
0.029188510030508
0.0298150591552257
0.0297758262604475
0.028882348909974
0.0269650109112262
0.0239181835204362
0.0197363961488008
0.0145282940939068
0.0085097439587116
0.0019834062550216
-0.0046909870579838
-0.0111333988606929
-0.0169825907796621
-0.0219298936426639
-0.0257426183670759
-0.0282776299864053
-0.0294872839003801
-0.0294176489114761
-0.0281985532492399
-0.0260275602340698
-0.0231484454125165
-0.0198225155472755
-0.016301542520523
-0.0128122810274362
-0.0095447963103652
-0.0066367276012897
-0.0041608908213675
-0.002124544698745
-0.0004785936325788
0.0008685836801305
0.0020337968599051
0.0031394800171256
0.0042955162934958
0.0055846739560365
0.0070536080747842
0.0087109915912151
0.0105334725230932
0.0124775441363453
0.0144887138158082
0.0165022499859333
0.0184441413730382
0.0202405750751495
0.0218287948518991
0.0231574289500713
0.0241728834807872
0.0247983187437057
0.0249174758791923
0.0243751965463161
0.0229996144771575
0.0206406097859144
0.0172112435102462
0.0127206984907388
0.0072932140901684
0.0011673998087644
-0.0053289197385311
-0.0118218585848808
-0.0179372262209653
-0.0233395993709564
-0.0277617536485195
-0.0310218650847673
-0.0330292433500289
-0.0337822288274765
-0.0333608090877532
-0.0319142192602157
-0.0296438131481409
-0.0267843604087829
-0.0235856603831052
-0.0202914513647556
-0.0171137601137161
-0.0142094641923904
-0.0116703752428293
-0.0095269093289971
-0.0077558774501085
-0.006291776895523
-0.0050431862473487
-0.0039078453555703
-0.0027835874352604
-0.0015790597535669
-0.0002250289544463
0.0013179657980799
0.0030576717108488
0.0049720085225999
0.0070135248824954
0.0091162286698818
0.011206092312932
0.0132154505699872
0.0150923877954483
0.0167978517711162
0.0182976853102445
0.0195546559989452
0.0205160584300756
0.0210987050086259
0.021180722862482
0.020607678219676
0.0192169211804866
0.0168766379356384
0.0135259134694933
0.0092019597068429
0.0040495228022336
-0.0016875090077519
-0.0076898979023098
-0.0135978478938341
-0.0190537795424461
-0.0237453319132328
-0.0274346433579921
-0.0299706608057022
-0.0312923043966293
-0.0314258597791194
-0.0304767675697803
-0.0286164619028568
-0.0260635837912559
-0.023060392588377
-0.0198475681245327
-0.016641154885292
-0.0136151257902383
-0.0108911823481321
-0.008533114567399
-0.0065436600707471
-0.0048707230016589
-0.0034280167892575
-0.0021194582805037
-0.0008543643634766
0.0004457181785255
0.001842011231929
0.0033743088133633
0.0050581567920744
0.0068826917558908
0.0088123343884944
0.0107950121164321
0.0127721996977925
0.0146855013445019
0.0164815243333578
0.0181187111884355
0.0195723380893468
0.0208283606916666
0.0218623746186494
0.0226132813841104
0.0229693688452243
0.0227763149887323
0.0218628868460655
0.0200766958296298
0.0173231288790702
0.0135986702516675
0.0090081635862588
0.0037597520276904
-0.0018583917990326
-0.0075111463665962
-0.012854591012001
-0.0175721943378448
-0.0214019007980823
-0.0241566337645053
-0.0257411561906337
-0.0261593796312809
-0.0255067348480224
-0.0239500440657138
-0.0217024553567171
-0.0189988892525434
-0.016072541475296
-0.0131340827792882
-0.0103568751364946
-0.0078680161386728
-0.005742622539401
-0.0040005221962928
-0.0026082964614033
-0.001488505047746
-0.0005343026132322
0.0003706786665134
0.0013296429533511
0.0024162004701793
0.0036688637919723
0.0050929691642522
0.0066664293408393
0.008347375318408
0.0100826807320117
0.0118168145418167
0.0134983537718653
0.015082411468029
0.0165311507880687
0.0178141240030527
0.018906844779849
0.0197834856808185
0.0204015783965587
0.0206834990531206
0.0205070823431015
0.0197186712175607
0.0181682799011468
0.0157522521913051
0.0124490708112716
0.0083392318338155
0.0036044130101799
-0.0014928136952221
-0.0066424328833818
-0.011525459587574
-0.0158487558364868
-0.0193704012781381
-0.0219166483730077
-0.0233924202620983
-0.0237838178873062
-0.0231553576886653
-0.0216463487595319
-0.0194611474871635
-0.0168455392122268
-0.0140534322708845
-0.0113162314519286
-0.008820854127407
-0.0066947159357368
-0.0049979900941252
-0.0037258679512888
-0.0028184277471154
-0.0021740386728197
-0.0016678068786859
-0.001173852593638
-0.0005825000116601
0.0001921160146594
0.0012063225731253
0.002477629808709
0.0039812643080949
0.0056596039794385
0.0074373632669448
0.0092336926609277
0.0109683144837617
0.0125605389475822
0.013920035213232
0.014934373088181
0.0154647566378116
0.0153573043644428
0.0144682954996824
0.012696967460215
0.0100185759365558
0.0065079554915428
0.0023413910530507
-0.0022266777232289
-0.006900172214955
-0.011376398615539
-0.0153742618858814
-0.0186564158648252
-0.0210458729416131
-0.0224362351000309
-0.0227955225855112
-0.0221652444452047
-0.0206551980227231
-0.0184330865740776
-0.0157074835151433
-0.0127042774111032
-0.0096408454701304
-0.006702025886625
-0.0040233982726931
-0.0016876263543963
0.0002714600414037
0.0018656542524695
0.0031478656455874
0.0042014312930405
0.0051250057294964
0.0060170250944793
0.0069621913135051
0.0080224461853504
0.0092330947518348
0.0106018288061022
0.0121103208512067
0.0137201491743326
0.015383455902338
0.0170531962066888
0.0186790134757757
0.0201836060732603
0.0214391369372606
0.0222653578966856
0.0224506016820669
0.0217867754399776
0.0201113354414701
0.0173472985625267
0.0135293351486325
0.0088086603209376
0.0034374026581645
-0.0022621704265475
-0.0079357903450727
-0.01323570497334
-0.0178531594574451
-0.0215403493493795
-0.0241273269057273
-0.0255372878164052
-0.025789774954319
-0.0249873101711273
-0.0232945028692483
-0.0209158118814229
-0.0180740132927894
-0.0149919129908084
-0.0118751609697937
-0.0088941417634487
-0.0061706332489848
-0.0037727802991867
-0.0017161183059215
2.9593706130981445e-05
0.0015297457575798
0.0028745112940669
0.0041639078408479
0.0054857633076608
0.0069000506773591
0.0084384698420763
0.0101100951433181
0.0119039453566074
0.0137900300323963
0.0157231409102678
0.0176503732800483
0.0195191726088523
0.021279415115714
0.0228748340159654
0.0242257453501224
0.0252123214304447
0.0256714131683111
0.0254148058593273
0.0242637116461992
0.0220859702676534
0.0188275296241045
0.0145353367552161
0.0093657746911048
0.0035733168479055
-0.0025173001922667
-0.008547244593501
-0.0141631299629807
-0.0190539322793483
-0.0229770243167877
-0.0257717985659837
-0.0273644626140594
-0.0277660991996526
-0.0270639546215534
-0.0254067815840244
-0.0229899883270263
-0.0200426429510116
-0.0168086905032396
-0.0135206319391727
-0.0103752268478274
-0.0075174616649746
-0.0050315391272306
-0.0029387893155217
-0.0012039309367537
0.0002518277615308
0.0015342216938734
0.0027577681466937
0.004027753137052
0.0054264892823994
0.0070078554563224
0.0087989252060651
0.010799660347402
0.0129771269857883
0.0152656445279717
0.0175791252404451
0.0198272466659545
0.0219272430986166
0.0238089393824338
0.0254131071269512
0.0266820415854454
0.0275420732796192
0.0278865806758403
0.0275736451148986
0.0264439806342124
0.0243533719331026
0.0212113484740257
0.017017226666212
0.0118801947683095
0.0060143265873193
-0.000286655180389
-0.006683989893645
-0.0128304678946733
-0.0184050109237432
-0.0231408514082431
-0.0268422551453113
-0.0293901022523641
-0.0307416915893554
-0.030928399413824
-0.0300509203225374
-0.0282693188637495
-0.0257870629429817
-0.0228297524154186
-0.0196197293698787
-0.016355276107788
-0.0132016260176897
-0.0102856773883104
-0.0076871002092957
-0.0054316013120114
-0.0034929541870951
-0.0018044426105916
-0.0002757739275693
0.0011904085986316
0.002684511244297
0.0042779138311743
0.0060155326500535
0.0079152146354317
0.0099697252735495
0.0121490880846977
0.0144069865345954
0.0166878029704093
0.0189278684556484
0.021056042984128
0.023001056164503
0.0247034505009651
0.0261234007775783
0.0272376928478479
0.0280246902257204
0.0284408386796712
0.0284005030989646
0.0277735758572816
0.026403222233057
0.0241375230252742
0.0208686627447605
0.0165712404996156
0.0113290175795555
0.0053382869809865
-0.0011158692650496
-0.0076974602416157
-0.0140574127435684
-0.0198675878345966
-0.0248485691845417
-0.0287874788045883
-0.0315478108823299
-0.0330765657126903
-0.0334069803357124
-0.0326506607234478
-0.030979810282588
-0.0286062955856323
-0.0257617495954036
-0.0226771533489227
-0.0195594169199466
-0.0165718588978052
-0.013827621936798
-0.0113918697461485
-0.0092836767435073
-0.0074768122285604
-0.0059046964161098
-0.0044728862121701
-0.0030772797763347
-0.0016234428621828
-4.1623658034950495e-05
0.0017061566468328
0.0036270599812269
0.0057033179327845
0.0078975344076752
0.0101573215797543
0.0124233374372124
0.0146359195932745
0.016735453158617
0.0186638422310352
0.0203720889985561
0.0218284223228693
0.0230208337306976
0.0239539723843336
0.0246446970850229
0.0251153912395238
0.025378581136465
0.0254132356494665
0.0251430310308933
0.0244307927787303
0.0230976063758134
0.020962756127119
0.0178907364606857
0.0138286678120493
0.0088254027068614
0.0030339574441313
-0.0033003091812133
-0.009864529594779
-0.0163118951022624
-0.0222971606999635
-0.0275095086544752
-0.0317005440592765
-0.0347038023173809
-0.0364443473517894
-0.0369400233030319
-0.0362945199012756
-0.0346821621060371
-0.0323252379894256
-0.0294662583619356
-0.0263418704271316
-0.0231655742973089
-0.0201168917119503
-0.0173292495310306
-0.0148787572979927
-0.0127823427319526
-0.0110062332823872
-0.0094794332981109
-0.0081073995679616
-0.0067849438637495
-0.0054100304841995
-0.00389762269333
-0.0021906280890107
-0.0002663596533238
0.001864290330559
0.0041648102924227
0.006579527631402
0.0090350192040205
0.0114452745765447
0.013723773881793
0.0157955698668956
0.0176055710762739
0.0191230829805135
0.0203427113592624
0.021281037479639
0.0219685100018978
0.0224371943622827
0.0227031223475933
0.0227446984499692
0.0224882364273071
0.021811980754137
0.0205682311207056
0.0186135414987802
0.0158402025699615
0.0122087961062788
0.0077744955196976
0.0026951935142278
-0.0027809739112854
-0.0083452127873897
-0.013669017702341
-0.0184460058808326
-0.0224234610795974
-0.0254191868007183
-0.0273292772471904
-0.0281318705528974
-0.0278839692473411
-0.0267092213034629
-0.0247810017317533
-0.0223068371415138
-0.0195142310112714
-0.0166319236159324
-0.0138656347990036
-0.011375761590898
-0.0092630377039313
-0.0075620841234922
-0.0062434021383523
-0.0052254167385399
-0.0043933596462011
-0.0036205064970999
-0.0027889912016689
-0.0018062239978462
-0.0006134504801593
0.0008140143472701
0.0024721540976315
0.0043328101746737
0.0063443034887313
0.0084338644519448
0.0105167319998145
0.0125088142231106
0.0143374968320131
0.0159473586827516
0.0172981191426515
0.0183526556938886
0.0190581511706113
0.0193304773420095
0.0190535970032215
0.0180983841419219
0.0163539797067642
0.0137620856985449
0.0103448340669274
0.0062146033160388
0.0015636542811989
-0.0033566157799214
-0.008260796777904
-0.0128583647310733
-0.0168830025941133
-0.0201167427003383
-0.0224054791033267
-0.0236671306192874
-0.023895414546132
-0.0231583323329687
-0.0215884130448102
-0.0193664152175188
-0.0167031977325677
-0.0138193434104323
-0.0109209595248103
-0.0081788711249828
-0.0057187052443623
-0.0036169763188809
-0.0018974808044731
-0.0005320110358297
0.000550847267732
0.0014502934645861
0.0022751297801733
0.0031280575785785
0.0040944628417491
0.0052343672141432
0.0065782251767814
0.008127124980092
0.0098547395318746
0.0117126926779747
0.0136431287974119
0.0155888115987181
0.0174905937165021
0.0192798972129821
0.0208730679005384
0.0221652500331401
0.0230251774191856
0.0232962016016244
0.0228097923099994
0.02141416631639
0.0190104730427265
0.0155841587111353
0.0112224919721484
0.0061146314255893
0.0005350913852453
-0.0051858313381671
-0.0106986807659268
-0.0156733598560094
-0.0198350548744201
-0.0229897480458021
-0.0250345133244991
-0.0259550213813781
-0.0258145648986101
-0.024738885462284
-0.0228996351361274
-0.0204962231218814
-0.0177365988492965
-0.0148205980658531
-0.0119262682273983
-0.009196544997394
-0.0067280107177793
-0.0045649074018001
-0.0026995716616511
-0.0010826643556356
0.0003579780459403
0.0017006574198603
0.0030202353373169
0.0043813395313918
0.005832215771079
0.0074007865041494
0.0090938750654459
0.0108984671533107
0.0127843283116817
0.0147084798663854
0.016621233895421
0.0184722431004047
0.0202147290110588
0.021807923913002
0.0232156850397586
0.0243931636214256
0.0252613704651594
0.0256886072456836
0.0254977196455001
0.0244978331029415
0.0225264299660921
0.0194899514317512
0.0153948981314897
0.0103615820407867
0.0046171760186553
-0.0015280973166227
-0.0077158459462225
-0.0135808885097503
-0.0187927205115556
-0.0230863448232412
-0.0262768939137458
-0.0282660257071256
-0.0290459599345922
-0.0286951214075088
-0.0273627247661352
-0.0252470523118972
-0.0225716829299926
-0.0195627529174089
-0.0164301954209804
-0.0133538413792848
-0.0104732448235154
-0.0078793196007609
-0.005608987994492
-0.0036477232351899
-0.001940393820405
-0.0004053572192788
0.0010510999709367
0.0025180531665682
0.0040623927488923
0.0057199820876121
0.0074985837563872
0.0093845473602414
0.0113482140004634
0.0133483847603201
0.0153369661420583
0.0172641463577747
0.0190827473998069
0.0207521710544824
0.0222423747181892
0.0235344767570495
0.0246167313307523
0.0254789199680089
0.0261032003909349
0.026444399729371
0.0264056660234928
0.0258321017026901
0.0245352182537317
0.0223377309739589
0.0191212389618158
0.0148636549711227
0.0096566379070281
0.0037013902328908
-0.0027109333314001
-0.0092304376885294
-0.0154893696308135
-0.0211446937173604
-0.0259120836853981
-0.0295845977962017
-0.0320377685129642
-0.0332316793501377
-0.0332128554582595
-0.032107837498188
-0.0301059540361166
-0.0274363439530134
-0.0243433155119419
-0.0210626665502786
-0.01780123449862
-0.0147212976589798
-0.0119312591850757
-0.0094838012009859
-0.0073797274380922
-0.005574632436037
-0.0039885644800961
-0.0025191693566739
-0.0010570888407528
0.0004960242658853
0.002209860831499
0.0041162613779306
0.0062101096846163
0.0084558529779315
0.0107967182993888
0.0131635852158069
0.0154824936762452
0.0176830906420946
0.0197071284055709
0.0215141512453556
0.0230839550495147
0.0244150161743164
0.0255175493657588
0.026402099058032
0.0270644575357437
0.0274640787392854
0.0275015290826559
0.0270164310932159
0.0258156824856996
0.0237175542861223
0.0205964297056198
0.0164201371371746
0.0112730469554662
0.0053580836392939
-0.0010248306207358
-0.0075171999633312
-0.013746915385127
-0.0193707812577486
-0.0241064988076686
-0.0277496092021465
-0.0301787480711936
-0.031358752399683
-0.031343825161457
-0.0302711986005306
-0.0283417105674743
-0.0257951281964778
-0.0228846129029989
-0.0198506359010934
-0.0168986469507217
-0.014183678664267
-0.0118014188483357
-0.009785434231162
-0.0081108286976814
-0.0067063062451779
-0.0054738605394959
-0.0043076449073851
-0.0031050723046064
-0.0017756109591573
-0.0002549183554947
0.0014818932395428
0.0034183396492153
0.0055055962875485
0.0076763639226555
0.0098582599312067
0.0119824791327118
0.0139881642535328
0.0158261116594076
0.0174628794193267
0.0188826043158769
0.0200831461697816
0.0210661403834819
0.0218225177377462
0.0223148148506879
0.0224594511091709
0.0221194066107273
0.0211209170520305
0.0192933157086372
0.0165154356509447
0.0127536123618483
0.008083626627922
0.0026922593824565
-0.0031413882970809
-0.0090785706415772
-0.0147596644237637
-0.019844152033329
-0.024047203361988
-0.0271655730903148
-0.0290879718959331
-0.029791671782732
-0.0293344482779502
-0.0278495382517576
-0.0255381669849157
-0.0226524211466312
-0.0194685477763414
-0.0162530876696109
-0.0132306972518563
-0.0105633102357387
-0.0083412528038024
-0.0065829553641378
-0.0052417586557567
-0.0042197848670184
-0.003387687029317
-0.0026066228747367
-0.0017472456675022
-0.00070379889803
0.0005940024275332
0.0021725189872086
0.0040145879611372
0.0060680815950036
0.0082571282982826
0.0104938503354787
0.0126901073381304
0.0147670116275548
0.0166598856449127
0.018315577879548
0.0196793284267187
0.0206757392734289
0.0211948305368423
0.0210931431502103
0.020216230303049
0.0184367522597312
0.015688857063651
0.0119884693995118
0.0074437437579035
0.0022558961063623
-0.0032949014566838
-0.0088796820491552
-0.0141601469367742
-0.0188252665102481
-0.0226181969046592
-0.0253543071448802
-0.026931308209896
-0.0273319650441408
-0.0266203545033931
-0.0249322429299354
-0.0224590450525283
-0.019425593316555
-0.0160684566944837
-0.0126201556995511
-0.0092931725084781
-0.0062601352110505
-0.0036360486410558
-0.0014685997739434
0.0002599782310426
0.0016210142057389
0.0027229888364672
0.0036936358083039
0.0046617817133665
0.0057399780489504
0.007009042892605
0.0085090296342968
0.0102412309497594
0.0121769905090332
0.0142627982422709
0.0164211336523294
0.0185577757656574
0.0205776318907737
0.0223996937274932
0.0239644236862659
0.0252306628972291
0.0261599905788898
0.0266915243119001
0.0267198700457811
0.0260935220867395
0.024640591815114
0.0222108513116836
0.0187172908335924
0.0141691509634256
0.0086926557123661
0.0025286325253546
-0.0039985859766602
-0.0105257984250783
-0.0166916288435459
-0.0221705120056867
-0.026699598878622
-0.0300960950553417
-0.0322659909725189
-0.0332034043967723
-0.03297895565629
-0.0317232422530651
-0.0296125467866659
-0.0268556755036115
-0.0236774012446403
-0.0202967971563339
-0.0169054102152586
-0.01365502551198
-0.0106563623994588
-0.0079793911427259
-0.0056501314975321
-0.003648167476058
-0.0019118320196866
-0.0003526639193296
0.0011270786635577
0.0026195503305643
0.0041997814550995
0.0059176706708967
0.0077940858900547
0.0098208915442228
0.0119651854038238
0.0141780171543359
0.0164042972028255
0.0185871813446283
0.0206673722714185
0.0225858315825462
0.0242905896157026
0.0257421359419822
0.0269144400954246
0.0277850665152072
0.0283109825104475
0.0284033194184303
0.0279207155108451
0.0266890842467546
0.0245392750948667
0.021349299699068
0.0170824229717254
0.0118140168488025
0.0057391505688428
-0.0008458197116851
-0.0075849369168281
-0.0141108222305774
-0.0200829207897186
-0.0252135582268238
-0.0292859058827161
-0.0321646332740783
-0.0337982699275016
-0.0342145971953868
-0.0335128046572208
-0.0318532325327396
-0.0294417664408683
-0.0265084374696016
-0.0232841894030571
-0.0199793595820665
-0.016764897853136
-0.013761892914772
-0.0110432170331478
-0.008638622239232
-0.0065367757342755
-0.0046891337260603
-0.0030202465131878
-0.0014419360086321
0.0001336247660219
0.0017824596725404
0.0035587735474109
0.0054898858070373
0.0075771952979266
0.0098004639148712
0.0121226217597723
0.0144942346960306
0.0168596189469099
0.01916279271245
0.0213487707078456
0.0233634859323501
0.0251564849168062
0.0266825444996356
0.027895139530301
0.0287288799881935
0.0290811881422996
0.0288100931793451
0.0277528725564479
0.0257591195404529
0.0227288343012332
0.0186449028551578
0.0135933142155408
0.0077687203884124
0.0014612632803618
-0.0049778702668845
-0.01118347607553
-0.0168196279555559
-0.0216097589582204
-0.0253528635948896
-0.0279292128980159
-0.0293001607060432
-0.0295044146478176
-0.028651375323534
-0.0269098300486803
-0.024490961804986
-0.0216292142868042
-0.018562814220786
-0.0155121982097625
-0.0126564912497997
-0.0101133259013295
-0.0079329777508974
-0.0061090267263352
-0.0045932373031973
-0.0033077232073992
-0.0021573870908468
-0.0010430687107145
0.0001267031766474
0.0014256970025599
0.0029021797236055
0.0045754769816994
0.0064373929053545
0.008455516770482
0.0105769829824566
0.0127351293340325
0.0148604158312082
0.0168916229158639
0.0187791958451271
0.020478194579482
0.0219374001026153
0.0230876188725233
0.0238294452428817
0.0240280944854021
0.0235225223004817
0.0221491605043411
0.0197770074009895
0.0163459070026874
0.0118963830173015
0.006581658963114
0.0006584045477211
-0.0055402223952114
-0.0116420574486255
-0.0172769781202077
-0.0221169255673885
-0.025910273194313
-0.0285022873431444
-0.0298384353518486
-0.0299562700092792
-0.0289721116423606
-0.0270660296082496
-0.0244650226086378
-0.0214219465851783
-0.0181907415390014
-0.0150015382096171
-0.0120394136756658
-0.0094309439882636
-0.0072391042485833
-0.0054624071344733
-0.0040388908237218
-0.0028618457727134
-0.0018060270231217
-0.0007517186459153
0.0004012798890471
0.0017262279288843
0.0032636895775794
0.0050185695290565
0.006963372696191
0.0090480167418718
0.0112122278660535
0.0133950356394052
0.0155390761792659
0.0175891667604446
0.0194833427667617
0.0211382042616605
0.0224364157766103
0.0232214499264955
0.0233025308698415
0.0224778912961483
0.0205786079168319
0.0175186302512884
0.0133290886878967
0.0081653892993927
0.0022931660059839
-0.0039387135766446
-0.0101370252668857
-0.0159095823764801
-0.0209064278751611
-0.0248509086668491
-0.0275586601346731
-0.0289431922137737
-0.0290114469826221
-0.0278572738170623
-0.0256551019847393
-0.0226458944380283
-0.0191109906882047
-0.0153402900323271
-0.0116014210507273
-0.0081135416403412
-0.0050303018651902
-0.0024333661422133
-0.0003331303596496
0.0013251197524368
0.0026469689328223
0.0037662852555513
0.0048208395019173
0.0059341914020478
0.0072061070241034
0.0087049677968025
0.010458018630743
0.0124472184106707
0.0146157853305339
0.0168809406459331
0.0191488098353147
0.0213285014033317
0.0233423206955194
0.0251306258141994
0.0266482830047607
0.0278489869087934
0.0286616943776607
0.0289733279496431
0.0286289770156145
0.027451517060399
0.025277717038989
0.0220003128051757
0.0176006723195314
0.0121663957834243
0.0058952174149453
-0.0009178756736218
-0.0079107303172349
-0.0146950501948595
-0.0209004320204257
-0.026210993528366
-0.0303872674703598
-0.0332767516374588
-0.0348187014460563
-0.0350427217781543
-0.0340610444545745
-0.0320546850562095
-0.0292510744184255
-0.0259003788232803
-0.0222592130303382
-0.0185736380517482
-0.0150553546845912
-0.0118607319891452
-0.0090792989358305
-0.006732172332704
-0.0047799013555049
