bvp
-0.0280295461416244
-0.0235892813652753
-0.0194615237414836
-0.0157428234815597
-0.0124565623700618
-0.0095576373860239
-0.0069470703601837
-0.00449472758919
-0.0020620860159397
0.0004781987518072
0.003225240856409
0.0062378891743719
0.0095290578901767
0.0130664017051458
0.0167811047285795
0.0205799452960491
0.0243532657623291
0.027982797473669
0.03135472163558
0.0343740545213222
0.0369752869009971
0.0391271039843559
0.0408293418586254
0.0420971699059009
0.0429291389882564
0.0432700105011463
0.0429882034659385
0.0418798178434371
0.0397023372352123
0.0362340956926345
0.0313427373766899
0.0250362530350685
0.0174800232052803
0.0089834127575159
-3.495253622531891e-05
-0.0090970983728766
-0.0177203230559825
-0.025465402752161
-0.0319734998047351
-0.0369895696640014
-0.0403725691139698
-0.0420951656997203
-0.0422344729304313
-0.0409554690122604
-0.0384912751615047
-0.0351223200559616
-0.0311513505876064
-0.0268766079097986
-0.0225699637085199
-0.0184587687253952
-0.0147076565772295
-0.0114047806710004
-0.0085598453879356
-0.0061141629703342
-0.0039581311866641
-0.001953465398401
4.275841638445854e-05
0.0021571889519691
0.0044839461334049
0.0070734429173171
0.0099292015656828
0.0130132138729095
0.0162571556866168
0.0195733159780502
0.0228598155081272
0.026005782186985
0.0289029702544212
0.0314591228961944
0.0336082801222801
0.0353178009390831
0.036589790135622
0.0374523885548114
0.0379370972514152
0.0380448326468467
0.0377136580646038
0.0368042215704917
0.0351124480366706
0.0324099287390708
0.0285026617348194
0.023288320749998
0.0167938899248838
0.0091903433203697
0.0007856376469135
-0.0080064870417118
-0.0167170986533164
-0.0248783323913812
-0.0320722535252571
-0.0379651114344596
-0.0423274859786033
-0.0450441688299179
-0.0461153462529182
-0.0456501543521881
-0.0438539758324623
-0.0410071201622486
-0.0374326258897781
-0.033460333943367
-0.0293969418853521
-0.0255023911595344
-0.0219706129282712
-0.0189160406589508
-0.0163672864437103
-0.0142707042396068
-0.0125067317858338
-0.010916338302195
-0.0093301869928836
-0.0075945062562823
-0.0055911764502525
-0.0032512946054339
-0.0005596332484856
0.0024517211131751
0.0057156644761562
0.0091395266354084
0.0126100741326808
0.0160035546869039
0.0192033536732196
0.0221139937639236
0.0246657971292734
0.0268114581704139
0.0285095293074846
0.0296944975852966
0.030250085517764
0.0300037860870361
0.0287481304258108
0.0262841042131185
0.0224747080355882
0.0172937624156475
0.0108582125976681
0.003432622179389
-0.0045992960222065
-0.0127833783626556
-0.0206463001668453
-0.0277418233454227
-0.0336893163621425
-0.038201980292797
-0.0411038696765899
-0.042336992919445
-0.0419591628015041
-0.0401324741542339
-0.0371038503944873
-0.0331799201667308
-0.0286970939487218
-0.0239875316619873
-0.0193450711667537
-0.0149994269013404
-0.0111042652279138
-0.0077350260689854
-0.0048903077840805
-0.002499017631635
-0.0004369323141872
0.0014496638905256
0.0033175367861986
0.0053026676177978
0.0075041712261736
0.0099767223000526
0.0127291250973939
0.0157260783016681
0.018893850967288
0.0221338048577308
0.0253411475569009
0.0284176114946603
0.0312728323042392
0.033824510872364
0.0360058359801769
0.0377746485173702
0.0391173362731933
0.0400450974702835
0.0405778288841247
0.0407130494713783
0.0403903052210807
0.0394704565405845
0.037743903696537
0.0349684469401836
0.0309265870600938
0.0254873391240835
0.0186550728976726
0.0105892186984419
0.0015923473984003
-0.0079218270257115
-0.0174716617912054
-0.026558544486761
-0.0347191356122493
-0.0415700674057006
-0.0468374900519847
-0.0503695793449878
-0.0521356351673603
-0.0522145852446556
-0.0507765114307403
-0.0480622202157974
-0.0443613156676292
-0.0399864763021469
-0.0352453254163265
-0.03041622787714
-0.0257322397083044
-0.0213691219687461
-0.0174344722181558
-0.0139626422896981
-0.0109198177233338
-0.0082175359129905
-0.0057305917143821
-0.0033178313169628
-0.0008451596368104
0.0017926087602972
0.0046561518684029
0.0077571175061166
0.0110646458342671
0.0145181072875857
0.0180412698537111
0.0215511564165353
0.0249589476734399
0.0281716119498014
0.0311000626534223
0.0336697101593017
0.0358292311429977
0.037554956972599
0.0388501770794391
0.0397417806088924
0.0402753539383411
0.0405072532594203
0.0404893048107624
0.0402405112981796
0.0397108681499958
0.0387584827840328
0.0371582545340061
0.034640122205019
0.0309434123337268
0.0258765071630477
0.0193715617060661
0.0115212742239236
0.0025864522904157
-0.0070297494530677
-0.0168330240994691
-0.0262994915246963
-0.0349354520440101
-0.0423264428973197
-0.0481685400009155
-0.0522807836532592
-0.0546043217182159
-0.0551935508847236
-0.0542005375027656
-0.0518559180200099
-0.0484494119882583
-0.0443060509860515
-0.0397556200623512
-0.0351004339754581
-0.0305874515324831
-0.0263908486813306
-0.0226085502654314
-0.0192671287804842
-0.0163292624056339
-0.0137057425454258
-0.0112733701243996
-0.0088956402614712
-0.0064438465051352
-0.0038160248659551
-0.0009479315485805
0.0021834149956703
0.0055573149584233
0.0091114547103643
0.0127531811594963
0.0163746941834688
0.0198665391653776
0.023128617554903
0.026079261675477
0.0286618862301111
0.0308481454849243
0.0326367504894733
0.0340480245649814
0.0351164378225803
0.0358841232955455
0.0363975726068019
0.0367058478295803
0.0368536338210105
0.0368662178516387
0.0367285870015621
0.036362200975418
0.0356090851128101
0.0342372991144657
0.0319737792015075
0.0285581424832344
0.023804510012269
0.0176552310585975
0.0102102141827344
0.0017256811261177
-0.007412482984364
-0.0167324915528297
-0.0257293619215488
-0.0339188203215599
-0.0408880524337291
-0.0463370606303215
-0.0500993877649307
-0.0521389655768871
-0.0525336973369121
-0.0514547899365425
-0.0491428896784782
-0.045882660895586
-0.0419778302311897
-0.0377260893583297
-0.033395268023014
-0.0292041338980197
-0.0253087356686592
-0.0217947624623775
-0.0186775829643011
-0.0159107446670532
-0.0134045891463756
-0.0110521260648965
-0.0087501248344779
-0.0064093777909874
-0.0039601139724254
-0.0013568301219493
0.0014186061453074
0.0043572699651122
0.0074275145307183
0.0105810798704624
0.0137587618082761
0.0168955773115158
0.0199248362332582
0.0227809660136699
0.0254034101963043
0.027744386345148
0.0297749992460012
0.0314815491437912
0.0328581929206848
0.033905453979969
0.0346328727900981
0.0350618548691272
0.0352247878909111
0.0351527780294418
0.0348489508032798
0.0342576093971729
0.033247735351324
0.0316233336925506
0.0291599947959184
0.0256572626531124
0.0209936387836933
0.015170476399362
0.0083302203565835
0.0007441565394401
-0.0072207488119602
-0.0151445288211107
-0.0226012766361236
-0.0292054060846567
-0.0346482247114181
-0.0387187115848064
-0.0413103625178337
-0.0424190498888492
-0.0421357303857803
-0.0406353846192359
-0.0381593704223632
-0.0349900610744953
-0.0314209349453449
-0.0277261156588792
-0.0241370759904384
-0.02083096280694
-0.0179245695471763
-0.0154698649421334
-0.0134536707773804
-0.0118042230606079
-0.0104068182408809
-0.0091259805485606
-0.0078263226896524
-0.0063887382857501
-0.0047231866046786
-0.0027772211469709
-0.0005387705750763
0.0019666855223476
0.0046842251904308
0.0075409868732094
0.010454699397087
0.0133364796638488
0.0160958152264356
0.0186514668166637
0.0209403857588768
0.022917004302144
0.0245392024517059
0.0257429406046867
0.0264201648533344
0.0264160502701997
0.0255481321364641
0.0236423127353191
0.0205786880105733
0.0163342859596014
0.0110093867406249
0.0048322048969566
-0.0018603292992338
-0.0086652189493179
-0.0151663208380341
-0.0209807101637125
-0.025792421773076
-0.0293732415884733
-0.0315913558006286
-0.0324124060571193
-0.0318955704569816
-0.0301830358803272
-0.027483731508255
-0.0240539833903312
-0.0201755929738283
-0.01613075658679
-0.0121736144647002
-0.0085029443725943
-0.0052472837269306
-0.0024674069136381
-0.0001650331541895
0.0017108097672462
0.0032552788034081
0.0045926375314593
0.0058559849858284
0.0071678576059639
0.008627688512206
0.0103042051196098
0.0122290076687932
0.0143931163474917
0.016749495640397
0.0192218869924545
0.0217194594442844
0.0241542384028434
0.0264517907053232
0.0285511557012796
0.0304028168320655
0.0319693908095359
0.0332217998802661
0.0341229662299156
0.034601554274559
0.03453104570508
0.033730860799551
0.0319940969347953
0.02913274243474
0.0250271968543529
0.0196687281131744
0.0131839411333203
0.0058352621272206
-0.0020016927737742
-0.0098832249641418
-0.0173590239137411
-0.0240296851843595
-0.0295832175761461
-0.0338105410337448
-0.0366062112152576
-0.0379604212939739
-0.0379481688141822
-0.0367168858647346
-0.0344716235995292
-0.031457781791687
-0.0279404167085886
-0.0241806209087371
-0.0204131714999675
-0.0168282389640808
-0.0135578773915767
-0.0106708332896232
-0.0081769656389951
-0.006035428494215
-0.0041641620919108
-0.0024544289335608
-0.0007897680625319
0.0009368881583213
0.0028109336271882
0.0048880912363529
0.0071913502179086
0.0097119770944118
0.0124128255993127
0.0152340726926922
0.0181006714701652
0.0209310464560985
0.0236470010131597
0.0261795669794082
0.0284676030278205
0.0304571837186813
0.032105017453432
0.0333750322461128
0.0342204272747039
0.0345572754740715
0.0342454873025417
0.0330935791134834
0.0308915339410305
0.0274615585803985
0.0227123238146305
0.0166821964085102
0.0095564592629671
0.0016530370339751
-0.0066140699200332
-0.0147848073393106
-0.02241126075387
-0.0291100721806287
-0.0345944128930568
-0.0386833883821964
-0.0412967801094055
-0.0424452163279056
-0.0422203615307807
-0.0407833904027938
-0.0383488312363624
-0.0351639352738857
-0.0314872078597545
-0.0275693405419588
-0.0236351527273654
-0.0198640450835227
-0.0163740329444408
-0.0132192755118012
-0.0104013681411743
-0.007881567813456
-0.005587481893599
-0.0034231161698698
-0.0012858444824814
0.0009179655462503
0.0032624388113617
0.0057934923097491
0.0085225868970155
0.0114274667575955
0.0144596360623836
0.0175531283020973
0.0206314977258443
0.0236162580549716
0.0264379270374774
0.0290407259017229
0.0313771925866603
0.0334040522575378
0.035083208233118
0.0363744720816612
0.0372133255004882
0.0374875403940677
0.0370304770767688
0.0356386005878448
0.0331125780940055
0.0293110758066177
0.0241975281387567
0.0178662296384573
0.0105449026450514
0.0025769998319447
-0.0056114802137017
-0.0135599430650472
-0.0208307839930057
-0.027058808133006
-0.0319786518812179
-0.035432830452919
-0.037369679659605
-0.0378364324569702
-0.036967534571886
-0.0349674262106418
-0.0320884771645069
-0.0286063086241483
-0.0247956775128841
-0.0209089573472738
-0.0171579718589782
-0.0136990156024694
-0.0106210829690098
-0.0079436041414737
-0.0056284517049789
-0.0035976758226752
-0.0017485627904534
3.169383853673935e-05
0.0018483912572264
0.003782954532653
0.0058839684352278
0.0081662768498063
0.010615631006658
0.0131952334195375
0.0158501006662845
0.0185101050883531
0.0210966989398002
0.0235346853733062
0.0257639866322278
0.0277433767914772
0.0294441040605306
0.0308394227176904
0.0318910554051399
0.0325295440852642
0.032636422663927
0.0320431292057037
0.0305529963225126
0.0279804430902004
0.0241969507187604
0.0191748440265655
0.0130171906203031
0.0059617348015308
-0.0016414658166468
-0.009369277395308
-0.0167727693915367
-0.0234284549951553
-0.0289872474968433
-0.0332069993019104
-0.0359606742858886
-0.037228412926197
-0.037086047232151
-0.0356937646865844
-0.0332810580730438
-0.0301260594278574
-0.0265305917710065
-0.0227910969406366
-0.0191679578274488
-0.0158613063395023
-0.0129985036328434
-0.0106288781389594
-0.0087229693308472
-0.0071839205920696
-0.0058745918795466
-0.0046487348154187
-0.0033734356984496
-0.0019417309667915
-0.0002804647083394
0.0016450986731797
0.0038321686442941
0.006245878059417
0.0088262651115655
0.0114962058141827
0.0141705852001905
0.0167657397687435
0.0192058272659778
0.0214219857007265
0.0233418736606836
0.0248689148575067
0.0258591398596763
0.0261155720800161
0.0254131276160478
0.0235451702028512
0.0203748904168605
0.0158794224262237
0.0101763140410184
0.0035246824845671
-0.0036995466798543
-0.0110494708642363
-0.0180624555796384
-0.0243110116571187
-0.029443547129631
-0.0332108363509178
-0.0354746207594871
-0.0362072028219699
-0.0354892574250698
-0.0334992222487926
-0.030492004007101
-0.0267719291150569
-0.0226613841950893
-0.0184670742601156
-0.0144496476277709
-0.0108032384887337
-0.0076454859226942
-0.0050131492316722
-0.0028652569744735
-0.0010993345640599
0.0004245855379849
0.0018617071909829
0.0033626251388341
0.0050518764182925
0.0070080403238534
0.009253985248506
0.0117598054930567
0.014454960823059
0.017244653776288
0.0200254209339618
0.0226988736540079
0.0251828972250223
0.027416693046689
0.0293604601174592
0.030991718173027
0.0322929099202156
0.0332275629043579
0.0337154157459735
0.0336201339960098
0.032754186540842
0.0309028383344411
0.0278694853186607
0.0235313698649406
0.0178860481828451
0.0110766114667057
0.0033898204565048
-0.0047742826864123
-0.0129531119018793
-0.0206794776022434
-0.0275356359779834
-0.0331939905881881
-0.0374371483922004
-0.0401590541005134
-0.0413559675216674
-0.0411135368049144
-0.0395949147641658
-0.0370289459824562
-0.0336891449987888
-0.0298635810613632
-0.0258262008428573
-0.0218149907886981
-0.0180158242583274
-0.014550982043147
-0.0114746131002902
-0.0087771276012063
-0.0063973627984523
-0.0042398455552756
-0.0021940376609563
-0.000151292188093
0.0019838253501802
0.0042851902544498
0.0067941891029477
0.0095091862604022
0.0123855806887149
0.0153480786830186
0.0183063633739948
0.0211668759584426
0.0238407291471958
0.0262518562376499
0.0283457841724157
0.0300953313708305
0.0315001010894775
0.0325798988342285
0.0333663001656532
0.0338937230408191
0.0341857075691223
0.0342341177165508
0.0339745208621025
0.0332688018679618
0.0319110937416553
0.029663261026144
0.0263101328164339
0.0217173472046852
0.0158754047006368
0.008920220658183
0.0011276919394731
-0.0071173561736941
-0.0153707303106784
-0.0231826864182949
-0.0301465205848217
-0.035937625914812
-0.0403353422880172
-0.0432255193591117
-0.0445962026715278
-0.0445343889296054
-0.0432157441973686
-0.0408821813762187
-0.0378127209842205
-0.0342930667102336
-0.0305885821580886
-0.0269246455281972
-0.02347357198596
-0.0203453004360198
-0.0175833962857723
-0.0151699818670749
-0.0130392359569668
-0.0110949678346514
-0.0092264013364911
-0.0073210978880524
-0.0052806586027145
-0.003037862945348
-0.0005659265443682
0.0021221414208412
0.0049805054441094
0.0079412972554564
0.0109259542077779
0.0138542503118515
0.0166505090892314
0.0192478969693183
0.0215925239026546
0.0236480347812175
0.0253979507833719
0.0268440451472997
0.0280033126473426
0.0289006680250167
0.0295458696782588
0.029896879568696
0.0298347733914852
0.0291702281683683
0.0276785809546709
0.0251502096652984
0.0214435271918773
0.0165277384221553
0.010505648329854
0.0036133984103798
-0.0038028312847018
-0.0113297114148736
-0.0185388438403606
-0.0250355266034603
-0.0304963663220405
-0.0346924066543579
-0.0374990701675415
-0.038897305727005
-0.0389656350016593
-0.0378605425357818
-0.0357917249202728
-0.0330009423196315
-0.0297425240278244
-0.0262608621269464
-0.0227683912962675
-0.0194294229149818
-0.016350757330656
-0.0135796377435326
-0.0111092738807201
-0.0088906390592455
-0.0068467231467366
-0.0048845964483916
-0.0029082766268402
-0.0008358871564269
0.0013865026412531
0.0037804362364113
0.0063371621072292
0.0090222712606191
0.0117812901735305
0.0145470518618822
0.0172484274953603
0.0198176205158233
0.0221950747072696
0.0243330691009759
0.0261989720165729
0.0277776177972555
0.0290724672377109
0.030105784535408
0.0309131406247615
0.0315297916531562
0.0319767408072948
0.0322481952607631
0.0322934091091156
0.0319988280534744
0.0311870723962783
0.0296413507312536
0.0271508675068616
0.0235628113150596
0.018825527280569
0.0130141768604516
0.0063346829265356
-0.0008963393047451
-0.0082908207550644
-0.0154374940320849
-0.0219522267580032
-0.0275215655565261
-0.031926903873682
-0.0350477434694767
-0.0368546061217784
-0.0374001674354076
-0.0368093103170394
-0.0352646335959434
-0.0329875387251377
-0.0302175395190715
-0.0271910019218921
-0.024121755734086
-0.0211847256869077
-0.0185017045587301
-0.0161320939660072
-0.0140724871307611
-0.012267698533833
-0.0106315417215228
-0.0090680196881294
-0.0074856942519545
-0.0058066174387931
-0.0039731506258249
-0.001953505910933
0.0002551772631704
0.0026280421297997
0.0051172473467886
0.0076575409621
0.0101734548807144
0.0125895906239748
0.0148411393165588
0.0168818496167659
0.0186883397400379
0.0202571135014295
0.0215935781598091
0.022702282294631
0.0235856752842664
0.0242446735501289
0.02467006072402
0.0248236469924449
0.024620221927762
0.0239254552870988
0.0225766170769929
0.0204187855124473
0.0173435285687446
0.0133222183212637
0.0084289964288473
0.0028477334417402
-0.0031402905005961
-0.0091897128149867
-0.0149408504366874
-0.0200681947171688
-0.0243110731244087
-0.0274872779846191
-0.0294983256608247
-0.0303286220878362
-0.0300390049815177
-0.0287586264312267
-0.0266750771552324
-0.0240179356187582
-0.0210356023162603
-0.0179700907319784
-0.0150327645242214
-0.0123827587813138
-0.0101118003949522
-0.0082419989630579
-0.0067380513064563
-0.0055239596404135
-0.0044962270185351
-0.0035369046963751
-0.0025302632711827
-0.001378356013447
-1.055607572197914e-05
0.0016107666306197
0.0034871101379394
0.0055865049362182
0.0078510409221053
0.0102053256705403
0.0125659722834825
0.0148529456928372
0.0170003063976764
0.0189605113118886
0.020700104534626
0.0221931263804435
0.0234133508056402
0.0243189632892608
0.024833170697093
0.0248342715203762
0.0241648722440004
0.0226596072316169
0.020182903856039
0.0166665222495794
0.0121396481990814
0.0067451167851686
0.0007341768941842
-0.0055598705075681
-0.0117603540420532
-0.0174933392554521
-0.0224351342767477
-0.0263461358845233
-0.029082017019391
-0.0305896066129207
-0.0308985188603401
-0.0301107801496982
-0.0283861104398965
-0.025924913585186
-0.0229510758072137
-0.0196938645094633
-0.0163699649274349
-0.0131662394851446
-0.010223445482552
-0.0076228026300668
-0.0053791161626577
-0.003447295166552
-0.0017428286373615
-0.0001649446785449
0.0013850852847099
0.002990405075252
0.0047108782455325
0.0065807658247649
0.0086089540272951
0.0107811158522963
0.0130643136799335
0.0154127897694706
0.0177723430097103
0.0200828611850738
0.0222818814218044
0.0243118312209844
0.0261289030313491
0.0277068652212619
0.0290328729897737
0.0301012322306633
0.0309108048677444
0.0314612425863742
0.0317384228110313
0.0316904969513416
0.0312090646475553
0.03012933768332
0.0282540190964937
0.0253955796360969
0.0214249342679977
0.0163136944174766
0.0101591730490326
0.0031865721102803
-0.0042705861851572
-0.0118090538308024
-0.0190087091177701
-0.0254876147955656
-0.0309438295662403
-0.0351749695837497
-0.0380790904164314
-0.0396462492644786
-0.0399451851844787
-0.0391077734529972
-0.0373138338327407
-0.0347756594419479
-0.0317216515541076
-0.0283788554370403
-0.0249545704573392
-0.0216187909245491
-0.0184906609356403
-0.0156354643404483
-0.0130722504109144
-0.0107820015400648
-0.0087128328159451
-0.006788620725274
-0.004923035390675
-0.0030333129689097
-0.0010496852919459
0.0010786261409521
0.0033794147893786
0.0058554206043481
0.0084850583225488
0.0112265152856707
0.0140231885015964
0.0168088637292385
0.0195146612823009
0.0220758952200412
0.0244341343641281
0.0265387315303087
0.0283534359186887
0.0298632681369781
0.0310742519795894
0.0320061035454273
0.0326829105615615
0.0331198498606681
0.0332992561161518
0.0331434905529022
0.0325029641389846
0.0311697386205196
0.0289163719862699
0.0255521908402442
0.0209790412336587
0.0152257550507783
0.0084552839398384
0.0009511355310678
-0.0069127404130995
-0.0147157218307256
-0.02204130589962
-0.0285249482840299
-0.033887505531311
-0.0379491485655307
-0.0406281165778636
-0.0419316068291664
-0.0419436283409595
-0.0408120229840278
-0.0387341305613517
-0.0359382815659046
-0.0326618216931819
-0.0291315242648124
-0.0255501586943864
-0.0220871064811944
-0.018868863582611
-0.01596968062222
-0.0134072005748748
-0.0111455200240015
-0.0091050369665026
-0.0071786381304264
-0.0052526518702507
-0.003227767534554
-0.0010330341756343
0.0013701152056455
0.0039891102351248
0.0068023083731532
0.0097645539790391
0.0128153776749968
0.015883557498455
0.0188900642096996
0.0217549316585063
0.0244058296084404
0.0267850402742624
0.0288543049246072
0.0305956043303012
0.032007873058319
0.0331035777926445
0.0339060574769973
0.0344438478350639
0.0347386375069618
0.0347844697535038
0.0345222763717174
0.0338248386979103
0.0325029753148555
0.0303333532065153
0.0271062441170215
0.0226822346448898
0.0170387253165245
0.0102933561429381
0.0027014366351068
-0.0053694527596235
-0.0134835410863161
-0.0211919248104095
-0.0280857048928737
-0.0338374897837638
-0.0382264927029609
-0.041145734488964
-0.0425943247973918
-0.0426604188978672
-0.041503470391035
-0.0393408499658107
-0.036433033645153
-0.0330613292753696
-0.0295002236962318
-0.0259902402758598
-0.0227168723940849
-0.0197978802025318
-0.0172797366976737
-0.0151433888822793
-0.0133163649588823
-0.0116890938952565
-0.0101350862532854
-0.0085306130349636
-0.006768743507564
-0.004767816979438
-0.0024789432063698
0.0001057586632668
0.0029507083818316
0.0059847119264304
0.009114621207118
0.0122396675869822
0.0152633385732769
0.0181007906794548
0.0206841900944709
0.0229684170335531
0.0249338243156671
0.026580361649394
0.0279097873717546
0.0288991518318653
0.0294762719422578
0.0295088309794664
0.0288128685206174
0.027182200923562
0.0244362391531467
0.0204743221402168
0.0153189795091748
0.0091343242675066
0.0022155679762363
-0.0050445655360817
-0.0122035164386034
-0.0188225172460079
-0.024516899138689
-0.0289934054017066
-0.0320694036781787
-0.0336756259202957
-0.0338471755385398
-0.0327068157494068
-0.0304470751434564
-0.0273169092833995
-0.0236062053591012
-0.0196200311183929
-0.0156468134373426
-0.0119278216734528
-0.0086337253451347
-0.0058525530621409
-0.0035895863547921
-0.0017785960808396
-0.0003021331503987
0.0009850049391388
0.0022334400564432
0.0035784812644124
0.0051245056092739
0.0069380924105644
0.0090449545532464
0.0114268930628895
0.0140245873481035
0.0167498737573623
0.0195028372108936
0.0221872087568044
0.0247189588844776
0.0270279124379158
0.0290587432682514
0.0307751353830099
0.032163742929697
0.0332316942512989
0.0339922569692134
0.0344386808574199
0.0345142930746078
0.034094076603651
0.0329889096319675
0.0309719927608966
0.0278243776410818
0.0233927983790636
0.0176426749676466
0.0106889177113771
0.0027966951020061
-0.0056468727998435
-0.0141817815601825
-0.0223308969289064
-0.0296519268304109
-0.035782553255558
-0.0404721014201641
-0.0435914620757103
-0.045124027878046
-0.0451478697359561
-0.0438194125890731
-0.0413624122738838
-0.0380541011691093
-0.0342000611126422
-0.0301017817109823
-0.026027712970972
-0.0221928637474775
-0.0187444649636745
-0.015753025189042
-0.0132130403071641
-0.0110549107193946
-0.0091637130826711
-0.0074000544846057
-0.0056212805211544
-0.0037003098987042
-0.0015381560660898
0.0009267656132578
0.0037085395306348
0.0067701637744903
0.0100322747603058
0.013388879597187
0.0167242959141731
0.0199292972683906
0.0229139104485511
0.0256131757050752
0.0279860291630029
0.0300126783549785
0.0316933952271938
0.0330451652407646
0.0340924561023712
0.0348516926169395
0.0353083871304988
0.0353869684040546
0.0349272564053535
0.0336904488503932
0.0314022153615951
0.0278196707367897
0.0227999594062566
0.0163491107523441
0.0086394902318716
-3.41096892952919e-06
-0.0091363741084933
-0.0182485710829496
-0.0268224701285362
-0.03439661860466
-0.0406138449907302
-0.0452428683638572
-0.0481760203838348
-0.0494183413684368
-0.0490785799920558
-0.0473556146025657
-0.0445133671164512
-0.0408507026731967
-0.0366739258170127
-0.0322726517915725
-0.027898060157895
-0.023744773119688
-0.0199389215558767
-0.0165343526750803
-0.0135186146944761
-0.0108266761526465
-0.0083563541993498
-0.0059836208820343
-0.0035800961777567
-0.0010335342958569
0.0017327647656202
0.0047491500154137
0.0079996809363365
0.0114305187016725
0.0149635123088955
0.0185094401240348
0.0219777561724185
0.0252844505012035
0.0283581651747226
0.0311439875513315
0.0336056426167488
0.0357260182499885
0.037505067884922
0.0389555804431438
0.0400938428938388
0.0409136302769184
0.0413453318178653
0.041228961199522
0.0403235703706741
0.0383503548800945
0.0350560545921325
0.0302793364971876
0.0240026693791151
0.016377929598093
0.0077203721739351
-0.0015269587747752
-0.0108493529260158
-0.019724391400814
-0.027679618448019
-0.0343331396579742
-0.0394163765013217
-0.0427859649062156
-0.0444271154701709
-0.0444436594843864
-0.043035440146923
-0.0404702313244342
-0.0370543412864208
-0.033104084432125
-0.0289215128868818
-0.0247735753655433
-0.0208718255162239
-0.0173562299460172
-0.0142898168414831
-0.0116645665839314
-0.0094135338440537
-0.0074252788908779
-0.0055601568892598
-0.0036716694012284
-0.0016321893781423
0.0006463006138801
0.0032040495425462
0.0060366680845618
0.0091041726991534
0.0123418094590306
0.0156698282808065
0.0190005283802747
0.022243782877922
0.0253134220838546
0.0281347446143627
0.0306507050991058
0.0328250564634799
0.0346441939473152
0.036116175353527
0.0372566096484661
0.0380554981529712
0.0384390950202941
0.0382498316466808
0.0372564792633056
0.0351942479610443
0.0318255834281444
0.0270034968852996
0.020720537751913
0.0131347086280584
0.0045657367445528
-0.004540485329926
-0.0136702228337526
-0.0223070383071899
-0.0299888961017131
-0.036347396671772
-0.0411305502057075
-0.0442155040800571
-0.0456076189875602
-0.0454231798648834
-0.0438652113080024
-0.0411998592317104
-0.037731796503067
-0.0337774343788623
-0.0296383332461118
-0.0255768597126007
-0.021794568747282
-0.0184166710823774
-0.0154872527346014
-0.0129754897207021
-0.0107896039262413
-0.008795884437859
-0.0068434025160968
-0.0047925659455358
-0.0025372277013957
-1.401687040925026e-05
0.002796578221023
0.0058732270263135
0.0091614937409758
0.0125859510153532
0.0160609073936939
0.0194954648613929
0.022797979414463
0.0258838627487421
0.0286830216646194
0.0311449039727449
0.0332428775727748
0.0349763631820678
0.0363641083240509
0.0374257676303386
0.0381557457149028
0.0384938195347785
0.038303442299366
0.0373747050762176
0.035458043217659
0.0323195792734622
0.0278035774827003
0.0218853503465652
0.0146999461576342
0.006539992056787
-0.0021758740767836
-0.0109562259167432
-0.0192974582314491
-0.0267379079014062
-0.0329009182751178
-0.0375259034335613
-0.0404835827648639
-0.0417746156454086
-0.041515827178955
-0.0399188920855522
-0.0372648127377033
-0.0338764265179634
-0.0300895869731903
-0.0262215845286846
-0.0225396398454904
-0.0192381013184785
-0.0164282843470573
-0.0141375567764043
-0.012314349412918
-0.0108397975564002
-0.0095509504899382
-0.0082746278494596
-0.0068593234755098
-0.0051949494518339
-0.0032203348819166
-0.0009220050415024
0.0016715243691578
0.0044969525188207
0.0074661723338067
0.0104799643158912
0.0134409647434949
0.0162629839032888
0.0188786629587411
0.0212431941181421
0.0233283843845129
0.0251029767096042
0.0264984536916017
0.0273762680590152
0.0275228507816791
0.0266808774322271
0.0246065631508827
0.0211372822523117
0.0162486638873815
0.0100825000554323
0.0029405220411717
-0.004750438965857
-0.0124928029254078
-0.0197805501520633
-0.0261569134891033
-0.0312575101852417
-0.0348336920142173
-0.0367583222687244
-0.0370251536369323
-0.0357483737170696
-0.0331535525619983
-0.0295523051172494
-0.0253045931458473
-0.0207773465663194
-0.0163067486137151
-0.0121675627306103
-0.0085502676665782
-0.0055483006872236
-0.0031577984336763
-0.0012897651176899
0.0002062474377453
0.0015113693661987
0.0028095999732613
0.0042672390118241
0.0060129156336188
0.0081180352717638
0.0105893658474087
0.0133772566914558
0.0163911692798137
0.0195166077464818
0.0226317606866359
0.0256221909075975
0.028391383588314
0.0308666247874498
0.0330013334751129
0.0347706899046897
0.0361536964774131
0.0371023677289485
0.0375124029815197
0.0372131951153278
0.0359820649027824
0.0335787646472454
0.0298004187643528
0.0245475247502326
0.0178756862878799
0.0100123109295964
0.0013351254165172
-0.0076762996613979
-0.0165009815245866
-0.0246379561722278
-0.0316594243049621
-0.0372471064329147
-0.0412091873586177
-0.0434801280498504
-0.044107150286436
-0.0432299301028251
-0.0410611927509307
-0.0378704629838466
-0.0339652933180332
-0.0296649038791656
-0.0252695903182029
-0.0210328921675682
-0.0171407144516706
-0.0136990090832114
-0.0107314251363277
-0.0081876665353775
-0.0059613892808556
-0.0039144330658018
-0.0019020154140889
0.0002064765430986
0.0025140945799648
0.0050890957936644
0.007957199588418
0.0110928118228912
0.0144204394891858
0.0178305804729461
0.021200843155384
0.0244141202419996
0.0273723341524601
0.0300049558281898
0.0322703458368778
0.0341508649289608
0.0356429554522037
0.0367371812462806
0.0373858921229839
0.037472516298294
0.036805622279644
0.0351475104689598
0.032265555113554
0.0279890913516283
0.0222615227103233
0.0151763278990983
0.0069860024377703
-0.0019178790971636
-0.0110494252294301
-0.0198898091912269
-0.0279512032866477
-0.0348293781280517
-0.0402358993887901
-0.0440071076154708
-0.046097032725811
-0.0465657338500022
-0.0455643981695175
-0.0433125682175159
-0.0400737859308719
-0.0361380204558372
-0.0318043269217014
-0.0273550003767013
-0.0230267662554979
-0.0189900696277618
-0.0153405126184225
-0.0121007980778813
-0.0092308185994625
-0.0066427593119442
-0.0042191613465547
-0.0018338460940867
0.0006273854523897
0.003251084825024
0.0060884617269039
0.0091548934578895
0.0124307218939065
0.0158604979515075
0.019356383010745
0.022809924557805
0.0261080861091613
0.0291481241583824
0.0318485274910926
0.034154787659645
0.0360412895679473
0.037509799003601
0.0385842509567737
0.0393020845949649
0.0396975092589855
0.039771731942892
0.0394605845212936
0.038619939237833
0.0370367914438247
0.0344630926847457
0.0306693352758884
0.0255079772323369
0.0189677737653255
0.0112012801691889
0.0025173816829919
-0.0066565657034516
-0.015830734744668
-0.0245148781687021
-0.0322740674018859
-0.0387663692235946
-0.0437588542699813
-0.0471285283565521
-0.0488568097352981
-0.0490205287933349
-0.047780193388462
-0.0453669615089893
-0.0420643910765647
-0.0381806306540966
-0.0340157896280288
-0.0298329070210456
-0.0258363783359527
-0.0221584346145391
-0.0188547167927026
-0.0159112848341465
-0.0132617335766553
-0.010807174257934
-0.0084350183606147
-0.0060378378257155
-0.0035291803069412
-0.0008509524050168
0.002022897824645
0.0050811348482966
0.0082751167938113
0.0115279601886868
0.0147484522312879
0.0178452096879482
0.0207378529012203
0.0233631748706102
0.0256765950471162
0.0276522785425186
0.0292839352041482
0.030583769083023
0.031578816473484
0.0323069095611572
0.032813124358654
0.0331433080136776
0.0333261638879776
0.0333420932292938
0.0330929495394229
0.0323929041624069
0.0309909097850322
0.0286196507513523
0.0250562392175197
0.0201798006892204
0.0140119567513465
0.0067304354161024
-0.001345369964838
-0.0097924945876002
-0.0181364398449659
-0.0259061902761459
-0.0326850898563861
-0.0381500124931335
-0.0420951545238494
-0.0444421954452991
-0.0452348515391349
-0.0446193441748619
-0.0428204834461212
-0.0401169583201408
-0.0368131659924984
-0.0332091227173805
-0.0295730177313089
-0.0261188298463821
-0.0229912176728248
-0.0202599335461854
-0.0179227907210588
-0.0159160271286964
-0.0141303185373544
-0.0124291330575943
-0.0106714600697159
-0.008738100528717
-0.0065503064543008
-0.0040749702602624
-0.001320841955021
0.0016695106169208
0.0048283301293849
0.0080702388659119
0.0113002732396125
0.0144236991181969
0.0173562671989202
0.0200309306383132
0.0223999377340078
0.0244354400783777
0.0261284559965133
0.0274806004017591
0.0284818280488252
0.0290775876492261
0.0291454754769802
0.0285009406507015
0.0269324611872434
0.0242533981800079
0.0203562900424003
0.0152545431628823
0.0090999994426965
0.0021745366975665
-0.0051413895562291
-0.0124168694019317
-0.0192240364849567
-0.0251857563853263
-0.0300077777355909
-0.0334924831986427
-0.0355428792536258
-0.0361634530127048
-0.0354538708925247
-0.0335918292403221
-0.0308093763887882
-0.0273692086338996
-0.0235422290861606
-0.0195842441171407
-0.0157136935740709
-0.0120949260890483
-0.0088288262486457
-0.0059515042230486
-0.0034414874389767
-0.0012315870262682
0.0007795593701303
0.0027145096100866
0.0046969437971711
0.0068264710716903
0.0091592958196997
0.0117027768865227
0.0144222592934966
0.0172538179904222
0.0201177205890417
0.0229294709861278
0.025607893243432
0.028081452473998
0.0302918870002031
0.0321947038173675
0.0337603874504566
0.0349782891571521
0.035859428346157
0.0364343337714672
0.0367442704737186
0.0368264280259609
0.0366961397230625
0.0363270826637744
0.0356316678225994
0.0344517938792705
0.0325708352029323
0.0297502968460321
0.025785855948925
0.0205671861767768
0.0141201689839363
0.0066175004467368
-0.0016400478780269
-0.010260509327054
-0.0188067238777875
-0.0268458779901266
-0.0339979752898216
-0.0399747379124164
-0.0445960313081741
-0.0477832183241844
-0.0495438203215599
-0.0499566122889518
-0.0491570197045803
-0.0473226942121982
-0.044660422950983
-0.0413933135569095
-0.0377460345625877
-0.0339279808104038
-0.0301170144230127
-0.0264472961425781
-0.0230024605989456
-0.0198125019669532
-0.0168579723685979
-0.0140849286690354
-0.0114227915182709
-0.0087981382384896
-0.0061449124477803
-0.0034111430868506
-0.000562606845051
0.0024147192016243
0.0055128927342593
0.0087024550884962
0.0119361747056245
0.0151545386761426
0.0182912983000278
0.0212800446897745
0.0240630730986595
0.0266000442206859
0.0288698598742485
0.0308630932122468
0.0325735509395599
0.0339972823858261
0.0351362191140651
0.0360011756420135
0.0366113111376762
0.0369873978197574
0.0371363572776317
0.037026148289442
0.0365595705807209
0.035565797239542
0.0338201150298118
0.031088039278984
0.0271836929023265
0.0220250133424997
0.0156656689941883
0.0082972869277
0.000229618512094
-0.0081440387293696
-0.0163914784789085
-0.0240906979888677
-0.0308759920299053
-0.0364707894623279
-0.0407007485628128
-0.0434906184673309
-0.0448542311787605
-0.0448834784328937
-0.0437354780733585
-0.0416160747408866
-0.038759771734476
-0.0354078784584999
-0.0317899473011493
-0.0281118415296077
-0.0245459917932748
-0.0212192945182323
-0.0182018391788005
-0.0155025627464056
-0.0130755761638283
-0.010836936533451
-0.0086857080459594
-0.0065222610719501
-0.0042618126608431
-0.0018435586243867
0.0007642596028745
0.0035628241021186
0.0065256780944764
0.0096059888601303
0.0127424746751785
0.0158605184406042
0.0188743285834789
0.0216954536736011
0.024245485663414
0.0264671351760625
0.0283293705433607
0.0298270694911479
0.0309771969914436
0.0318129584193229
0.0323769971728324
0.0327141843736171
0.0328652188181877
0.0328591801226139
0.0326997302472591
0.0323445238173007
0.0316841155290603
0.0305337440222501
0.0286537054926157
0.0257997922599315
0.0217879209667444
0.0165510103106498
0.0101699298247694
0.0028718402609229
-0.0049988450482487
-0.0130248144268989
-0.0207646321505308
-0.0278013125061988
-0.0337852872908115
-0.0384639799594879
-0.041694302111864
-0.0434396751224994
-0.043758787214756
-0.0427936315536499
-0.040755845606327
-0.0379062220454216
-0.0345286354422569
-0.0309034921228885
-0.027282940223813
-0.023869464173913
-0.0207999572157859
-0.0181387029588222
-0.0158811900764703
-0.0139647023752331
-0.0122835543006658
-0.0107100792229175
-0.0091157602146267
-0.0073855072259902
-0.0054289549589157
-0.0031940345652401
-0.0006760223768651
0.0020852903835475
0.0050176349468529
0.0080310124903917
0.0110297631472349
0.013920908793807
0.0166217926889657
0.0190675519406795
0.0212163049727678
0.0230510588735342
0.0245773680508136
0.0258162356913089
0.0267920307815074
0.0275108013302087
0.0279284231364727
0.0279260668903589
0.0273144133388996
0.0258691050112247
0.0233857128769159
0.0197382569313049
0.0149233974516391
0.0090793296694755
0.0024774959310889
-0.0045101307332515
-0.0114594455808401
-0.0179467126727104
-0.0235964115709066
-0.0281162336468696
-0.0313133224844932
-0.0330960638821125
-0.0334719009697437
-0.0325436107814312
-0.0304971896111965
-0.0275794677436351
-0.0240713860839605
-0.0202608238905668
-0.0164157450199127
-0.0127608375623822
-0.0094615872949361
-0.0066153779625892
-0.004248415119946
-0.0023202700540423
-0.0007370738312602
0.0006295489147305
0.0019238106906414
0.0032894844189286
0.0048499745316803
0.0066854255273938
0.0088208904489874
0.0112309521064162
0.0138515383005142
0.0165931992232799
0.0193560291081666
0.0220432989299297
0.0245694704353809
0.0268640741705894
0.0288752987980842
0.0305724889039993
0.0319457985460758
0.0330030396580696
0.033761978149414
0.0342350676655769
0.0344038195908069
0.0341888926923275
0.0334365293383598
0.0319360345602035
0.029463643208146
0.0258386190980672
0.0209760926663875
0.0149227762594819
0.0078675560653209
0.000125522725284
-0.0078999903053045
-0.0157668534666299
-0.0230452120304107
-0.0293636322021484
-0.0344414301216602
-0.038102276623249
-0.0402759201824665
-0.0409952774643898
-0.0403864011168479
-0.038648597896099
-0.0360290296375751
-0.0327973179519176
-0.0292230267077684
-0.0255556311458349
-0.022005220875144
-0.0187256634235382
-0.0158045906573534
-0.0132627068087458
-0.011061280965805
-0.0091157397255301
-0.0073125674389302
-0.0055260905064642
-0.0036381534300744
