bvp
0.0064810384064912
0.0016180276870727
-0.0033688154071569
-0.008098766207695
-0.012227514758706
-0.0154752191156148
-0.017644315958023
-0.0186339728534221
-0.0184458456933498
-0.0171747654676437
-0.0149878449738025
-0.0120980106294155
-0.0087359920144081
-0.0051246136426925
-0.0014585591852664
0.0021097473800182
0.0054776333272457
0.0085927732288837
0.0114493519067764
0.0140799097716808
0.0165447257459163
0.0189224109053611
0.0212973151355981
0.0237424839287996
0.0263072028756141
0.029013542458415
0.031858142465353
0.0348167046904563
0.0378497019410133
0.0409057475626468
0.043921448290348
0.0468156710267066
0.0494736544787883
0.0517278350889682
0.0533551834523677
0.054101001471281
0.0537222065031528
0.0520368628203868
0.0489631071686744
0.0445364192128181
0.0389096476137638
0.0323418490588665
0.0251751188188791
0.0178012195974588
0.010623313486576
0.0040193013846874
-0.0016850903630256
-0.006231565028429
-0.0094400383532047
-0.0112186558544635
-0.0115676261484622
-0.0105741061270236
-0.0084009505808353
-0.0052713304758071
-0.0014521144330501
0.0027635917067527
0.0070793144404888
0.0112236887216568
0.0149793196469545
0.0182066783308982
0.0208576153963804
0.0229720100760459
0.0246568992733955
0.0260577611625194
0.0273316912353038
0.0286248568445444
0.0300535578280687
0.0316902101039886
0.0335580818355083
0.0356354564428329
0.0378579460084438
0.0401057675480842
0.0421829894185066
0.0438096970319747
0.0446412861347198
0.0443159490823745
0.0425198003649711
0.039051741361618
0.033870406448841
0.0271133091300725
0.0190854016691446
0.0102211823686957
0.0010310928337275
-0.0079573802649974
-0.0162526611238718
-0.0234363935887813
-0.0291898865252733
-0.0333171561360359
-0.0357558131217956
-0.0365676581859588
-0.0359168723225593
-0.0340447947382926
-0.0312413834035396
-0.0278141815215349
-0.0240597575902938
-0.0202400367707014
-0.0165631510317325
-0.0131702292710542
-0.0101312408223748
-0.0074503547511994
-0.0050770249217748
-0.0029207468032836
-0.000872463453561
0.0011698126327246
0.0032826163806021
0.0055112405680119
0.0078709349036216
0.0103500168770551
0.0129144890233874
0.0155116589739918
0.0180635936558246
0.0204461850225925
0.0224665440618991
0.0238582212477922
0.0243058055639266
0.0234959796071052
0.0211798548698425
0.017231747508049
0.0116887241601943
0.0047552827745676
-0.0032226350158452
-0.0117976516485214
-0.0204679612070322
-0.0287288296967744
-0.0361213982105255
-0.0422703400254249
-0.0469060763716697
-0.049873910844326
-0.0511354357004165
-0.0507650822401046
-0.0489395968616008
-0.04591716080904
-0.0420060381293296
-0.0375275686383247
-0.0327836796641349
-0.0280353389680385
-0.0234868992120027
-0.0192733276635408
-0.0154566336423158
-0.0120336664840579
-0.0089491056278347
-0.0061103664338588
-0.0034058820456266
-0.0007252916693687
0.0020225085318088
0.0048967842012643
0.0079202633351087
0.0110814403742551
0.0143406856805086
0.0176379233598709
0.0208979249000549
0.0240296479314565
0.0269206222146749
0.0294260270893573
0.0313539206981658
0.0324592292308807
0.0324619822204113
0.0310916975140571
0.0281440541148185
0.0235320385545492
0.0173197388648986
0.0097317732870578
0.0011353474110364
-0.0080009717494249
-0.0171607136726379
-0.0258314907550811
-0.0335504859685897
-0.0399449206888675
-0.0447601526975631
-0.0478682108223438
-0.0492616072297096
-0.0490401089191436
-0.0473934337496757
-0.0445785447955131
-0.0408919602632522
-0.0366422906517982
-0.0321254357695579
-0.0276014748960733
-0.0232751742005348
-0.0192824974656105
-0.0156835168600082
-0.0124645885080099
-0.0095541281625628
-0.0068484586663544
-0.0042356746271252
-0.0016115522012114
0.0011079544201493
0.0039762808009982
0.0070117302238941
0.0101979505270719
0.0134867141023278
0.0168052650988101
0.0200689416378736
0.0231946613639593
0.0261105950921773
0.0287593565881252
0.0310978274792432
0.0330938175320625
0.0347059853374958
0.0358448065817356
0.0363438427448272
0.0359685979783535
0.0344610288739204
0.0316002704203128
0.0272591412067413
0.0214445274323225
0.0143164340406656
0.0061804745346307
-0.0025454200804233
-0.0113795408979058
-0.0198293700814247
-0.0274412035942077
-0.0338383764028549
-0.0387439057230949
-0.041994322091341
-0.0435510650277137
-0.0435010865330696
-0.0420384034514427
-0.0394324250519275
-0.0359938703477382
-0.0320439077913761
-0.0278861373662948
-0.0237810090184211
-0.0199259221553802
-0.0164441149681806
-0.013382451608777
-0.0107178827747702
-0.0083721075206995
-0.0062293065711855
-0.0041529405862092
-0.0020067780278623
0.0003181374631822
0.0028826934285461
0.0056952214799821
0.0087195001542568
0.0118872839957475
0.0151117397472262
0.0182999707758426
0.0213644914329051
0.0242331828922033
0.0268504321575164
0.0291616320610046
0.0310853775590658
0.0324881486594677
0.0331775546073913
0.0329243205487728
0.0315073765814304
0.0287649855017662
0.0246402695775032
0.019212944433093
0.0127075221389532
0.0054739350453019
-0.0020540170371532
-0.00941096059978
-0.0161513984203338
-0.0218915604054927
-0.0263382550328969
-0.029306836426258
-0.0307292193174362
-0.0306518767029047
-0.0292240045964717
-0.0266750399023294
-0.0232872553169727
-0.0193706899881362
-0.0152375055477023
-0.0111724929884076
-0.0074053364805877
-0.0040912902913987
-0.0013017633464187
0.0009751321049407
0.0028222373221069
0.0043703629635274
0.0057715019211173
0.007174558006227
0.0087051931768655
0.0104505298659205
0.0124516999348998
0.014705809764564
0.017172235995531
0.0197786707431077
0.0224302839487791
0.025022255256772
0.0274453442543745
0.029575290158391
0.0312520712614059
0.0322678834199905
0.0323786064982414
0.0313396677374839
0.0289562344551086
0.0251329820603132
0.0199096910655498
0.0134730581194162
0.0061433361843228
-0.0016583018004894
-0.0094580985605716
-0.0167888756841421
-0.0232434719800949
-0.0285076275467872
-0.0323740914463996
-0.0347455665469169
-0.035629566758871
-0.0351271294057369
-0.0334154404699802
-0.0307248532772064
-0.0273174252361059
-0.0234698802232742
-0.0194538310170173
-0.0155104966834187
-0.0118262814357876
-0.0085158478468656
-0.0056188888847827
-0.0031119477935135
-0.0009270336013287
0.0010304017923772
0.0028655831702053
0.0046802023425698
0.0065605025738477
0.0085696363821625
0.0107433646917343
0.0130871795117855
0.0155754052102565
0.0181536432355642
0.0207463689148426
0.0232679415494203
0.0256330668926239
0.0277625191956758
0.0295724496245384
0.0309443138539791
0.0317005887627601
0.0316110923886299
0.0304276794195175
0.027933232486248
0.0239932164549827
0.01859812438488
0.0118855126202106
0.0041348496451973
-0.0042635258287191
-0.0128550771623849
-0.0211717188358306
-0.0287784617394208
-0.0353088602423667
-0.0404850840568542
-0.0441283918917179
-0.046166568994522
-0.0466325655579566
-0.0456495247781276
-0.043410163372755
-0.0401569716632366
-0.0361618511378765
-0.0317028574645519
-0.0270400419831275
-0.0223945751786232
-0.0179344099014997
-0.0137698948383331
-0.0099588371813297
-0.0065141292288899
-0.0034083109349012
-0.0005767429247498
0.002072986215353
0.0046409154310822
0.0072117140516638
0.0098408181220293
0.0125530213117599
0.0153477527201175
0.0182042736560106
0.021086560562253
0.0239487793296575
0.0267386846244335
0.029400534927845
0.0318814143538475
0.0341381914913654
0.0361397489905357
0.0378611236810684
0.0392658673226833
0.0402757376432418
0.0407429337501525
0.0404516234993934
0.0391558669507503
0.0366360209882259
0.0327547527849674
0.0274988170713186
0.0209968332201242
0.0135116977617144
0.0054114684462547
-0.00287447264418
-0.0109043158590793
-0.0182688720524311
-0.0246272943913936
-0.0297291539609432
-0.0334200970828533
-0.0356387831270694
-0.0364155955612659
-0.0358691401779651
-0.0341913662850856
-0.031622976064682
-0.0284262634813785
-0.0248589310795068
-0.0211517978459596
-0.0174940861761569
-0.0140248080715537
-0.0108281169086694
-0.0079344473779201
-0.0053273569792509
-0.0029540481045842
-0.0007371916435658
0.001413504127413
0.0035867143888026
0.00585095025599
0.0082400133833289
0.0107502285391092
0.0133488364517688
0.0159861966967582
0.0186053737998008
0.0211488008499145
0.0235623605549335
0.0257961265742778
0.0278052985668182
0.0295544043183326
0.0310214683413505
0.0321983955800533
0.0330902151763439
0.0337170548737049
0.0341115966439247
0.0343030169606208
0.0342932194471359
0.0340342372655868
0.0334123708307743
0.0322492904961109
0.0303270705044269
0.0274308025836944
0.0233954768627882
0.0181469470262527
0.01173129491508
0.0043257642537355
-0.0037750452756881
-0.0121936649084091
-0.0205130185931921
-0.0283205136656761
-0.0352511182427406
-0.0410232841968536
-0.0454568117856979
-0.0484710857272148
-0.0500740110874176
-0.0503501631319522
-0.0494481995701789
-0.0475656278431415
-0.0449320264160633
-0.0417897254228591
-0.0383707284927368
-0.0348761528730392
-0.0314635038375854
-0.0282394867390394
-0.0252567566931247
-0.0225149448961019
-0.0199690070003271
-0.0175478383898735
-0.0151751674711704
-0.0127832982689142
-0.0103194126859307
-0.0077479020692408
-0.0050518102943897
-0.0022334270179271
0.0006868917844258
0.0036737050395458
0.0066816359758377
0.0096604144200682
0.0125581817701458
0.0153248701244592
0.0179168675094842
0.0203019548207521
0.0224586706608533
0.0243689231574535
0.0260146465152502
0.0273834057152271
0.028474835678935
0.0292990393936634
0.0298630632460117
0.0301480144262313
0.0300864726305007
0.029553335160017
0.0283775702118873
0.0263734497129917
0.0233840867877006
0.0193256102502346
0.0142199164256453
0.0082085207104682
0.0015423670411109
-0.0054516913369297
-0.01241494435817
-0.0189970806241035
-0.0248876754194498
-0.0298386309295892
-0.0336772464215755
-0.0363105311989784
-0.0377229005098342
-0.0379701443016529
-0.0371702164411544
-0.0354892015457153
-0.0331238247454166
-0.0302841998636722
-0.0271775070577859
-0.0239910073578357
-0.0208772011101245
-0.0179459322243928
-0.0152624044567346
-0.012848031707108
-0.0106841214001178
-0.0087186675518751
-0.0068771257065236
-0.0050774873234331
-0.0032446426339447
-0.0013188626617193
0.0007395539432764
0.0029463330283761
0.0052915997803211
0.0077423183247447
0.0102485483512282
0.0127527387812733
0.0151968691498041
0.0175236575305461
0.019678745418787
0.0216182395815849
0.0233148261904716
0.0247560422867536
0.0259330384433269
0.0268211290240287
0.0273578818887472
0.0274303704500198
0.0268841106444597
0.0255551356822252
0.0233134403824806
0.0201025307178497
0.0159660801291465
0.0110567603260278
0.005621263757348
-3.532838309183717e-05
-0.0055904258042573
-0.0107379695400595
-0.0152131896466016
-0.0188085082918405
-0.021382138133049
-0.0228630173951387
-0.0232534445822238
-0.022626843303442
-0.0211197137832641
-0.0189187824726104
-0.016243327409029
-0.0133238118141889
-0.0103780943900346
-0.0075861318036913
-0.0050715468823909
-0.0028983950614929
-0.0010781791061162
0.0004203231073915
0.0016597588546574
0.0027234889566898
0.0037064431235194
0.0047045103274285
0.0058012036606669
0.0070557510480284
0.0084975687786936
0.0101266438141465
0.0119167827069759
0.0138205513358116
0.015776339918375
0.0177185498178005
0.019586132839322
0.0213242061436176
0.0228833444416522
0.0242185555398464
0.0252811443060636
0.0260021537542343
0.0262768529355525
0.0259623266756534
0.0248926915228366
0.0229086373001337
0.0198955349624156
0.0158201251178979
0.0107536073774099
0.0048759528435766
-0.0015369814354926
-0.0081407595425844
-0.0145632922649383
-0.0204540584236383
-0.0255240499973297
-0.0295639000833034
-0.032446913421154
-0.0341272540390491
-0.034634917974472
-0.0340660884976387
-0.0325701534748077
-0.030334485694766
-0.0275659263134002
-0.0244708266109228
-0.0212385766208171
-0.0180302932858467
-0.0149693321436643
-0.0121340043842792
-0.0095583898946642
-0.007240492850542
-0.0051502110436558
-0.0032355058938264
-0.0014300746843218
0.0003377078101038
0.0021357731893658
0.0040183076635003
0.0060168863274157
0.0081378500908613
0.0103654293343424
0.0126654095947742
0.0149885658174753
0.0172768421471118
0.0194721221923828
0.0215245466679334
0.0233954526484012
0.0250537488609552
0.0264734663069248
0.0276334434747695
0.0285076070576906
0.0290423016995191
0.0291346758604049
0.0286304503679275
0.0273465402424335
0.0251085795462131
0.0217918399721384
0.0173588190227746
0.0118848038837313
0.0055629010312259
-0.0013117515482008
-0.0083737839013338
-0.0152330016717314
-0.0215261038392782
-0.0269576776772737
-0.0313198268413543
-0.0344939492642879
-0.036442894488573
-0.0372000858187675
-0.0368583016097545
-0.0355582423508167
-0.0334754809737205
-0.0308047514408826
-0.027743512764573
-0.0244775116443634
-0.0211686827242374
-0.0179446563124656
-0.0148898744955658
-0.01204221136868
-0.0094000687822699
-0.0069361217319965
-0.0046082250773906
-0.0023652892559766
-0.0001528887078166
0.0020785862579941
0.0043655512854456
0.0067267632111907
0.0091642001643776
0.0116655826568603
0.0142045160755515
0.0167411118745803
0.0192272551357746
0.0216155480593442
0.0238680336624383
0.0259580481797456
0.0278636254370212
0.0295616537332534
0.0310260355472564
0.0322215296328067
0.0330903455615043
0.0335380882024765
0.033427707850933
0.0325882732868194
0.0308403633534908
0.0280340574681758
0.0240909960120916
0.0190377011895179
0.0130177214741706
0.0062816413119435
-0.0008369636489078
-0.0079586775973439
-0.0147058824077248
-0.0207455065101385
-0.025816923007369
-0.0297459010034799
-0.0324456021189689
-0.0339080058038234
-0.0341923274099826
-0.033414103090763
-0.0317347757518291
-0.029349410906434
-0.0264705885201692
-0.0233099963515996
-0.0200603324919939
-0.0168782453984022
-0.013870914466679
-0.0110937785357236
-0.0085609275847673
-0.0062574264593422
-0.0041456473991274
-0.0021684374660253
-0.0002553556114435
0.0016651498153805
0.0036523477174341
0.0057448716834187
0.0079570496454834
0.0102781616151332
0.0126754287630319
0.0151004288345575
0.0174967981874942
0.0198073722422122
0.0219814516603946
0.0239802747964859
0.0257760565727949
0.0273473560810089
0.0286754257977008
0.0297387316823005
0.0304992496967315
0.0308808702975511
0.0307541899383068
0.0299430787563323
0.0282549113035202
0.025525577366352
0.0216648858040571
0.0166880562901496
0.0107270264998078
0.0040240846574306
-0.0030898759141564
-0.010234554298222
-0.0170309543609619
-0.0231445468962192
-0.0283097513020038
-0.0323409028351306
-0.0351346023380756
-0.036666102707386
-0.0369842052459716
-0.0362032167613506
-0.034489557147026
-0.0320456512272357
-0.0290919989347457
-0.0258476715534925
-0.0225123763084411
-0.0192511528730392
-0.0161820817738771
-0.013372111134231
-0.0108430758118629
-0.008581330999732
-0.0065460102632641
-0.0046763056889176
-0.0028994865715503
-0.0011410391889512
0.0006656455807387
0.0025720689445734
0.0046089817769825
0.0067825298756361
0.0090728681534528
0.0114364326000213
0.0138125838711857
0.0161347463726997
0.0183439925312995
0.0203965846449136
0.0222594011574983
0.0238982737064361
0.0252651683986186
0.0262832306325435
0.0268329679965972
0.0267530791461467
0.0258635282516479
0.0240036342293024
0.0210735276341438
0.017068151384592
0.0120940571650862
0.006365658249706
0.0001827892847359
-0.0061044376343488
-0.012133564800024
-0.0175659023225307
-0.0221196375787258
-0.0255944579839706
-0.0278822444379329
-0.0289638973772525
-0.0288989767432212
-0.027814008295536
-0.0258890874683856
-0.0233422666788101
-0.0204114336520433
-0.0173310376703739
-0.0143065648153424
-0.0114945564419031
-0.0089915338903665
-0.0068313153460621
-0.0049901092424988
-0.003400819376111
-0.0019743849989026
-0.0006179437041282
0.0007549147121608
0.002216933760792
0.0038198526017367
0.0055885855108499
0.0075192395597696
0.0095815490931272
0.0117251761257648
0.013888431712985
0.0160080585628747
0.0180279072374105
0.0199004355818033
0.0215769056230783
0.0229901503771543
0.0240347720682621
0.024552397429943
0.0243394747376441
0.0231852326542139
0.020924063399434
0.0174822285771369
0.0129075078293681
0.0073757865466177
0.001173289027065
-0.0053401798941195
-0.0117762479931116
-0.0177599173039197
-0.0229625403881073
-0.0271258614957332
-0.0300763882696628
-0.031729195266962
-0.0320873297750949
-0.0312418919056653
-0.0293654445558786
-0.026691572740674
-0.0234843790531158
-0.0200066082179546
-0.01649353466928
-0.013135427609086
-0.0100672300904989
-0.0073624840006232
-0.0050321007147431
-0.0030325148254632
-0.001281532458961
0.0003248890861868
0.0018969113007187
0.0035355109721422
0.005317676346749
0.007284193765372
0.0094355558976531
0.0117372460663318
0.0141302170231938
0.0165434870868921
0.0189049262553453
0.0211475230753421
0.0232135131955146
0.0250585302710533
0.0266528185456991
0.0279721803963184
0.0289764255285263
0.029584078118205
0.0296584777534008
0.0290180072188377
0.0274691358208656
0.0248482841998338
0.0210617501288652
0.0161186531186103
0.0101485941559076
0.0033963858149945
-0.0038037456106394
-0.0110656600445508
-0.017993664368987
-0.0242245458066463
-0.0294628366827964
-0.0335028357803821
-0.0362353399395942
-0.0376427769660949
-0.0377872064709663
-0.036794114857912
-0.034837070852518
-0.032125849276781
-0.0288923047482967
-0.0253702569752931
-0.0217731613665819
-0.0182741247117519
-0.0149931348860263
-0.0119943059980869
-0.0092900833114981
-0.0068485727533698
-0.0046034785918891
-0.0024675326421856
-0.0003484985791146
0.0018350486643612
0.004141875077039
0.0066036516800522
0.0092241242527961
0.0119767617434263
0.0148065192624926
0.0176394786685705
0.0203943345695734
0.0229931436479091
0.025372065603733
0.0274878200143575
0.0293162930756807
0.0308419950306415
0.0320356413722038
0.0328254699707031
0.0330797210335731
0.0326149687170982
0.0312307495623826
0.0287588518112897
0.0251101963222026
0.0203037373721599
0.0144732557237148
0.0078576877713203
0.0007787565700709
-0.0063931639306247
-0.0132791865617036
-0.0195296891033649
-0.0248540695756673
-0.0290392935276031
-0.0319579541683197
-0.0335691235959529
-0.0339141488075256
-0.033107154071331
-0.0313187204301357
-0.0287550576031208
-0.0256407056003808
-0.0222058985382318
-0.0186700820922851
-0.0152209084481
-0.0119973281398415
-0.00908132083714
-0.0064979121088981
-0.0042219287715852
-0.0021891379728913
-0.0003106188960373
0.0015108827501535
0.0033657075837254
0.0053246635943651
0.0074303010478615
0.0096954889595508
0.0121078733354806
0.0146330036222934
0.0172153022140264
0.019782219082117
0.02225336804986
0.0245532058179378
0.0266224741935729
0.0284230895340442
0.0299370046705007
0.0311628617346286
0.0321112386882305
0.0327931642532348
0.0331970863044261
0.0332613177597522
0.0328589379787445
0.0318087339401245
0.0299100112169981
0.0269855093210935
0.0229199565947055
0.017691358923912
0.0113915260881185
0.0042307907715439
-0.0034762704744935
-0.0113448752090334
-0.0189673081040382
-0.0259603485465049
-0.0320014432072639
-0.0368498042225837
-0.0403552651405334
-0.0424591526389122
-0.0431897044181823
-0.0426526069641113
-0.0410170033574104
-0.0384999848902225
-0.0353519432246685
-0.0318380519747734
-0.0282120890915393
-0.0246890150010585
-0.0214252602308988
-0.0185085441917181
-0.0159564483910799
-0.0137251038104295
-0.0117259956896305
-0.0098463166505098
-0.0079701915383338
-0.0059970398433506
-0.0038534647319465
-0.0014983585570007
0.0010773945832625
0.0038527303840965
0.0067763240076601
0.0097688985988497
0.012734436430037
0.015576459467411
0.0182104259729385
0.0205719694495201
0.0226235128939151
0.0243549663573503
0.025775471702218
0.026902187615633
0.0277498848736286
0.0283134765923023
0.0285431426018476
0.0283307638019323
0.027521263808012
0.0259417500346899
0.0234372280538082
0.0199087727814912
0.0153471091762185
0.0098510887473821
0.0036275563761591
-0.0030263839289546
-0.0097567923367023
-0.0161959938704967
-0.0220044963061809
-0.0269015133380889
-0.0306824892759323
-0.0332279056310653
-0.0345052778720855
-0.0345633290708065
-0.0335198827087879
-0.0315496176481246
-0.0288740005344152
-0.0257466994225978
-0.0224284287542104
-0.0191551744937896
-0.0161114148795604
-0.0134158115833997
-0.0111166425049304
-0.0091948462650179
-0.0075769936665892
-0.0061555015854537
-0.0048101022839546
-0.0034274160861968
-0.0019156658090651
-0.0002114921808242
0.0017196806147694
0.0038827531971037
0.0062486482784152
0.0087547814473509
0.0113151315599679
0.0138342771679162
0.0162218231707811
0.0184046197682619
0.0203302260488271
0.0219598971307277
0.0232547745108604
0.0241561476141214
0.0245653111487627
0.0243405532091856
0.0233219284564256
0.0213743243366479
0.018430596217513
0.0145181473344564
0.0097626987844705
0.004377351142466
-0.0013558955397456
-0.0071133449673652
-0.0125633049756288
-0.0173988547176122
-0.021365312859416
-0.0242801886051893
-0.0260423347353935
-0.0266313664615154
-0.0261037219315767
-0.0245880912989377
-0.0222758036106824
-0.0194004997611045
-0.0162085853517055
-0.0129321562126278
-0.009772514924407
-0.0068882592022418
-0.0043833670206367
-0.0023002428933978
-0.0006207232363522
0.0007254690863192
0.0018455686513334
0.0028633854817599
0.0038978895172476
0.0050473362207412
0.0063800648786127
0.007929878309369
0.0096969427540898
0.0116531290113925
0.0137493507936596
0.0159227233380079
0.0181012861430645
0.0202084258198738
0.0221669375896453
0.0238956622779369
0.0252966936677694
0.0262412428855896
0.0265650432556867
0.0260811708867549
0.0246102791279554
0.0220202095806598
0.0182643253356218
0.0134083218872547
0.0076372954063117
0.0012413987424224
-0.0054139317944645
-0.0119294226169586
-0.0179222878068685
-0.0230710189789533
-0.0271404571831226
-0.0299892574548721
-0.0315683707594871
-0.0319138318300247
-0.0311343483626842
-0.029396653175354
-0.0269099567085504
-0.0239072144031524
-0.0206236168742179
-0.0172754004597663
-0.0140411797910928
-0.0110469870269298
-0.008357610553503
-0.0059795239940285
-0.0038749510422348
-0.0019793268293142
-0.0002168910577893
0.0014884946867823
0.0032073780894279
0.0049984799697995
0.0069016683846712
0.0089344596490263
0.0110918581485748
0.0133477104827761
0.0156592018902301
0.017974566668272
0.02023964561522
0.0224015358835458
0.0244098640978336
0.0262088160961866
0.0277133826166391
0.0287835169583559
0.0292206741869449
0.028793916106224
0.0272833742201328
0.0245272330939769
0.0204637181013822
0.0151593852788209
0.0088145192712545
0.0017437676433473
-0.0056610777974128
-0.0129771120846271
-0.0197972934693098
-0.0257695522159338
-0.0306210666894912
-0.0341702103614807
-0.0363330617547035
-0.0371238216757774
-0.0366440787911415
-0.0350630804896354
-0.0325968749821186
-0.0294878594577312
-0.0259812641888856
-0.0223015360534191
-0.018635269254446
-0.0151219386607408
-0.011849476955831
-0.0088536804541945
-0.0061229299753904
-0.0036065690219402
-0.0012242877855896
0.0011182222515344
0.0035059079527854
0.0059964414685964
0.00861581787467
0.0113608902320265
0.0142030920833349
0.0170940048992633
0.0199734270572662
0.022778358310461
0.0254501979798078
0.0279394872486591
0.0302092060446739
0.0322346799075603
0.0339966490864753
0.0354652814567089
0.0365762449800968
0.0372062996029853
0.0371626839041709
0.0362030379474163
0.0340878590941429
0.030644416809082
0.0258169304579496
0.0196919757872819
0.0124993845820426
0.0045898212119936
-0.0036083408631384
-0.0116428826004266
-0.0190897788852453
-0.0255938582122325
-0.0308920517563819
-0.0348189398646354
-0.037300482392311
-0.0383462756872177
-0.0380469895899295
-0.0365701913833618
-0.0341442115604877
-0.0310304332524538
-0.0274931825697422
-0.0237744990736246
-0.0200754087418317
-0.0165443047881126
-0.0132721299305558
-0.0102929193526506
-0.0075896522030234
-0.0051058940589427
-0.002761167474091
-0.000465540215373
0.0018680021166801
0.004310131072998
0.0069009931758046
0.0096434252336621
0.0125075969845056
0.0154405441135168
0.0183756966143846
0.0212424732744693
0.0239747390151023
0.026517292484641
0.0288305263966321
0.0308912228792905
0.0326879397034645
0.0342143736779689
0.035461775958538
0.036403864622116
0.0369735658168792
0.0370433591306209
0.0364225432276725
0.0348805449903011
0.0321943312883377
0.0282044447958469
0.0228633731603622
0.0162648539990186
0.0086463037878274
0.0003645690158009
-0.0081467665731906
-0.0164286792278289
-0.0240497030317783
-0.0306516885757446
-0.0359762161970138
-0.0398682914674282
-0.0422662086784839
-0.0431922525167465
-0.0427510812878608
-0.0411241240799427
-0.0385486520826816
-0.0352890789508819
-0.0316116139292717
-0.0277637038379907
-0.0239562522619962
-0.0203493591398
-0.0170427355915308
-0.0140720698982477
-0.0114150736480951
-0.009006654843688
-0.0067562386393547
-0.0045622200705111
-0.0023235180415213
4.684925079345703e-05
0.0026047567371279
0.0053635966032743
0.0082949697971344
0.0113386325538158
0.0144162271171808
0.0174441393464803
0.0203437972813844
0.0230489633977413
0.025509063154459
0.0276892930269241
0.0295697748661041
0.0311459992080926
0.0324288718402385
0.0334406159818172
0.0342057272791862
0.0347300134599208
0.0349652171134948
0.0347815603017807
0.0339712798595428
0.0322833582758903
0.0294774547219276
0.0253826100379228
0.0199462715536355
0.013261791318655
0.0055679455399513
-0.0027771415188908
-0.0113396504893898
-0.0196633152663707
-0.0273221880197525
-0.0339596197009086
-0.0393078625202178
-0.0431978218257427
-0.0455671809613704
-0.0464607402682304
-0.0460165068507194
-0.0444415621459484
-0.0419849418103694
-0.0389120355248451
-0.0354818552732467
-0.0319275744259357
-0.0284410044550895
-0.0251607988029718
-0.0221650600433349
-0.0194700043648481
-0.017037009820342
-0.0147875100374221
-0.0126198967918753
-0.0104279657825827
-0.0081226406618952
-0.0056470418348908
-0.0029775574803352
-0.0001194458454847
0.0028947433456778
0.0060075437650084
0.0091448109596967
0.0122275194153189
0.0151823200285434
0.0179487690329551
0.02048253826797
0.022754305973649
0.0247453227639198
0.0264378227293491
0.0277949888259172
0.0287334509193897
0.0291059352457523
0.0287116318941116
0.0273349676281213
0.0247996039688587
0.021020583808422
0.0160393211990594
0.0100331706926226
0.0033005848526954
-0.0037727463059127
-0.0107608083635568
-0.0172467827796936
-0.0228637568652629
-0.0273226760327816
-0.0304282642900943
-0.0320856384932994
-0.0323032848536968
-0.0311932284384965
-0.0289606060832738
-0.0258782487362623
-0.0222531147301197
-0.0183932520449161
-0.014578066766262
-0.0110323997214436
-0.0079070860520005
-0.0052704163827002
-0.0031121564097702
-0.0013572729658335
0.0001140773529186
0.0014438084326684
0.0027766935527324
0.004246181808412
0.0059570288285613
0.0079648736864328
0.0102676469832658
0.0128143895417451
0.0155218858271837
0.0182905532419681
0.0210169330239295
0.0236037168651819
0.0259678121656179
0.0280430652201175
0.0297720283269882
0.0310839749872684
0.0318682305514812
0.0319627933204174
0.0311725083738565
0.0293113123625516
0.0262487865984439
0.0219461861997842
0.016477970406413
0.0100375963374972
0.0029268702492117
-0.0044721001759171
-0.0117396963760256
-0.0184655487537384
-0.024289958178997
-0.028935907408595
-0.0322278179228305
-0.0340958088636398
-0.0345689244568347
-0.0337624736130237
-0.0318615287542343
-0.0290988441556692
-0.0257313232868909
-0.0220225490629673
-0.0182270929217338
-0.0145683651790022
-0.0112147768959403
-0.0082647129893302
-0.0057436870411038
-0.00361247244291
-0.0017839120700955
-0.0001434977166354
0.001430110540241
0.0030462841968983
0.0047890874557197
0.006711452268064
0.0088347308337688
0.0111515382304787
0.0136279501020908
0.0162033084779977
0.0187940206378698
0.0213049724698066
0.0236432533711195
0.0257294345647096
0.0275053065270185
0.0289337392896413
0.0299847498536109
0.0306099578738212
0.03071772120893
0.0301640518009662
0.0287673324346542
0.0263432450592517
0.0227517820894718
0.0179460421204566
0.0120030818507075
0.0051233945414423
-0.0023905122652649
-0.0101643279194831
-0.0177910774946212
-0.0248759090900421
-0.0310764610767364
-0.0361309647560119
-0.0398710556328296
-0.0422207601368427
-0.0431885085999965
-0.0428584963083267
-0.0413808822631835
-0.0389572530984878
-0.0358195044100284
-0.0322055220603942
-0.0283407755196094
-0.0244283005595207
-0.0206381883472204
-0.0170930214226245
-0.0138586526736617
-0.0109477136284112
-0.0083300191909074
-0.0059412568807601
-0.003691965714097
-0.0014834725297987
0.0007721739821135
0.003138433676213
0.0056500891223549
0.0083142910152673
0.0111149279400706
0.0140205193310976
0.0169894564896821
0.0199664812535047
0.0228780657052993
0.0256394278258085
0.0281702689826488
0.0304062105715274
0.0323036983609199
0.0338401570916175
0.0350013524293899
0.0357525721192359
0.0360091067850589
0.0356264859437942
0.0344175398349761
0.0321909748017787
0.0288017876446247
0.024198779836297
0.0184513684362173
0.0117488810792565
0.004380424041301
-0.0032962374389171
-0.0108921779319643
-0.0180266201496124
-0.0243639424443244
-0.0296413302421569
-0.0336808785796165
-0.0363899916410446
-0.0377573743462562
-0.0378463491797447
-0.0367855876684188
-0.0347576178610324
-0.031981810927391
-0.0286900289356708
-0.0251042656600475
-0.0214252639561891
-0.0178252421319484
-0.0144360912963747
-0.0113381491973996
-0.0085578244179487
-0.0060731712728738
-0.0038234558887779
-0.0017219330184161
0.0003284784033894
0.0024183709174394
0.0046177236363291
0.0069675585255026
0.0094768665730953
0.012125271372497
0.0148711269721388
0.0176580157130956
0.0204155761748552
0.0230617672204971
0.0255133192986249
0.0276998803019523
0.0295733977109193
0.0311117805540561
0.0323181189596653
0.0332135707139968
0.0338247157633304
0.0341651961207389
0.034209981560707
0.0338716395199298
0.0329959876835346
0.0313860401511192
0.0288467835634946
0.0252322275191545
0.0204818937927484
0.0146450046449899
0.007889580912888
0.0004916004836559
-0.0071952627040445
-0.0147818773984909
-0.0218878891319036
-0.0281789246946573
-0.0333913043141365
-0.0373448878526687
-0.039947647601366
-0.0411939769983291
-0.0411575809121131
-0.039980124682188
-0.0378562919795513
-0.0350161083042621
-0.0317068099975585
-0.0281739979982376
-0.0246407426893711
-0.0212861653417348
-0.0182280484586954
-0.015515168197453
-0.0131313977763056
-0.0110092870891094
-0.0090503543615341
-0.0071474495343863
-0.0052034291438758
-0.0031443885527551
-0.0009265380213037
0.0014652668032795
0.0040235593914985
0.0067204358056187
0.0095052430406212
0.012306360527873
0.0150402951985597
0.0176235809922218
0.019984109327197
0.0220697242766618
0.0238524861633777
0.025328991934657
0.0265167951583862
0.0274468045681715
0.02815299667418
0.0286585111171007
0.028956551104784
0.0289920028299093
0.0286527760326862
0.0277734901756048
0.02615487575531
0.0236037857830524
0.0199848152697086
0.0152643164619803
0.0095340656116604
0.0030102198943495
-0.003990045748651
-0.0110877528786659
-0.0178899206221103
-0.0240360870957374
-0.0292335450649261
-0.0332770198583602
-0.0360553637146949
-0.0375482067465782
-0.0378133803606033
-0.0369728878140449
-0.0352042615413665
-0.0327288769185543
-0.0297907702624797
-0.0266330204904079
-0.0234767459332942
-0.0205020122230052
-0.0178314577788114
-0.0155195603147149
-0.013552158139646
-0.0118586951866745
-0.010334120132029
-0.0088627142831683
-0.0073365354910492
-0.0056668589822947
-0.0037907757796347
-0.0016762344166636
0.0006722810212522
0.0032112172339111
0.0058650784194469
0.0085428468883037
0.0111551750451326
0.0136255593970417
0.0158962309360504
0.0179308988153934
0.0197118334472179
0.0212264396250247
0.022443963214755
0.0232917852699756
0.0236447155475616
0.0233374498784542
0.0222003273665905
0.0201025567948818
0.0169840864837169
0.012874892912805
0.0079067777842283
0.0023118983954191
-0.0035988132003694
-0.0094733331352472
-0.0149606941267848
-0.0197478607296943
-0.0235863495618104
-0.026306802406907
-0.0278237760066986
-0.0281352903693914
-0.0273183956742286
-0.0255181286484003
-0.0229300819337368
-0.0197823587805032
-0.0163199678063392
-0.0127858575433492
-0.0093949809670448
-0.0063088424503803
-0.0036198357120156
-0.0013495041057467
0.0005399659276008
0.0021279463544487
0.0035194479860365
0.0048319241032004
0.0061808372847735
0.0076634185388684
0.0093454858288168
0.0112574342638254
0.013398015871644
0.0157356932759284
0.0182058587670326
0.020715445280075
0.0231587477028369
0.025435633957386
0.0274645462632179
0.0291881784796714
0.0305696241557598
0.0315742082893848
0.0321404039859771
0.032157190144062
0.0314650982618331
0.0298843644559383
0.0272602811455726
0.0235111489892005
0.0186642706394195
0.012866829521954
0.00636932766065
-0.0005067873280495
-0.0074055059812963
-0.013972233980894
-0.0198868829756975
-0.0248902086168527
-0.0288004297763109
-0.0315189510583877
-0.0330260768532753
-0.0333709865808486
-0.0326612666249275
-0.0310528315603733
-0.0287363156676292
-0.0259177684783935
-0.022797867655754
-0.0195576567202806
-0.0163525212556123
-0.013306132517755
-0.0104997307062149
-0.0079645588994026
-0.0056852782145142
-0.0036118617281317
-0.001673262566328
0.0002096807584166
0.0021120118908584
0.0040938053280115
0.006193091161549
0.0084233786910772
0.010773891583085
0.0132139939814805
0.015702024102211
0.0181899107992649
0.0206211432814598
0.0229323953390121
0.0250618290156126
0.0269576590508222
0.0285825375467538
0.0299081802368164
0.0308971740305423
0.0314793549478054
0.0315353237092494
0.0308982599526643
0.0293790586292743
0.0268089137971401
0.0230851676315069
0.0182077400386333
0.0122982710599899
0.0055951541289687
-0.0015747973229736
-0.0088372193276882
-0.0158134400844573
-0.0221592206507921
-0.0275938920676708
-0.0319174900650978
-0.0350154787302017
-0.0368547961115837
-0.0374766625463962
-0.0369862169027328
-0.035537514835596
-0.0333175249397754
-0.0305320881307125
-0.0273905228823423
-0.024086894467473
-0.0207850188016891
-0.017612237483263
-0.0146550415083765
-0.0119524840265512
-0.009495060890913
-0.0072344844229519
-0.0050999098457396
-0.0030134678818285
-0.0009019719436764
0.0012941514141857
0.0036138873547315
0.0060718073509633
0.0086578354239463
0.0113397426903247
0.0140689704567193
0.016789823770523
0.0194462332874536
0.021981444209814
0.0243374351412057
0.0264607518911361
0.0283097941428422
0.0298586077988147
0.0310967862606048
0.0320199355483055
0.0326058529317379
0.0327860489487648
0.0324317626655101
0.031364906579256
0.0293916799128055
0.0263506695628166
0.0221618488430976
0.0168615356087684
0.0106119308620691
0.0036816517822444
-0.0035906350240111
-0.0108337998390197
-0.0176804885268211
-0.0238028224557638
-0.0289416834712028
-0.03292241320014
-0.0356558561325073
-0.0371321141719818
-0.0374139174818992
-0.0366277433931827
-0.0349493250250816
-0.0325861014425754
-0.0297587923705577
-0.0266809966415166
-0.0235415920615196
-0.020495131611824
-0.0176544897258281
-0.0150827141478657
-0.0127909798175096
-0.0107444059103727
-0.0088723581284284
-0.0070833591744303
-0.0052824495360255
-0.0033854884095489
-0.0013296795077621
0.0009176260791718
0.003354676766321
0.0059491153806447
0.0086479354649782
0.0113888978958129
0.0141069879755377
0.0167346708476543
0.0192039888352155
0.0214535277336835
0.0234338715672492
0.0251061748713254
0.0264291279017925
0.0273346658796072
0.0277084801346063
0.0273927524685859
0.0262131188064813
0.0240202993154525
0.0207323711365461
0.0163661316037178
0.0110522666946053
0.0050326040945947
-0.0013633526396006
-0.0077613736502826
-0.0137916086241602
-0.019127869978547
-0.0235107224434614
-0.0267584454268217
-0.028773508965969
-0.0295458454638719
-0.0291485823690891
-0.0277256201952695
-0.0254749078303575
-0.0226299203932285
-0.0194382332265377
-0.0161371380090713
-0.0129294004291296
-0.0099632814526557
-0.0073227370157837
-0.005030398722738
-0.0030581252649426
-0.0013406011275947
0.0002090232446789
0.0016846368089318
0.0031765741296112
0.0047627403400838
0.0064993002451956
0.0084139518439769
0.010504481382668
0.012741032987833
0.0150703843683004
0.0174236521124839
0.019729770720005
0.0219298508018255
0.0239792149513959
0.0258312188088893
0.0274112746119499
0.0285945422947406
0.0292006339877843
0.0290129594504833
0.0278176609426736
0.0254496075212955
0.0218342784792184
0.0170162767171859
0.0111675597727298
0.0045736879110336
-0.0023991868365556
-0.0093488339334726
-0.0158803984522819
-0.0216412059962749
-0.0263494402170181
-0.0298165827989578
-0.0319563299417495
-0.0327796004712581
-0.032381884753704
-0.0309261083602905
-0.0286237448453903
-0.0257149375975132
-0.0224451478570699
-0.0190415401011705
-0.0156951583921909
-0.0125484345480799
-0.0096869617700576
-0.0071384329348802
-0.0048787090927362
-0.002842170652002
-0.0009382837451994
0.0009266138076782
0.0028324397280812
0.0048374403268098
0.0069742240011692
0.0092469966039061
0.0116318250074982
0.0140828154981136
0.0165420249104499
0.0189481284469366
0.0212431252002716
0.0233777575194835
0.0253143347799778
0.0270265880972147
0.0284980181604623
0.0297153070569038
0.0306467954069376
0.0312099233269691
0.031253132969141
0.0305695291608572
0.0289370715618133
0.0261709354817867
0.0221722796559333
0.0169609673321247
0.010686857625842
0.0036189435049891
-0.0038844072259962
-0.0114177595824003
-0.0185762159526348
-0.0249998122453689
-0.0304046049714088
-0.0345943644642829
-0.0374607592821121
-0.0389834232628345
-0.0392263755202293
-0.038324199616909
-0.0364627465605735
-0.0338612385094165
-0.0307541172951459
-0.0273686926811933
-0.0239043645560741
-0.0205208081752061
-0.0173319540917873
-0.0144021594896912
-0.0117474161088466
-0.0093415174633264
-0.007123330142349
-0.0050064725801348
-0.0028969140257686
-0.0007155938073992
0.001585905207321
0.0040231682360172
0.0065849376842379
0.0092385802417993
0.0119342245161533
0.0146117350086569
0.0172106754034757
0.0196795593947172
