bvp
0.0194391719996929
0.0214711651206016
0.0233038663864135
0.024728063493967
0.02548473700881
0.0252987444400787
0.0239321775734424
0.0212400630116462
0.0172115936875343
0.0119862891733646
0.0058417040854692
-0.0008415719494223
-0.0076273470185697
-0.0140759488567709
-0.0197922047227621
-0.0244599543511867
-0.0278605930507183
-0.0298774912953376
-0.0304907970130443
-0.0297708977013826
-0.0278727393597364
-0.0250225830823183
-0.0214930083602666
-0.0175734460353851
-0.0135426148772239
-0.0096432827413082
-0.0060601634904742
-0.002904953667894
-0.0002131869550794
0.002046825364232
0.0039570671506226
0.0056284652091562
0.0071792523376643
0.0087199602276086
0.0103454273194074
0.0121248345822095
0.0140881892293691
0.0162205956876277
0.0184702482074499
0.0207616798579692
0.0230043549090623
0.0250908564776182
0.0268834494054317
0.0282007083296775
0.0288203079253435
0.0285038873553276
0.0270402655005455
0.0242937617003917
0.020241905003786
0.0149949491024017
0.0087940953671932
0.0019848477095365
-0.0050304634496569
-0.0118455234915018
-0.0180940739810466
-0.0234783962368965
-0.0277808457612991
-0.0308653060346841
-0.0326761566102504
-0.0332343317568302
-0.0326297767460346
-0.0310108363628387
-0.0285692736506462
-0.0255223046988248
-0.022093616425991
-0.018493179231882
-0.0148976892232894
-0.0114381713792681
-0.0081996610388159
-0.0052280751988291
-0.0025353361852467
-0.0001006051898002
0.0021269936114549
0.0042184540070593
0.0062495740130543
0.0082872603088617
0.0103807058185338
0.0125567764043807
0.014818524941802
0.0171458926051855
0.019498711451888
0.0218228511512279
0.0240596625953912
0.0261542852967977
0.0280560608953237
0.0297097358852624
0.0310397073626518
0.0319329090416431
0.0322317294776439
0.0317442715167999
0.0302708856761455
0.0276443548500537
0.0237761251628398
0.0186921209096908
0.0125450352206826
0.0056030713021755
-0.0017784587107598
-0.0091962730512022
-0.0162419732660055
-0.0225450489670038
-0.0278109088540077
-0.0318432301282882
-0.0345466472208499
-0.0359157174825668
-0.0360197573900222
-0.034989409148693
-0.0330027788877487
-0.0302693955600261
-0.027013735845685
-0.0234583877027034
-0.019807755947113
-0.0162338707596063
-0.012864620424807
-0.0097753582522273
-0.0069853132590651
-0.0044635822996497
-0.0021471306681632
3.919948358088732e-05
0.0021695126779377
0.0043088113889098
0.0065077794715762
0.0087980218231678
0.0111865187063813
0.0136541286483407
0.0161604918539524
0.0186508856713771
0.0210631228983402
0.0233357287943363
0.025414640083909
0.0272577069699764
0.0288398843258619
0.0301535949110984
0.0311992466449737
0.0319732353091239
0.0324570275843143
0.0326017513871192
0.0323123633861541
0.0314461626112461
0.0298337955027818
0.027316216379404
0.0237835794687271
0.0192071888595819
0.0136608872562646
0.0073251221328973
0.0004699900746345
-0.0065745851024985
-0.0134521257132291
-0.0198163986206054
-0.0253709182143211
-0.0298974364995956
-0.0332637131214141
-0.0354193821549415
-0.036388985812664
-0.03626149892807
-0.0351761281490325
-0.033307671546936
-0.030853409320116
-0.028019405901432
-0.0250044837594032
-0.0219833329319953
-0.0190915819257497
-0.016415661200881
-0.0139887519180774
-0.0117958821356296
-0.0097900321707129
-0.0079110022634267
-0.0060984371230006
-0.0042991442605853
-0.0024705920368433
-0.000582774169743
0.0013794638216495
0.0034148348495364
0.0055058533325791
0.0076212026178836
0.0097208004444837
0.0117613608017563
0.0136996740475296
0.0154961869120597
0.0171212740242481
0.0185575969517231
0.0197939611971378
0.0208185538649559
0.0216180626302957
0.022178828716278
0.0224840231239795
0.0225039403885602
0.0221822522580623
0.0214287340641021
0.0201280359178781
0.0181628670543432
0.01544382981956
0.0119383484125137
0.0076910573989152
0.002831146121025
-0.0024351943284273
-0.0078499699011445
-0.013139858841896
-0.0180479604750871
-0.0223535280674695
-0.0258845929056406
-0.0285276621580123
-0.0302327722311019
-0.0310114976018667
-0.0309295356273651
-0.0300972834229469
-0.0286585222929716
-0.0267759226262569
-0.0246151387691497
-0.0223310105502605
-0.0200560633093118
-0.017888618633151
-0.0158857032656669
-0.0140675734728574
-0.0124277845025062
-0.0109398439526557
-0.0095609724521636
-0.0082380482926964
-0.0069166761822998
-0.005549163557589
-0.0040998919866979
-0.0025502564385533
-0.0009018732234835
0.0008255108259618
0.0026011229492723
0.0043900213204324
0.0061564231291413
0.007866371423006
0.0094887213781476
0.0109913386404514
0.0123393395915627
0.0135008059442043
0.0144545510411262
0.0151946544647216
0.0157313197851181
0.0160888377577066
0.0162993911653757
0.0163899641484022
0.0163634307682514
0.0161811504513025
0.0157590173184871
0.0149822467938065
0.0137316975742578
0.0119141517207026
0.0094887390732765
0.0064795855432748
0.0029754675924777
-0.0008779801428318
-0.0048935338854789
-0.0088627785444259
-0.0125763900578022
-0.0158427655696868
-0.0185050033032894
-0.0204537212848663
-0.021633755415678
-0.0220466926693916
-0.02174973487854
-0.0208472739905118
-0.0194739252328872
-0.0177741460502147
-0.0158873684704303
-0.0139414397999644
-0.0120469201356172
-0.0102889109402894
-0.0087214279919862
-0.0073655541054904
-0.0062097776681184
-0.0052148853428661
-0.0043242396786808
-0.0034755803644657
-0.0026106717996299
-0.0016811499372124
-0.0006520540919154
0.0004944166867062
0.0017577975522726
0.0031242202967405
0.0045706420205533
0.0060627073980867
0.0075537310913205
0.0089908353984355
0.0103240180760622
0.0115139884874224
0.0125366989523172
0.0133828371763229
0.014053950086236
0.0145590230822563
0.014913160353899
0.0151373473927378
0.0152573641389608
0.0153006957843899
0.0152919562533497
0.0152456071227788
0.0151520213112235
0.0149618089199066
0.0145835699513554
0.013901169411838
0.0128016490489244
0.0112029062584042
0.0090757207944989
0.0064561162143945
0.0034442895557731
0.0001922162482514
-0.0031155324541032
-0.006285473704338
-0.0091398023068904
-0.0115366475656628
-0.0133799081668257
-0.0146170621737837
-0.0152351176366209
-0.015262609347701
-0.0147692486643791
-0.0138565180823206
-0.0126447798684239
-0.0112600028514862
-0.0098196174949407
-0.0084211630746722
-0.0071368720382452
-0.0060115568339824
-0.0050613051280379
-0.0042760446667671
-0.0036261263303458
-0.0030674855224788
-0.0025448407977819
-0.0019974661991
-0.001370913349092
-0.0006328062154352
0.0002180468291044
0.0011578295379877
0.00215166201815
0.0031630527228116
0.0041583711281418
0.0051101371645927
0.0059983651153743
0.0068098851479589
0.0075376671738922
0.0081804506480693
0.0087416674941778
0.0092281186953186
0.0096499901264905
0.010021174326539
0.0103550655767321
0.0106556620448827
0.0109135638922452
0.0111124729737639
0.0112391784787178
0.0112889595329761
0.0112644881010055
0.0111701460555195
0.0110055226832628
0.0107581447809934
0.0103944242000579
0.0098555972799658
0.0090649519115686
0.0079445382580161
0.0064375433139503
0.0045296377502381
0.0022584227845072
-0.0002920909319072
-0.0030040713027119
-0.005739695392549
-0.0083554219454526
-0.0107158133760094
-0.0127066643908619
-0.01424540579319
-0.0152852470055222
-0.0158145278692245
-0.0158547330647707
-0.0154568217694759
-0.0146951656788587
-0.0136603312566876
-0.0124494582414627
-0.0111533468589186
-0.0098485117778182
-0.0085993073880672
-0.0074594328179955
-0.0064658033661544
-0.0056322934105992
-0.0049495855346322
-0.0043898685835301
-0.0039139674045145
-0.0034779864363372
-0.0030380534008145
-0.0025558099150657
-0.0020039062947034
-0.0013667969033122
-0.0006385017186403
0.0001788325607776
0.0010767700150609
0.0020407242700457
0.0030458285473287
0.0040546301752328
0.0050221593119204
0.0059059550985693
0.0066746077500283
0.0073115248233079
0.0078153135254979
0.0081979231908917
0.0084819784387946
0.0086971307173371
0.0088738230988383
0.0090368157252669
0.009198036044836
0.0093468278646469
0.0094438092783093
0.0094213299453258
0.0091875726357102
0.0086387265473604
0.0076837679371237
0.0062732324004173
0.004417423158884
0.0021881172433495
-0.0002923551946878
-0.0028687240555882
-0.0053728446364402
-0.0076440442353487
-0.0095470119267702
-0.0109837129712104
-0.0118991248309612
-0.0122813060879707
-0.0121550476178526
-0.011574481613934
-0.0106207504868507
-0.0093992361798882
-0.0080285649746656
-0.0066238325089216
-0.0052827531471848
-0.0040785195305943
-0.0030560530722141
-0.002230629324913
-0.0015901187434792
-0.0011001005768775
-0.0007117660716176
-0.0003702640533447
-2.166908234357834e-05
0.0003811512142419
0.0008760690689086
0.0014895880594849
0.002230598591268
0.0030864169821143
0.0040269829332828
0.0050128097645938
0.0060016708448529
0.0069551039487123
0.0078450627624988
0.0086559941992163
0.0093805845826864
0.0100133940577507
0.0105478772893548
0.0109797688201069
0.0113131739199161
0.0115637313574552
0.0117573542520403
0.0119222188368439
0.0120750898495316
0.0122132189571857
0.0123159475624561
0.0123454695567488
0.012242317199707
0.0119239427149295
0.0112926475703716
0.0102515593171119
0.0087248925119638
0.0066775125451385
0.0041273329406976
0.0011462490074336
-0.0021476773545145
-0.0056002507917582
-0.0090326340869069
-0.012260147370398
-0.0151182366535067
-0.0174843501299619
-0.0192853230983018
-0.0204917173832654
-0.021109115332365
-0.0211721137166023
-0.0207392703741788
-0.0198882408440113
-0.0187115892767906
-0.0173117369413375
-0.0157937072217464
-0.0142556289210915
-0.012777647934854
-0.0114123784005641
-0.0101809836924076
-0.0090767461806535
-0.0080746784806251
-0.0071409111842513
-0.0062384037300944
-0.0053325667977333
-0.0043966034427285
-0.0034118425101041
-0.0023636631667613
-0.0012391693890094
-3.0059367418289185e-05
0.0012623611837625
0.0026240982115268
0.0040298337116837
0.0054487390443682
0.0068520046770572
0.0082191070541739
0.0095373708754777
0.0107937902212142
0.011969830840826
0.0130453072488307
0.0140041820704936
0.0148366084322333
0.0155394095927476
0.016117101535201
0.0165815744549036
0.0169481020420789
0.0172256268560886
0.0174013115465641
0.0174261406064033
0.0172107070684433
0.0166354924440383
0.0155742904171347
0.0139217022806406
0.0116150295361876
0.0086505115032196
0.0050937258638441
0.0010776557028293
-0.0032119881361722
-0.0075571788474917
-0.0117301009595394
-0.015516560524702
-0.0187362171709537
-0.0212563220411539
-0.0229982025921344
-0.0239368453621864
-0.024097491055727
-0.0235506724566221
-0.022401925176382
-0.0207807458937168
-0.0188350528478622
-0.0167234521359205
-0.0145983975380659
-0.01258703507483
-0.0107782334089279
-0.0092163663357496
-0.0079005882143974
-0.0067906770855188
-0.0058175660669803
-0.0048956889659166
-0.0039374157786369
-0.0028677973896265
-0.0016343742609024
-0.0002083238214254
0.0014198552817106
0.0032410379499197
0.0052230153232812
0.0073102051392197
0.0094320196658372
0.0115156974643468
0.013497800566256
0.0153296142816543
0.0169780701398849
0.018426589667797
0.0196744073182344
0.0207337886095047
0.0216270815581083
0.0223820954561233
0.0230259839445352
0.0235830619931221
0.0240774229168891
0.0245282761752605
0.0249289479106664
0.025222048163414
0.0252897702157497
0.0249643623828887
0.0240539163351058
0.0223774835467338
0.0198020227253437
0.0162738785147666
0.0118391625583171
0.0066466722637414
0.0009329011663794
-0.0050045168027281
-0.0108412792906165
-0.0162628628313541
-0.0209930948913097
-0.0248151011765003
-0.0275907628238201
-0.0292736515402793
-0.0299053564667701
-0.0295967310667037
-0.0285049080848693
-0.0268141664564609
-0.0247205570340156
-0.0224162749946117
-0.0200729183852672
-0.0178274326026439
-0.0157736893743276
-0.0139584615826606
-0.0123812817037105
-0.010998660698533
-0.0097330529242753
-0.0084900297224521
-0.0071807075291872
-0.0057371277362108
-0.0041167754679918
-0.0023022331297397
-0.0002985727041959
0.0018710922449827
0.004170230589807
0.0065532969310879
0.0089695425704121
0.0113656045868992
0.0136888939887285
0.0158933270722627
0.0179454516619443
0.0198285765945911
0.0215417295694351
0.0230910424143075
0.0244781654328107
0.0256955884397029
0.0267320852726697
0.0275803040713071
0.0282382629811763
0.0287014208734035
0.0289450585842132
0.0289037190377712
0.0284602753818035
0.0274535864591598
0.025705050677061
0.0230574905872344
0.0194159559905529
0.014780880883336
0.0092661241069436
0.0030934286769479
-0.0034363616723567
-0.0099819647148251
-0.0162002760916948
-0.0217817239463329
-0.026476738974452
-0.0301098953932523
-0.0325852036476135
-0.0338870212435722
-0.0340766757726669
-0.0332822278141975
-0.0316814333200454
-0.0294808633625507
-0.0268953144550323
-0.0241289008408784
-0.0213564671576023
-0.0187101569026708
-0.0162777509540319
-0.0141064561903476
-0.0122030759230256
-0.0105341356247663
-0.009033091366291
-0.0076132398098707
-0.0061812568455934
-0.004649993032217
-0.0029493691399693
-0.0010336069390177
0.0011131316423416
0.0034734783694148
0.0060012997128069
0.0086335949599742
0.0113032199442386
0.0139449117705225
0.0164947658777236
0.0188918337225914
0.0210839845240116
0.0230325907468795
0.024714320898056
0.0261216722428798
0.0272626839578151
0.0281584560871124
0.0288362354040145
0.0293152686208486
0.0295846331864595
0.0295795667916536
0.0291702356189489
0.0281752813607454
0.0263982843607664
0.0236717537045478
0.0198961310088634
0.0150695005431771
0.0093032754957675
0.002818931825459
-0.0040740724653005
-0.0110134119167923
-0.0176242180168628
-0.0235587488859891
-0.0285291895270347
-0.0323296524584293
-0.0348485447466373
-0.0360711105167865
-0.0360720194876194
-0.0350004360079765
-0.0330584123730659
-0.0304784849286079
-0.0275078266859054
-0.0243913568556308
-0.0213466882705688
-0.0185391400009393
-0.0160656198859214
-0.0139508005231618
-0.01215645018965
-0.0105992536991834
-0.0091709420084953
-0.0077572842128574
-0.0062533118762075
-0.0045751640573143
-0.0026695656124502
-0.0005165166221559
0.0018758955411612
0.0044751768000423
0.0072222664020955
0.0100335413590073
0.0128134302794933
0.0154698491096496
0.0179243441671133
0.0201179832220077
0.0220157690346241
0.0236082691699266
0.0249081347137689
0.0259433779865503
0.0267518404871225
0.0273767858743667
0.027858693152666
0.0282188281416893
0.0284365285187959
0.0284276865422725
0.0280339661985635
0.0270359218120574
0.0251948125660419
0.0223092399537563
0.0182683374732732
0.0130876572802662
0.0069190822541713
3.6275945603847504e-05
-0.0071968426927924
-0.0143701285123825
-0.0210786405950784
-0.0269695650786161
-0.0317725911736488
-0.0353112407028675
-0.0375034026801586
-0.0383612215518951
-0.0379891321063041
-0.0365711450576782
-0.0343462005257606
-0.0315789282321929
-0.0285327322781085
-0.0254467837512493
-0.0225141737610101
-0.019863337278366
-0.0175509508699178
-0.015568264760077
-0.0138553818687796
-0.0123187135905027
-0.0108488760888576
-0.009335933253169
-0.0076810996979475
-0.0058084251359105
-0.0036768352147191
-0.0012863115407526
0.0013249248731881
0.0040899226441979
0.0069258795119822
0.0097463354468345
0.012471318244934
0.0150356218218803
0.0173919983208179
0.0195083450525999
0.0213640797883272
0.022949643433094
0.0242679975926876
0.0253357235342264
0.0261827632784843
0.026847019791603
0.0273604523390531
0.0277302209287881
0.0279188640415668
0.0278289057314395
0.0273016784340143
0.0261366441845893
0.0241302829235792
0.0211233496665954
0.0170417204499244
0.0119245201349258
0.0059347804635763
-0.000654449686408
-0.0074953567236661
-0.0142086269333958
-0.0204245746135711
-0.0258202888071537
-0.0301514565944671
-0.0332717970013618
-0.0351353883743286
-0.0357863828539848
-0.0353438705205917
-0.0339852683246135
-0.0319275371730327
-0.0294065214693546
-0.0266563948243856
-0.0238886512815952
-0.0212721675634384
-0.0189202912151813
-0.0168855283409357
-0.0151585564017295
-0.0136740654706954
-0.0123290140181779
-0.0110104121267795
-0.0096187246963381
-0.0080783544108271
-0.0063401670195162
-0.004381950944662
-0.0022074040025472
0.0001566191203892
0.0026639895513653
0.0052540651522576
0.0078572193160653
0.0104015581309795
0.0128214210271835
0.0150654073804616
0.0171014424413442
0.0189181417226791
0.0205160733312368
0.0218827240169048
0.022961962968111
0.023637980222702
0.0237430222332477
0.0230862349271774
0.0214960109442472
0.0188655275851488
0.015188886784017
0.0105767613276839
0.0052486015483736
-0.0004930337890982
-0.0062980661168694
-0.0118089392781257
-0.0166987143456935
-0.020699368789792
-0.0236202999949455
-0.0253609530627727
-0.0259157922118902
-0.0253698304295539
-0.0238846782594919
-0.02167584374547
-0.0189859941601753
-0.0160580966621637
-0.0131112588569521
-0.0103230560198426
-0.0078175598755478
-0.0056582922115921
-0.0038495629560202
-0.0023454129695892
-0.0010615027276799
0.0001110123412217
0.0012875094544142
0.0025685874279588
0.0040225847624242
0.005679742898792
0.0075366795063018
0.0095628546550869
0.0117060793563723
0.0138999782502651
0.016073539853096
0.0181597638875246
0.0201015882194042
0.0218554642051458
0.0233922395855188
0.0246961116790771
0.0257661566138267
0.0266200862824916
0.0272893570363521
0.0277998000383377
0.0281466133892536
0.0282719768583774
0.0280509870499372
0.0272973515093326
0.0257936008274555
0.0233372449874877
0.0197900924831628
0.015117572620511
0.009407783858478
0.002867822535336
-0.0041987784206867
-0.0114272916689515
-0.0184328779578208
-0.0248520523309707
-0.0303810276091098
-0.0348047688603401
-0.0380077920854091
-0.0399667359888553
-0.040733978152275
-0.0404203161597251
-0.0391800180077552
-0.0371967777609825
-0.0346684530377388
-0.0317919291555881
-0.0287494733929634
-0.0256960894912481
-0.022748626768589
-0.0199796520173549
-0.0174153838306665
-0.0150356423109769
-0.0127820232883095
-0.0105782840400934
-0.0083512151613831
-0.0060410643927752
-0.0036059308331459
-0.0010260075796395
0.0016945474781095
0.0045294016599655
0.0074343467131257
0.0103540625423192
0.013228915631771
0.0159992761909961
0.0186092257499694
0.0210111513733863
0.0231712404638528
0.0250748731195926
0.0267259329557418
0.0281378366053104
0.0293246749788522
0.0302992910146713
0.0310749448835849
0.0316606760025024
0.0320446081459522
0.0321719869971275
0.0319303609430789
0.03115214407444
0.0296402759850025
0.0272107422351837
0.0237370505928993
0.0191844999790191
0.0136293601244688
0.0072622550651431
0.0003716060891747
-0.0066944048739969
-0.0135744307190179
-0.0199343953281641
-0.0254971049726009
-0.0300597324967384
-0.0334992557764053
-0.0357689708471298
-0.0368898138403892
-0.0369402021169662
-0.0360462553799152
-0.0343701429665088
-0.0320955552160739
-0.0294126514345407
-0.0265027321875095
-0.0235216896981
-0.0205879788845777
-0.0177822411060333
-0.0151519598439335
-0.0127113498747348
-0.0104409456253051
-0.0082934601232409
-0.0062041012570261
-0.0041027665138244
-0.0019271736964583
0.0003662826493382
0.0027974105905741
0.0053625511936843
0.008036945015192
0.0107774818316102
0.0135290622711181
0.0162346437573432
0.0188402589410543
0.021292645484209
0.0235392861068248
0.0255346428602933
0.0272468440234661
0.0286605954170227
0.0297769494354724
0.0306123010814189
0.031196704134345
0.0315707996487617
0.0317790545523166
0.0318552702665329
0.0318012423813343
0.0315656550228595
0.031033556908369
0.0300351567566394
0.0283717904239892
0.025850985199213
0.0223269015550613
0.0177409164607524
0.0121495965868234
0.0057293344289064
-0.0012425314635038
-0.008423238992691
-0.0154479267075657
-0.0219714790582656
-0.0277016460895538
-0.0324199460446834
-0.0359905287623405
-0.0383590422570705
-0.0395430475473403
-0.0396183133125305
-0.0387093797326087
-0.0369855277240276
-0.0346518047153949
-0.0319288223981857
-0.0290272217243909
-0.0261249262839555
-0.0233519095927476
-0.0207837931811809
-0.0184431672096252
-0.0163072533905506
-0.0143198352307081
-0.0124059217050671
-0.0104875480756163
-0.0084968321025371
-0.0063829631544649
-0.0041125784628093
-0.0016696243546903
0.0009379758266732
0.0036716982722282
0.0064668715931475
0.009245173074305
0.0119273038581013
0.0144438482820987
0.0167433395981788
0.0187953207641839
0.0205878280103206
0.0221222061663866
0.023409629240632
0.0244700983166694
0.0253309570252895
0.0260238405317068
0.026582034304738
0.0270348638296127
0.0273908227682113
0.0276118982583284
0.0275953616946935
0.0271766353398561
0.0261536687612533
0.0243246033787727
0.0215298272669315
0.0176906064152717
0.0128362923860549
0.0071131726726889
0.0007713893428444
-0.005866898689419
-0.0124478777870535
-0.0186255741864442
-0.0240960083901882
-0.0286239720880985
-0.0320604667067527
-0.0343476831912994
-0.0355112552642822
-0.0356438681483268
-0.0348854102194309
-0.0334041006863117
-0.0313801243901252
-0.0289918147027492
-0.0264040902256965
-0.0237587392330169
-0.0211667772382497
-0.0187027156352996
-0.0164019633084535
-0.0142621016129851
-0.0122476415708661
-0.0103016477078199
-0.0083632925525307
-0.0063815382309257
-0.0043197600170969
-0.0021558930166065
0.00011685595382
0.0024887097533792
0.0049340953119099
0.0074147256091237
0.0098835751414299
0.0122905280441045
0.0145893571898341
0.016741819679737
0.0187174901366233
0.0204946100711822
0.0220631901174783
0.0234233848750591
0.0245790611952543
0.0255340319126844
0.0262927860021591
0.0268631055951118
0.0272562839090824
0.0274793431162834
0.0275187101215124
0.0273217037320137
0.0267859045416116
0.0257654301822185
0.0240942295640707
0.0216197669506073
0.0182407721877098
0.0139414323493838
0.0088123688474297
0.0030487608164548
-0.0030764918774366
-0.0092512844130396
-0.015160247683525
-0.020516213029623
-0.0250867009162902
-0.0287099070847034
-0.0312976092100143
-0.0328296050429344
-0.0333462208509445
-0.0329410657286644
-0.0317511111497879
-0.0299427136778831
-0.0276971720159053
-0.0251957736909389
-0.0226010456681251
-0.0200416781008243
-0.0176091566681861
-0.0153586892411112
-0.0133081655949354
-0.0114398244768381
-0.0097084278240799
-0.0080533409491181
-0.0064097656868398
-0.0047191260382533
-0.0029383664950728
-0.001043745665811
0.0009699435904622
0.0030909501947462
0.0052930889651179
0.0075403237715363
0.0097923725843429
0.0120070278644561
0.0141384396702051
0.0161378122866153
0.0179589670151472
0.0195638071745634
0.0209258515387773
0.0220334567129611
0.0228909905999898
0.023516796529293
0.0239390674978494
0.0241892635822296
0.0242909900844097
0.0242426712065935
0.0239986199885606
0.0234603490680456
0.0224873535335063
0.0209243893623352
0.0186350736767053
0.015535520389676
0.0116229029372334
0.0069907307624816
0.0018251817673444
-0.0036162622272968
-0.0090372683480381
-0.014138632453978
-0.0186507552862167
-0.0223581492900848
-0.0251154713332653
-0.0268551521003246
-0.0275861397385597
-0.0273844972252845
-0.0263793300837278
-0.0247391387820243
-0.0226594544947147
-0.0203468482941389
-0.0179971549659967
-0.0157732106745243
-0.0137886023148894
-0.0120999608188867
-0.0107080265879631
-0.0095663424581289
-0.0085949841886758
-0.0076962104067206
-0.0067692790180444
-0.0057249101810157
-0.0044992035254836
-0.0030599767342209
-0.0014023636467754
0.0004556157218758
0.0024701261427253
0.0045720785856246
0.0066796168684959
0.0087135517969727
0.0106066837906837
0.0123079363256692
0.0137848611921072
0.0150253968313336
0.0160346906632184
0.0168199632316827
0.0173653718084096
0.0176113545894622
0.0174510851502418
0.0167474634945392
0.0153669659048318
0.0132167097181081
0.0102697322145104
0.0065768542699515
0.0022700107656419
-0.0024439352564513
-0.0073031135834753
-0.0120226377621293
-0.0163296982645988
-0.0199924707412719
-0.0228376556187868
-0.0247569195926189
-0.0257080867886543
-0.0257148277014493
-0.0248621217906475
-0.0232845190912485
-0.0211485605686903
-0.0186360105872154
-0.0159320048987865
-0.0132118593901395
-0.0106237195432186
-0.0082736685872077
-0.0062171737663447
-0.0044581731781363
-0.0029568555764853
-0.0016423449851572
-0.0004265019670128
0.0007808939553797
0.0020574848167598
0.0034593711607158
0.0050194673240184
0.0067499629221856
0.0086443442851305
0.0106758559122681
0.0127943018451333
0.0149273322895169
0.0169901698827743
0.0189006514847278
0.0205926969647407
0.0220246575772762
0.0231812838464975
0.0240691751241683
0.024710077792406
0.0251333229243755
0.02536017075181
0.025379043072462
0.0251246094703674
0.0244753770530223
0.0232739858329296
0.0213617198169231
0.0186158400028944
0.0149829080328345
0.0105011714622378
0.0053056227043271
-0.0003843693702947
-0.0062901461496949
-0.0121063562110066
-0.0175356026738882
-0.0223190337419509
-0.0262580905109643
-0.0292247608304023
-0.0311618540436029
-0.0320778973400592
-0.0320379696786403
-0.0311505775898695
-0.0295561123639345
-0.0274198539555072
-0.0249221175909042
-0.0222402550280094
-0.019529353827238
-0.0169093813747167
-0.0144591117277741
-0.0122157214209437
-0.0101778339594602
-0.0083095151931047
-0.006547805853188
-0.0048151882365345
-0.0030343877151608
-0.0011424301192164
0.000901561230421
0.0031163776293396
0.005498195067048
0.0080163236707448
0.0106139834970235
0.0132175283506512
0.0157487988471984
0.0181358233094215
0.0203200280666351
0.0222617331892251
0.0239435415714979
0.0253672953695058
0.026546411216259
0.0275007523596286
0.0282517522573471
0.0288068503141403
0.0291358828544616
0.0291569661349058
0.0287393573671579
0.0277187172323465
0.0259248819202184
0.0232219267636537
0.0195493586361408
0.0149499392136931
0.0095756445080041
0.0036713888403028
-0.002456699963659
-0.0084800096228718
-0.0140861393883824
-0.0190104581415653
-0.0230554901063442
-0.0260983128100633
-0.0280876588076353
-0.0290332436561584
-0.0289962720125913
-0.0280867591500282
-0.0264588836580514
-0.0242958646267652
-0.0217888448387384
-0.0191176831722259
-0.0164361372590065
-0.0138609707355499
-0.011465941555798
-0.0092819985002279
-0.0073021249845623
-0.005487835034728
-0.0037771211937069
-0.0020952718332409
-0.0003669336438179
0.0014736168086528
0.003472224343568
0.0056437011808156
0.0079673770815134
0.0103938328102231
0.0128563474863767
0.0152811054140329
0.0175963509827852
0.0197405982762575
0.021668080240488
0.0233509466052055
0.024779338389635
0.0259598717093467
0.0269117578864097
0.0276606045663356
0.0282311867922544
0.0286369659006595
0.0288603957742452
0.0288286693394184
0.0284040682017803
0.0274012256413698
0.0256269127130508
0.0229283422231674
0.0192340463399887
0.0145789440721273
0.0091105811297893
0.0030743884854018
-0.003218307159841
-0.0094307353720068
-0.0152405872941017
-0.0203720480203628
-0.0246152468025684
-0.0278327763080596
-0.0299601405858993
-0.0310057885944843
-0.0310471076518297
-0.0302182417362928
-0.028692752122879
-0.0266666691750288
-0.0243408605456352
-0.0218997243791818
-0.0194931104779243
-0.0172277372330427
-0.0151648446917533
-0.0133216865360736
-0.0116770146414637
-0.0101795298978686
-0.0087577532976865
-0.007330110296607
-0.0058187935501337
-0.0041678892448544
-0.0023545809090137
-0.0003871983790304
0.0017032029572874
0.0038709798827767
0.006062189117074
0.0082210311666131
0.0102966642007231
0.0122463554143905
0.0140351075679063
0.0156367812305688
0.0170368738472461
0.018233023583889
0.0192343071103096
0.0200610607862472
0.0207387879490852
0.0212820470333099
0.0216741655021905
0.0218506008386611
0.0216939337551593
0.0210462808609008
0.0197366550564765
0.0176166240125894
0.0145972063764929
0.0106779476627707
0.0059594456106424
0.0006364258006215
-0.0050247265025973
-0.010718734934926
-0.016137333586812
-0.0209989994764328
-0.0250718705356121
-0.0281940177083015
-0.0302855726331472
-0.0313469991087913
-0.0314477868378162
-0.0307111330330371
-0.0292971469461917
-0.0273856911808252
-0.0251598712056875
-0.0227913316339254
-0.0204278491437435
-0.0181821845471858
-0.0161229148507118
-0.0142718441784381
-0.0126079358160495
-0.011073887348175
-0.0095889363437891
-0.0080689061433076
-0.00644351541996
-0.0046657971106469
-0.0027164374478161
-0.0006034378893673
0.0016427219379693
0.0039757895283401
0.0063400897197425
0.0086758686229586
0.0109242713078856
0.0130325341597199
0.0149596268311142
0.0166803076863288
0.0181842111051082
0.0194697957485914
0.0205319505184888
0.0213420912623405
0.0218313746154308
0.021892100572586
0.0213987287133932
0.0202389657497406
0.018345721065998
0.0157235004007816
0.0124647412449121
0.0087509620934724
0.0048354091122746
0.0010128868743777
-0.0024146027863025
-0.0051718265749514
-0.0070376694202423
-0.0078609874472022
-0.0075700329616665
-0.0061804340220987
-0.0037962379865348
-0.0005982741713523
0.0031781001016497
0.007269836962223
0.0114115551114082
0.0153568089008331
0.0188963077962398
0.0218734368681907
0.024194274097681
0.0258288756012916
0.0268045160919427
0.0271938554942607
0.027100920677185
0.0266465749591588
0.0259502902626991
0.0251072701066732
0.0241721142083406
0.0231603365391492
0.0220630094408988
0.0208600480109453
0.0195271465927362
0.018042791634798
0.0163961816579103
0.0145916398614645
0.0126500464975833
0.0106079429388046
0.0085127688944339
0.006413422524929
0.0043442100286483
0.0023030154407024
0.0002299584448337
-0.0020019747316837
-0.0045718662440776
-0.0076727867126464
-0.0114664379507303
-0.0160440802574157
-0.0214009303599596
-0.0274279527366161
-0.0339199975132942
-0.0405979380011558
-0.0471414886415004
-0.0532257556915283
-0.0585562922060489
-0.06289903819561
-0.06609708070755
-0.0680712908506393
-0.0688165873289108
-0.0684019774198532
-0.0669650211930275
-0.0646934509277343
-0.0618010014295578
-0.0585047043859958
-0.055005170404911
-0.0514714419841766
-0.0480317212641239
-0.044769063591957
-0.0417217463254928
-0.0388882458209991
-0.0362340658903121
-0.0336989946663379
-0.0312058068811893
-0.028670547530055
-0.0260164868086576
-0.0231910292059183
-0.0201760865747928
-0.0169862005859613
-0.0136602139100432
-0.0102524291723966
-0.0068232305347919
-0.0034306682646274
-0.00012525357306
0.0030542016029357
0.0060828025452792
0.008944509550929
0.0116187315434217
0.0140615049749612
0.0161883123219013
0.0178694948554039
0.0189409740269184
0.0192266162484884
0.0185727663338184
0.0168891064822673
0.0141805075109004
0.0105605935677886
0.0062465667724609
0.0015362184494733
-0.0032297316938638
-0.0077095162123441
-0.0115952212363481
-0.0146371684968471
-0.0166588556021451
-0.0175635050982236
-0.0173316299915313
-0.0160112008452415
-0.0137078054249286
-0.0105795450508594
-0.006829485297203
-0.0026865862309932
0.0016206316649913
0.0058884546160697
0.0099572427570819
0.0137228779494762
0.0171371474862098
0.0202000066637992
0.0229493528604507
0.0254502929747104
0.0277844611555337
0.0300392806529998
0.0322963669896125
0.0346206128597259
0.0370503664016723
0.0395887233316898
0.0422019623219966
0.044827900826931
0.0473875850439071
0.0497965291142463
0.0519754961133003
0.053859781473875
0.0554062649607658
0.0565943457186222
0.0574173554778099
0.0578658021986484
0.0579064711928367
0.05746641010046
0.0564352013170719
0.0546904504299163
0.0521316528320312
0.0487055890262126
0.0444245748221874
0.0393826849758625
0.0337611101567745
0.0278123375028371
0.0218277722597122
0.0161007158458232
0.0108928997069597
0.0064099421724677
0.0027876170352101
8.76355916261673e-05
-0.0016990974545478
-0.0026442231610417
-0.0028679622337222
-0.0025191940367221
-0.0017587691545486
-0.0007527042180299
0.0003340831026434
0.0013522347435355
0.0021856999956071
0.0027640126645565
0.0030651404522359
0.003111254889518
0.0029626886826008
0.0027110686060041
0.0024684066884219
0.0023510660976171
0.0024616022128611
0.0028735068626701
0.0036235053557902
0.0047111888416111
0.0060989162884652
0.0077098254114389
0.0094320550560951
0.0111334230750799
0.012681252323091
0.0139607656747102
0.0148884113878011
0.0154173783957958
0.0155329285189509
0.0152357686311006
0.0145160611718893
0.0133325010538101
0.0116111412644386
0.0092620328068733
0.0062060188502073
0.0024080276489257
-0.0020957104861736
-0.0071906968951225
-0.0126935122534632
-0.0183673184365034
-0.0239436496049165
-0.0291516110301017
-0.0337470024824142
-0.0375334694981575
-0.0403750427067279
-0.0422016642987728
-0.0430085994303226
-0.0428520068526268
-0.0418421030044555
-0.040134210139513
-0.0379151441156864
-0.0353826470673084
-0.0327253080904483
-0.0301111862063407
-0.0276793278753757
-0.0255268160253763
-0.0236976742744445
-0.0221816170960664
-0.0209219139069318
-0.0198307372629642
-0.0188087932765483
-0.0177619643509387
-0.01661186106503
-0.0153017528355121
-0.0138001795858144
-0.0121034048497676
-0.010232388973236
-0.008222073316574
-0.00611337646842
-0.0039565805345773
-0.001818660646677
0.0002133399248123
0.0020294338464736
0.0034933108836412
0.0044472217559814
0.0047311950474977
0.0042117480188608
0.0028113462030887
0.0005323961377143
-0.0025305049493908
-0.0061962623149156
-0.0102194622159004
-0.0143187623471021
-0.0182041507214307
-0.02160513587296
-0.0242992527782917
-0.0261317230761051
-0.0270220376551151
-0.026964396238327
-0.0260263830423355
-0.0243400651961565
-0.0220828298479318
-0.0194552056491374
-0.0166601911187171
-0.0138834733515977
-0.0112767163664102
-0.0089455284178256
-0.0069432137534022
-0.0052719507366418
-0.0038876717444509
-0.0027088485658168
-0.0016345825279131
-0.0005662683979608
0.0005785028915852
0.0018597998423501
0.0033103073947131
0.0049324654974043
0.0067034596577286
0.0085855349898338
0.0105331940576434
0.0124925570562481
0.0143927363678812
0.0161328967660665
0.0175739843398332
0.0185454376041889
0.0188691355288028
0.0183911677449941
0.0170102640986442
0.0147001519799232
0.0115250395610928
0.0076430197805166
0.0032934914343059
-0.0012305518612265
-0.0056179407984018
-0.0095722824335098
-0.0128397438675165
-0.0152307003736495
-0.0166312754154205
-0.0170067064464092
-0.016400022432208
-0.014922559261322
-0.0127347577363252
-0.0100266002118587
-0.0070052873343229
-0.0038827331736683
-0.0008550696074962
0.0019211135804653
0.0043460605666041
0.0063821184448897
0.0080483518540859
0.009408600628376
0.0105554666370153
0.0115927280858159
0.0126197170466184
0.0137192411348223
0.0149491792544722
0.0163394473493099
0.0178943071514368
0.0195942837744951
0.0213946849107742
0.0232268907129764
0.0250036790966987
0.0266189090907573
0.0279385391622781
0.0287948604673147
0.0289973895996809
0.0283617116510868
0.0267468020319938
0.0240896232426166
0.0204268712550401
0.0158978477120399
0.0107306772843003
0.0052191037684679
-0.0003064153715968
-0.0055166757665574
-0.0101255429908633
-0.0139169245958328
-0.0167516637593507
-0.0185658615082502
-0.0193666853010654
-0.0192244499921798
-0.018260546028614
-0.0166324414312839
-0.0145168080925941
-0.0120935440063476
-0.0095330709591507
-0.0069851856678724
-0.0045680170878767
-0.002357848919928
-0.0003837216645479
0.0013664280995726
0.0029294192790985
0.004351622890681
0.0056812800467014
0.0069646248593926
0.0082417270168662
0.0095433834940195
0.0108904875814914
0.0122930975630879
0.0137484688311815
0.0152422524988651
0.0167515650391578
0.0182422623038291
0.0196596384048461
0.0209180936217308
0.021894484758377
0.022429309785366
0.0223394148051738
0.0214450228959321
0.0196073949337005
0.0167653486132621
0.0129594774916768
0.008337914943695
0.0031424628105014
-0.00232077203691
-0.0077191642485558
-0.0127327572554349
-0.0170877166092395
-0.020577598363161
-0.0230719354003667
-0.0245160665363073
-0.0249242912977933
-0.0243705436587333
-0.0229815673083066
-0.0209291521459817
-0.0184154845774173
-0.0156524199992418
-0.0128391748294234
-0.0101425647735595
-0.0076834503561258
-0.0055299592204391
-0.0036969846114516
-0.0021535116247832
-0.0008354093879461
0.0003410780336707
0.0014656108105555
0.0026214509271085
0.003876736620441
0.0052758594974875
0.0068303593434393
0.0085165333002805
0.0102842217311263
0.0120710134506225
0.0138131938874721
0.0154524073004722
0.0169405955821275
0.018242061138153
0.0193290617316961
0.0201674364507198
0.020696273073554
0.0208155885338783
0.0203917529433965
0.0192809719592332
0.0173649322241544
0.0145834665745496
0.0109522426500916
0.0065681748092174
0.0016065379604697
-0.0036921184509992
-0.0090456586331129
-0.0141610456630587
-0.0187661908566951
-0.0226359441876411
-0.0256080720573663
-0.0275904573500156
-0.0285614971071481
-0.0285660289227962
-0.027709063142538
-0.0261434875428676
-0.024048775434494
-0.0216097943484783
-0.0190047603100538
-0.0163970105350017
-0.0139230880886316
-0.0116798747330904
-0.0097170937806367
-0.008036583662033
-0.0065976600162684
-0.0053292056545615
-0.004146572202444
-0.0029671334195882
-0.0017205228796228
-0.0003559181932359
0.0011526530142873
0.0028071086853742
0.0045921769924461
0.0064798975363373
0.008427508175373
0.0103769460693001
0.0122619774192571
0.0140189733356237
0.0155952963978052
0.0169489998370409
0.0180372353643178
0.0187995247542858
0.019146304577589
0.0189608670771121
0.0181165058165788
0.0165041126310825
0.0140624921768903
0.0108048524707555
0.0068345284089446
0.0023406073451042
-0.0024284622631967
-0.00720049533993
-0.0117109427228569
-0.0157266408205032
-0.0190608277916908
-0.0215804018080234
-0.0232106484472751
-0.0239376537501811
-0.0238054059445858
-0.0229079388082027
-0.0213777348399162
-0.0193719081580638
-0.0170570276677608
-0.0145928021520376
-0.0121173355728387
-0.0097394678741693
-0.0075393146835267
-0.0055686607956886
-0.003847406245768
-0.0023623071610927
-0.0010713952360674
8.706154767423868e-05
0.0011834480101242
0.0022855182178318
0.0034486586228013
0.0047109047882258
0.0060911807231605
0.0075872847810387
0.0091758659109473
0.0108181592077016
0.0124709466472268
0.0140937697142362
0.0156458336859941
0.0170818604528903
0.0183560345321893
0.0194285959005355
0.0202668420970439
0.0208380967378616
0.0210958011448383
0.0209667459130287
0.0203524529933929
0.0191472768783569
0.017263013869524
0.0146524924784898
