bvp
-0.0049650436267256
-0.0045993248932063
-0.0041564544662833
-0.0036408368032425
-0.0030552968382835
-0.0024131019599735
-0.0017421927768737
-0.0010779886506497
-0.0004544381517916
0.000101804267615
0.0005750802811235
0.0009625593665987
0.0012719405349344
0.001516168937087
0.001708963420242
0.0018613311694934
0.0019774404354393
0.0020502978004515
0.0020607346668839
0.0019807384815067
0.0017751284176483
0.0013999443035572
0.0008048138115555
-5.790404975414276e-05
-0.0012209261767566
-0.0026916563510894
-0.0044471705332398
-0.0064338231459259
-0.0085696317255496
-0.0107496343553066
-0.0128548890352249
-0.0147645864635705
-0.0163682084530591
-0.017574243247509
-0.0183143001049757
-0.0185454841703176
-0.0182578228414058
-0.0174851659685373
-0.0163066666573286
-0.0148349227383732
-0.0131987407803535
-0.0115236341953277
-0.0099100759252905
-0.0084170931950211
-0.0070583000779151
-0.0058075357228517
-0.0046077873557806
-0.0033819917589426
-0.0020477473735809
-0.0005336012691259
0.0012096017599105
0.0032045468688011
0.0054454021155834
0.0078941658139228
0.010481865145266
0.0131195923313498
0.0157130677253007
0.0181742552667856
0.0204302910715341
0.0224304627627134
0.0241478905081748
0.0255759079009294
0.0267246402800083
0.0276181958615779
0.0282891504466533
0.0287697836756706
0.0290826670825481
0.029234766960144
0.0292130708694458
0.0289775058627128
0.0284562818706035
0.0275488160550594
0.0261354576796293
0.0240971893072128
0.0213461928069591
0.0178557038307189
0.0136742955073714
0.0089201107621192
0.0037629343569278
-0.0015961397439241
-0.0069430489093065
-0.0120664276182651
-0.0167718827724456
-0.0208941400051116
-0.0243070386350154
-0.0269330292940139
-0.0287483464926481
-0.0297822840511798
-0.0301136970520019
-0.0298616718500852
-0.0291694514453411
-0.0281861051917076
-0.0270472224801778
-0.0258578285574913
-0.02468216791749
-0.0235408060252666
-0.0224135145545005
-0.0212468896061182
-0.0199652276933193
-0.0184814184904098
-0.0167101975530385
-0.0145876202732324
-0.0120872985571622
-0.0092236325144767
-0.0060445647686719
-0.0026207957416772
0.0009619519114494
0.0046081840991973
0.0082211233675479
0.0117126647382974
0.0150095988065004
0.0180566310882568
0.0208186320960521
0.0232820268720388
0.0254537183791399
0.0273570828139781
0.0290233381092548
0.0304755195975303
0.0317118242383003
0.0326992645859718
0.0333792269229888
0.0336816795170307
0.0335440374910831
0.0329274423420429
0.0318249389529228
0.0302627496421337
0.0282983537763357
0.0260167494416236
0.0235231090337038
0.0209301616996526
0.0183467417955398
0.015873484313488
0.0135960038751363
0.0115707935765385
0.0098183248192071
0.0083301020786166
0.0070804064162075
0.0060356119647622
0.0051595629192888
0.004415557719767
0.0037667041178792
0.0031760116107761
0.0026087430305778
0.0020379764027893
0.0014490219764411
0.0008398031932301
0.0002205338096246
-0.0003844354359898
-0.000938202952966
-0.0014022915856912
-0.0017506872536614
-0.0019781412556767
-0.0021004148293286
-0.00214698840864
-0.0021517560817301
-0.0021470875944942
-0.0021600525360554
-0.0022091141436249
-0.0023021628148853
-0.002437190618366
-0.002604441717267
-0.0027876133099198
-0.0029648514464497
-0.003111648838967
-0.0032090037129819
-0.0032561430707573
-0.00327879935503
-0.0033286758698523
-0.0034760842099785
-0.0037976731546223
-0.0043643545359373
-0.0052329911850392
-0.0064387656748294
-0.007985757663846
-0.0098388455808162
-0.0119224339723587
-0.0141289122402668
-0.0163344833999872
-0.0184152126312255
-0.0202572792768478
-0.0217652469873428
-0.0228735767304897
-0.0235557928681373
-0.0238250419497489
-0.0237269923090934
-0.0233285035938024
-0.0227069072425365
-0.0219418164342641
-0.0211063046008348
-0.0202579535543918
-0.0194340497255325
-0.0186512470245361
-0.0179074108600616
-0.0171849820762872
-0.0164537914097309
-0.0156719237565994
-0.0147927086800336
-0.0137805696576833
-0.0126219699159264
-0.0113244485110044
-0.0099103339016437
-0.0084097636863589
-0.0068549690768122
-0.0052786436863243
-0.0037152154836803
-0.0022009573876857
-0.0007697792025282
0.0005542380968108
0.0017603327287361
0.0028498321771621
0.0038373665884137
0.0047522387467324
0.0056289592757821
0.006488524377346
0.007326750550419
0.0081160478293895
0.0088114961981773
0.0093535389751195
0.0096700210124254
0.0096842953935265
0.0093289744108915
0.0085612190887331
0.0073759658262133
0.0058115208521485
0.0039471117779612
0.0018964076880365
-0.0002032204065471
-0.0022052600979804
-0.0039710761047899
-0.0053892768919467
-0.0063913557678461
-0.0069559076800942
-0.0071026193909347
-0.0068831932730972
-0.0063722389750182
-0.0056562758982181
-0.0048218825832009
-0.0039459937252104
-0.003087889868766
-0.0022843633778393
-0.0015512774698436
-0.000888058450073
-0.0002784803509712
0.0003127749077975
0.0009372462518513
0.0016461363993585
0.002471923828125
0.0034216162748634
0.0044811489060521
0.0056240363046526
0.0068176025524735
0.0080258110538125
0.0092120673507452
0.0103430543094873
0.0113925216719508
0.012342981994152
0.0131843853741884
0.0139125939458608
0.0145308431237936
0.0150529192760586
0.0155008248984813
0.0158938094973564
0.0162375885993242
0.016520045697689
0.0167102739214897
0.0167592614889144
0.0166040118783712
0.0161750838160514
0.0154060926288366
0.0142442565411329
0.0126612866297364
0.0106633929535746
0.0082976203411817
0.0056508146226406
0.0028413024265319
6.5207714214921e-06
-0.0027142923790961
-0.0052000796422362
-0.0073611671105027
-0.0091430284082889
-0.0105241164565086
-0.0115100434049963
-0.0121272541582584
-0.0124176451936364
-0.0124338250607252
-0.012234553694725
-0.0118781616911292
-0.0114150280132889
-0.0108834309503436
-0.010309156961739
-0.0097045646980404
-0.0090655479580163
-0.0083742113783955
-0.0076117175631225
-0.0067706047557294
-0.0058558834716677
-0.0048781409859657
-0.0038475021719932
-0.0027720844373106
-0.0016602554824203
-0.0005240880418568
0.0006193495355546
0.0017498474335297
0.0028477052692323
0.0038968906737864
0.0048861871473491
0.0058105578646063
0.0066747199743986
0.0074926628731191
0.0082778623327612
0.0090322354808449
0.0097435638308525
0.0103910071775317
0.0109513606876134
0.0113987810909748
0.0116985449567437
0.0118022728711366
0.0116499345749616
0.0111788688227534
0.0103357834741473
0.0090862307697534
0.0074212262406945
0.0053651970811188
0.002984297228977
0.0003842692822217
-0.0023066704161465
-0.0049574524164199
-0.0074470899999141
-0.0096726808696985
-0.01155352499336
-0.0130335222929716
-0.0140846250578761
-0.0147086046636104
-0.0149325598031282
-0.0147995064035058
-0.0143602499738335
-0.0136702777817845
-0.0127894897013902
-0.0117775816470384
-0.0106841018423438
-0.009545125067234
-0.008391298353672
-0.0072555700317025
-0.0061721121892333
-0.0051693273708224
-0.0042634159326553
-0.0034564845263957
-0.0027383835986256
-0.0020905095152556
-0.0014895070344209
-0.0009093694970943
-0.0003247734857723
0.0002831255551427
0.0009228966664522
0.0015959775773808
0.0023038275539875
0.0030470737256109
0.0038156304508447
0.0045837676152586
0.0053154905326664
0.0059751537628471
0.0065377671271562
0.0069938362576067
0.0073483809828758
0.0076192556880414
0.0078365830704569
0.0080373436212539
0.0082523711025714
0.0084944702684879
0.0087550617754459
0.0090058827772736
0.0092009278014302
0.0092765623703598
0.0091503681614995
0.0087276715785264
0.007922813296318
0.0066861249506473
0.0050210366025567
0.0029846536926925
0.0006761655677109
-0.0017796450993046
-0.0042492160573601
-0.0066041722893714
-0.0087318290024995
-0.0105434786528348
-0.0119792632758617
-0.013006567955017
-0.0136135388165712
-0.0138075072318315
-0.0136222941800951
-0.0131227038800716
-0.0123965106904506
-0.0115384934470057
-0.0106350295245647
-0.009753399528563
-0.0089352102950215
-0.008193364366889
-0.0075144446454942
-0.0068655903451144
-0.0062035284936428
-0.0054843453690409
-0.0046716788783669
-0.0037407537456601
-0.0026764585636556
-0.0014710954856127
-0.0001296524424105
0.0013235714286565
0.0028483662754297
0.004401178099215
0.0059462916105985
0.0074580814689397
0.0089168427512049
0.0103052565827965
0.0116086062043905
0.0128179406747221
0.0139336585998535
0.0149657521396875
0.0159289613366127
0.016836792230606
0.0177002064883708
0.0185285992920398
0.0193257369101047
0.0200831107795238
0.0207793917506933
0.0213862247765064
0.0218749660998582
0.0222220104187726
0.0224108211696147
0.0224290508776903
0.0222620777785778
0.021885534748435
0.021261541172862
0.0203425548970699
0.0190809518098831
0.0174408853054046
0.0154105015099048
0.0130092883482575
0.0102870864793658
0.0073184473440051
0.0041949013248085
0.0010170340538024
-0.0021123494952917
-0.0050949780270457
-0.0078425155952572
-0.0102805290371179
-0.0123544987291097
-0.0140364188700914
-0.0153261115774512
-0.0162477232515811
-0.016846440732479
-0.017184292897582
-0.0173292979598045
-0.0173428300768136
-0.0172764025628566
-0.0171736627817153
-0.0170679204165935
-0.0169781409204006
-0.0169078614562749
-0.0168458577245473
-0.0167684964835643
-0.0166454296559095
-0.0164468418806791
-0.0161479208618402
-0.0157313626259565
-0.0151910157874226
-0.0145340068265795
-0.0137767419219017
-0.0129371508955955
-0.0120328366756439
-0.0110865700989961
-0.0101284477859735
-0.0091903880238533
-0.0082989111542701
-0.0074708932079374
-0.0067125456407666
-0.0060205264016985
-0.0053839986212551
-0.0047866464592516
-0.0042083943262696
-0.0036269761621952
-0.0030197734013199
-0.0023669051006436
-0.0016539301723241
-0.0008723344653844
-2.2322870790958405e-05
0.0008810879662632
0.0018068579956889
0.0027137259021401
0.0035566110163927
0.0042888121679425
0.004860664717853
0.0052204979583621
0.0053195804357528
0.0051171341910958
0.0045853471383452
0.0037146303802728
0.0025181844830513
0.0010357303544878
-0.0006655603647232
-0.0024943882599473
-0.0043459073640406
-0.0061201960779726
-0.007737630046904
-0.0091417348012328
-0.0102950697764754
-0.0111778816208243
-0.0117885917425155
-0.0121404323726892
-0.0122560299932956
-0.0121629554778337
-0.011889586225152
-0.011461560614407
-0.0109004583209753
-0.0102250706404447
-0.0094517292454838
-0.0085910279303789
-0.0076477145776152
-0.0066284365020692
-0.0055474848486483
-0.0044236215762794
-0.0032745222561061
-0.0021140545140951
-0.0009507515933364
0.0002128171618096
0.0013772383099421
0.0025419306475669
0.003703118301928
0.0048535200767219
0.0059835226275026
0.0070831412449479
0.0081433663144707
0.0091586802154779
0.0101274494081735
0.0110457576811313
0.0119025409221649
0.012683730572462
0.0133794415742158
0.0139862354844808
0.0145050613209605
0.0149394422769546
0.0152958612889051
0.0155847463756799
0.0158193036913871
0.0160117670893669
0.016169985756278
0.0162980090826749
0.0164001602679491
0.0164815783500671
0.0165391154587268
0.016548017039895
0.0164580252021551
0.0162027925252914
0.015713308006525
0.0149280149489641
0.0138016818091273
0.0123156066983938
0.0104847773909568
0.0083581581711769
0.0060126725584268
0.0035413666628301
0.0010391753166913
-0.0014075594954192
-0.0037240260280668
-0.0058426721952855
-0.0077011347748339
-0.0092502571642398
-0.0104634864255785
-0.0113381566479802
-0.0118921548128128
-0.0121604576706886
-0.0121891209855675
-0.0120250489562749
-0.0117076355963945
-0.011267676949501
-0.0107288789004087
-0.0101080546155571
-0.0094166519120335
-0.0086626810953021
-0.007849489338696
-0.0069740889593958
-0.0060317097231745
-0.0050244866870343
-0.0039641535840928
-0.002867370378226
-0.0017517381347715
-0.000636028824374
0.0004594381898641
0.001515332609415
0.0025158850476145
0.0034494497813284
0.0043087513186037
0.005090189166367
0.0057910452596843
0.0064069209620356
0.0069330777041614
0.0073697562329471
0.0077221551910042
0.007991325110197
0.0081703122705221
0.0082506332546472
0.0082263723015785
0.0080937873572111
0.0078531596809625
0.0075112534686923
0.0070814117789268
0.0065816892310976
0.0060312459245324
0.0054457867518067
0.0048334840685129
0.0041920784860849
0.0035082986578345
0.0027591325342655
0.0019100466743111
0.0009114351123571
-0.0002961345016956
-0.0017657037824392
-0.0035260501317679
-0.0055693006142973
-0.0078459149226546
-0.010267574340105
-0.012719303369522
-0.0150794573128223
-0.0172381959855556
-0.0191065613180398
-0.0206203609704971
-0.0217434018850326
-0.0224654804915189
-0.0227943006902933
-0.0227506235241889
-0.0223719999194145
-0.0217178184539079
-0.0208652969449758
-0.0198952201753854
-0.0188760720193386
-0.0178552772849798
-0.0168577078729867
-0.0158877279609441
-0.0149341998621821
-0.0139766624197363
-0.0129902819171547
-0.0119501985609531
-0.0108348401263356
-0.0096275694668293
-0.0083173615857958
-0.0069002220407128
-0.0053848861716687
-0.003798940218985
-0.0021852012723684
-0.0005896780639886
0.0009489632211625
0.002405303530395
0.0037685236893594
0.0050394902937114
0.0062280129641294
0.0073512885719537
0.0084298960864543
0.0094817364588379
0.0105182779952883
0.0115456851199269
0.0125684887170791
0.013588948175311
0.0145993428304791
0.0155764203518629
0.016486220061779
0.0172944273799657
0.0179746057838201
0.0185111835598945
0.0188969690352678
0.0191270448267459
0.0191909000277519
0.0190660003572702
0.0187180452048778
0.0181092582643032
0.0172102097421884
0.0160105004906654
0.0145267592743039
0.0128037072718143
0.0109047014266252
0.0088998526334762
0.0068609146401286
0.0048606158234179
0.0029707821086049
0.0012569541577249
-0.0002291048876941
-0.0014546960592269
-0.0024076108820736
-0.0030951562803238
-0.0035414388403296
-0.0037829300854355
-0.0038629763294011
-0.0038250400684773
-0.0037046610377728
-0.0035265099722892
-0.0033109805081039
-0.0030802439432591
-0.0028541344217956
-0.0026430045254528
-0.0024475073441863
-0.0022626861464232
-0.0020815532188862
-0.0018998091109097
-0.0017206578049808
-0.0015559270977973
-0.0014226720668375
-0.0013350299559533
-0.0012945379130542
-0.0012840186245739
-0.0012670867145061
-0.0011977711692452
-0.0010371995158493
-0.0007627592422068
-0.0003674682229757
0.0001431738492101
0.0007563505787402
0.0014569615013897
0.0022277431562542
0.0030468895565718
0.0038892833981662
0.0047303056344389
0.0055469321087002
0.0063179354183375
0.007025851868093
0.0076595023274421
0.0082173533737659
0.0087051764130592
0.0091234790161252
0.0094570228829979
0.0096743907779455
0.0097329393029212
0.0095863565802574
0.0091920616105198
0.0085170082747936
0.0075443284586071
0.006278439424932
0.0047458750195801
0.0029950640164315
0.0010952339507639
-0.000869233161211
-0.0028071214910596
-0.0046273684129118
-0.0062492219731211
-0.007618052419275
-0.0087136849761009
-0.0095426104962825
-0.0101253651082515
-0.0104901269078254
-0.0106705073267221
-0.0107033420354127
-0.01062598451972
-0.0104733174666762
-0.0102748507633805
-0.0100526120513677
-0.0098209623247385
-0.0095875468105077
-0.0093520330265164
-0.0091034723445773
-0.0088228275999426
-0.0084904693067073
-0.0080918986350297
-0.0076206531375646
-0.0070784245617687
-0.0064714280888438
-0.0058068186044692
-0.0050922064110636
-0.0043361191637814
-0.0035476898774504
-0.0027377447113394
-0.0019209006568416
-0.0011148023186251
-0.0003373293438926
0.0003959719324484
0.0010762715246528
0.0017045770073309
0.0022869119420647
0.0028256676159799
0.0033170473761856
0.0037567364051938
0.0041465424001216
0.004494241438806
0.0048086983151733
0.0050976239144802
0.0053689647465944
0.0056313145905733
0.0058892709203064
0.0061338664963841
0.0063354866579174
0.0064468141645193
0.0064129089005291
0.0061801285482943
0.0057019903324544
0.0049469638615846
0.0039092046208679
0.0026158387772738
0.0011253877310082
-0.0004821724141947
-0.0021182813216
-0.0036960947327315
-0.0051373513415455
-0.0063779647462069
-0.007371962070465
-0.0080917691811919
-0.0085271773859858
-0.0086839655414223
-0.0085809053853154
-0.0082504004240036
-0.0077430228702723
-0.0071249334141612
-0.0064660357311367
-0.0058278962969779
-0.0052548358216881
-0.0047678756527602
-0.0043634790927171
-0.0040170894935727
-0.0036901235580444
-0.0033396081998944
-0.0029285880737006
-0.0024338327348232
-0.0018471954390406
-0.0011704349890351
-0.00040765106678
0.0004369281232357
0.0013524685055017
0.0023152772337198
0.0032908977009356
0.0042420742101967
0.0051377099007368
0.0059589715674519
0.0066994577646255
0.0073604527860879
0.0079460311681032
0.0084600783884525
0.0089038554579019
0.0092766303569078
0.0095807835459709
0.0098266135901212
0.0100337415933609
0.0102257030084729
0.0104172583669424
0.0106038236990571
0.010759787634015
0.0108435563743114
0.0108043812215328
0.0105879511684179
0.0101416828110814
0.0094219669699668
0.0084029594436287
0.0070830644108355
0.0054869810119271
0.0036648332607001
0.0016885556979104
-0.000354285002686
-0.0023675067350268
-0.0042560114525258
-0.0059389122761785
-0.007359520997852
-0.0084872748702764
-0.0093149170279502
-0.0098557192832231
-0.0101407524198293
-0.0102144349366426
-0.0101283015683293
-0.0099338190630078
-0.0096759889274835
-0.0093894191086292
-0.0090967649593949
-0.0088081620633602
-0.00851970911026
-0.0082121901214122
-0.0078573459759354
-0.0074317818507552
-0.0069259125739336
-0.0063436273485422
-0.0056988149881362
-0.0050106365233659
-0.0042976457625627
-0.0035735829733312
-0.0028464857023209
-0.002119708340615
-0.0013933987356722
-0.0006662607192993
6.202282384037971e-05
0.0007887419778853
0.001509912777692
0.0022250772453844
0.0029372419230639
0.0036448133178055
0.0043341517448425
0.0049808211624622
0.0055582299828529
0.0060465917922556
0.0064355111680924
0.0067204106599092
0.0068960171192884
0.0069484924897551
0.0068518221378326
0.0065725119784474
0.0060779065825045
0.005344308912754
0.0043666088022291
0.0031668227165937
0.0017926630098372
0.000306507339701
-0.0012238170020282
-0.0027289940044283
-0.0041411994025111
-0.005397671367973
-0.0064456909894943
-0.0072477739304304
-0.0077838762663304
-0.0080511895939707
-0.0080631524324417
-0.0078467987477779
-0.0074400645680725
-0.0068900766782462
-0.006247503682971
-0.0055560399778187
-0.004846628755331
-0.0041414056904613
-0.0034582358784973
-0.0028097415342926
-0.0022011417895555
-0.0016294890083372
-0.0010841623879969
-0.0005490775220096
-6.200280040502548e-06
0.0005603372119367
0.0011616824194788
0.0018046759068965
0.0024929014034569
0.0032260958105325
0.0040000583976507
0.0048093926161527
0.0056473514996469
0.0064990315586328
0.0073374593630433
0.0081303417682647
0.0088503332808613
0.0094785653054714
0.0100025236606597
0.0104145882651209
0.0107096824795007
0.0108783300966024
0.0108993668109178
0.0107387211173772
0.0103556681424379
0.0097133750095963
0.0087895411998033
0.0075857513584196
0.0061318078078329
0.0044790841639041
0.0026888283900916
0.0008266710210591
-0.0010378721635788
-0.002833548001945
-0.0044914605095982
-0.005948687903583
-0.0071510262787342
-0.0080556571483612
-0.0086352732032537
-0.0088838441297411
-0.0088206054642796
-0.0084882536903023
-0.007944444194436
-0.0072493148036301
-0.0064564580097794
-0.0056133768521249
-0.0047648386098444
-0.0039495127275586
-0.0031917970627546
-0.0024967608042061
-0.0018519703298807
-0.0012330426834523
-0.0006089378148317
5.1761046051979065e-05
0.0007731141522526
0.0015673080924898
0.0024349570740014
0.0033659713808447
0.0043411739170551
0.0053384536877274
0.0063372948206961
0.0073141930624842
0.0082365944981575
0.0090660993009805
0.0097689405083656
0.0103254923596978
0.0107342572882771
0.0110094444826245
0.0111745931208133
0.0112559590488672
0.0112754926085472
0.0112424027174711
0.0111460229381918
0.0109532065689563
0.0106133418157696
0.0100707598030567
0.00927459821105
0.0081809610128402
0.0067579885944724
0.0049983337521553
0.0029294474516063
0.0006152840796858
-0.0018503098981454
-0.004356084857136
-0.0067879948765039
-0.0090431123971939
-0.0110405283048748
-0.0127266710624098
-0.0140755902975797
-0.0150858480483293
-0.015773594379425
-0.0161648280918598
-0.0162934642285108
-0.0162042472511529
-0.0159509591758251
-0.0155869368463754
-0.0151545321568846
-0.0146791627630591
-0.0141684152185916
-0.0136146144941449
-0.0130009679123759
-0.0123079735785722
-0.0115154888480901
-0.010603585280478
-0.0095561789348721
-0.0083661740645766
-0.0070386631414294
-0.0055894395336508
-0.0040427059866487
-0.0024336762726306
-0.000811202917248
0.0007668083999305
0.0022431111428886
0.0035702029708772
0.0047161085531115
0.0056680575944483
0.0064348494634032
0.0070449183695018
0.0075384685769677
0.0079583711922168
0.0083447191864252
0.0087316762655973
0.009146106429398
0.0096094198524951
0.0101361535489559
0.0107251666486263
0.0113539714366197
0.0119819873943924
0.0125548904761672
0.0130061479285359
0.0132602704688906
0.0132415145635604
0.0128849213942885
0.0121446372941136
0.0109997857362031
0.0094586517661809
0.0075603695586323
0.0053748292848467
0.0030005064327269
0.0005574476672336
-0.0018291159067302
-0.0040513332933187
-0.0060335453599691
-0.0077322968281805
-0.0091275982558727
-0.0102141192182898
-0.0109969079494476
-0.0114908209070563
-0.0117197865620255
-0.0117139387875795
-0.0115060517564415
-0.0111292786896228
-0.0106170186772942
-0.010003506205976
-0.0093205776065588
-0.0085896449163556
-0.0078190872445702
-0.0070123975165188
-0.0061746397987008
-0.0053094653412699
-0.0044162641279399
-0.0034944890066981
-0.002548842690885
-0.0015883666928857
-0.0006225523538887
0.0003400640562176
0.0012917290441691
0.0022270425688475
0.0031451899558305
0.004049118142575
0.0049433456733822
0.0058340122923254
0.006726293824613
0.0076152896508574
0.0084806419909
0.0092928260564804
0.0100231999531388
0.0106496298685669
0.0111591797322034
0.0115494010969996
0.0118268765509128
0.0120056178420782
0.0121064838021993
0.0121542299166321
0.0121726868674159
0.0121794268488883
0.0121805258095264
0.0121689103543758
0.0121220517903566
0.0119928931817412
0.011705607175827
0.0111682936549186
0.0102941980585455
0.0090196672827005
0.0073174647986888
0.0052044731564819
0.0027403156273066
1.877499744296074e-05
-0.0028423112817108
-0.005710813216865
-0.0084525095298886
-0.0109466016292572
-0.0130976131185889
-0.0148384477943182
-0.016132203862071
-0.0169779397547245
-0.0174115989357233
-0.017496133223176
-0.0173068866133689
-0.016919583082199
-0.0164019782096147
-0.0158083606511354
-0.0151772554963827
-0.0145308673381805
-0.013875207863748
-0.0132027361541986
-0.0124980881810188
-0.0117442803457379
-0.0109262578189373
-0.0100306738168001
-0.009047295898199
-0.0079762116074562
-0.0068313772790133
-0.005634369328618
-0.0044073555618524
-0.0031710150651633
-0.0019444612553343
-0.000745061552152
0.0004122554382774
0.0015163259813562
0.0025599095970392
0.0035371880512684
0.0044419313780963
0.0052699688822031
0.0060243154875934
0.0067186616361141
0.0073730512522161
0.0080006662756204
0.0085977911949157
0.0091474764049053
0.0096313096582889
0.0100375432521104
0.0103620393201708
0.0106059163808822
0.0107733458280563
0.0108701568096876
0.0109035894274711
0.0108832484111189
0.0108205256983637
0.0107245966792106
0.010596533305943
0.010423514060676
0.0101742502301931
0.0097959386184811
0.0092176813632249
0.0083652874454855
0.0071813841350376
0.0056411195546388
0.00375940464437
0.0015894984826445
-0.0007843784987926
-0.0032577959354966
-0.0057198847644031
-0.0080660507082939
-0.0102045349776744
-0.0120589770376682
-0.0135703980922698
-0.0146992001682519
-0.015429301187396
-0.0157729722559452
-0.0157694760710001
-0.0154767856001853
-0.0149624142795801
-0.0142962029203772
-0.0135428756475448
-0.0127538722008466
-0.0119620626792311
-0.0111806076020002
-0.010405920445919
-0.0096241794526577
-0.0088165681809186
-0.0079616857692599
-0.0070368372835218
-0.006017293781042
-0.0048782671801745
-0.0036054502706974
-0.0022062077187001
-0.0007101409137248
0.0008380431681871
0.002385679166764
0.0038803392089903
0.005279341712594
0.0065557342022657
0.0076984586194157
0.0087078791111707
0.0095908148214221
0.0103586083278059
0.0110263172537088
0.0116107743233442
0.0121300872415304
0.0126026449725031
0.0130403134971857
0.0134432055056095
0.0138032129034399
0.0141094913706183
0.014351493678987
0.0145206125453114
0.0146099869161844
0.0146143734455108
0.014533182606101
0.0143747851252555
0.0141559857875108
0.0138938585296273
0.0135937696322798
0.013241502456367
0.0128037435933947
0.0122312549501657
0.0114615801721811
0.0104275774210691
0.0090716164559125
0.0073588672094047
0.0052887573838233
0.0029023168608546
0.0002790596336126
-0.0024749245494604
-0.0052405591122806
-0.0078995656222105
-0.0103477407246828
-0.0125040747225284
-0.0143135711550712
-0.0157437473535537
-0.016779227182269
-0.0174231231212615
-0.017703827470541
-0.0176747702062129
-0.0174049939960241
-0.0169681534171104
-0.016431950032711
-0.0158488489687442
-0.0152512192726135
-0.0146508440375328
-0.014042155817151
-0.0134082827717065
-0.0127268387004733
-0.0119755687192082
-0.0111395716667175
-0.010215944610536
-0.0092102056369185
-0.0081297559663653
-0.006984316278249
-0.005790957249701
-0.0045749898999929
-0.0033653534483164
-0.0021891985088586
-0.0010688779875636
-2.058118116110564e-05
0.0009463847381994
0.0018306203419342
0.0026398093905299
0.00338796665892
0.0040889373049139
0.0047527682036161
0.0053879520855844
0.0060066701844334
0.0066249426454305
0.0072523094713687
0.0078812325373291
0.00848906673491
0.0090493904426693
0.0095407711341977
0.0099488282576203
0.0102667361497879
0.0104953320696949
0.0106401368975639
0.0107084782794117
0.0107081998139619
0.0106438230723142
0.0105093074962496
0.0102828573435544
0.0099301105365157
0.0094107631593942
0.0086799729615449
0.0076911365613341
0.0064075230620801
0.0048160646110773
0.0029362686909735
0.0008229627273976
-0.0014385944232344
-0.0037445588968694
-0.0059860534965991
-0.0080611985176801
-0.0098858280107378
-0.0114002842456102
-0.012569548562169
-0.0133792348206043
-0.0138329584151506
-0.013956313021481
-0.0138026997447013
-0.0134481396526098
-0.0129750408232212
-0.0124559085816144
-0.011943063698709
-0.0114650558680295
-0.0110293002799153
-0.0106282522901892
-0.0102440128102898
-0.00985056348145
-0.0094173708930611
-0.008914615958929
-0.0083178300410509
-0.0076106563210487
-0.006784907542169
-0.0058407513424754
-0.0047904634848237
-0.003661612747237
-0.0024929719511419
-0.0013241649139672
-0.0001868410035967
0.0008974268566817
0.0019158753566443
0.0028648586012423
0.0037488834932446
0.0045749875716865
0.0053472034633159
0.0060663139447569
0.0067331106401979
0.0073526259511709
0.0079386830329895
0.0085117295384407
0.0090863648802042
0.009661303833127
0.0102224443107843
0.0107521843165159
0.0112344752997159
0.0116540417075157
0.0119931176304817
0.0122276414185762
0.0123236998915672
0.0122364880517125
0.0119143854826688
0.0113087501376867
0.0103866253048181
0.009143142029643
0.0076109459623694
0.0058581307530403
0.0039722323417663
0.0020443664398044
0.0001618749229237
-0.00159523030743
-0.0031578484922647
-0.0044726259075105
-0.0055065168999135
-0.0062485057860612
-0.0067078140564262
-0.0069084269925951
-0.0068837935104966
-0.0066758878529071
-0.006333839148283
-0.0059055006131529
-0.005426662042737
-0.0049190591089427
-0.0043973037973046
-0.003874723566696
-0.0033630051184445
-0.0028668732848018
-0.0023794127628207
-0.0018845535814762
-0.0013644788414239
-0.0008049141615629
-0.0001964634284377
0.0004652922507375
0.0011787207331508
0.0019349681679159
0.0027185594663023
0.0035107790026813
0.0042946911416947
0.0050555281341075
0.0057742912322282
0.0064248987473547
0.0069810263812541
0.0074254130013287
0.007755063008517
0.0079820854589343
0.0081314984709024
0.0082364408299326
0.0083295963704586
0.0084318527951836
0.0085436794906854
0.0086423307657241
0.0086832186207175
0.0086061088368296
0.0083470335230231
0.0078483577817678
0.007061711512506
0.0059523694217205
0.0045101447030901
0.0027589108794927
0.0007584011182188
-0.0014017760986462
-0.0036136484704911
-0.0057639544829726
-0.0077462256886065
-0.0094727408140897
-0.01088457275182
-0.0119540188461542
-0.0126791642978787
-0.0130755258724093
-0.0131676755845546
-0.0129861449822783
-0.0125738447532057
-0.0119907977059483
-0.0113050509244203
-0.0105780260637402
-0.0098561076447367
-0.009167693555355
-0.0085222609341144
-0.0079108737409114
-0.0073094326071441
-0.0066866781562566
-0.0060131549835205
-0.0052650114521384
-0.0044260183349251
-0.0034907106310129
-0.0024642273783683
-0.0013618126977235
-0.0002110463101416
0.0009509297087788
0.0020866391714662
0.003165487665683
0.0041660345159471
0.0050766728818416
0.0058949370868504
0.0066243270412087
0.0072716628201305
0.007846719585359
0.0083621777594089
0.0088318344205617
0.0092665450647473
0.0096717253327369
0.0100482432171702
0.0103891286998987
0.0106695732101798
0.0108410958200693
0.0108360489830374
0.010578216984868
0.009997745975852
0.0090487636625766
0.0077226171270012
0.0060509722679853
0.0040995990857481
0.0019589045550674
-0.0002653733245097
-0.0024619300384074
-0.0045243180356919
-0.00636094994843
-0.0079010864719748
-0.0090976702049374
-0.009932423941791
-0.0104192579165101
-0.010598748922348
-0.0105264103040099
-0.0102617209777235
-0.009861459955573
-0.009375762194395
-0.0088444240391254
-0.0082948924973607
-0.0077422568574547
-0.0071891769766807
-0.0066267917864024
-0.0060385135002434
-0.0054031861945986
-0.0046947253867983
-0.0038864822126924
-0.002964818617329
-0.0019386592321097
-0.0008360780775547
0.0003043611068278
0.0014412607997655
0.0025375830009579
0.0035660723224282
0.0045120483264327
0.0053738178685307
0.006158800330013
0.0068770800717175
0.0075376294553279
0.0081483805552124
0.0087185623124241
0.0092611983418464
0.009790507145226
0.0103136543184518
0.0108257113024592
0.01131188031286
0.0117516871541738
0.0121214743703603
0.0123952273279428
0.0125434836372733
0.0125307161360979
0.0123133147135376
0.0118427211418747
0.0110755525529384
0.0099844485521316
0.0085644517093896
0.0068368753418326
0.0048522166907787
0.0026868146378546
0.0004293262027204
-0.0018335204804316
-0.0040223272517323
-0.0060665067285299
-0.0079076029360294
-0.0095019768923521
-0.0108211170881986
-0.0118516590446233
-0.012595503591001
-0.0130678694695234
-0.0132932094857096
-0.0133014880120754
-0.0131251038983464
-0.0127943204715847
-0.0123323975130915
-0.011756744235754
-0.0110876113176345
-0.0103528266772627
-0.0095802675932645
-0.0087880529463291
-0.0079834228381514
-0.007167275995016
-0.0063373823650181
-0.0054893195629119
-0.0046180975623428
-0.0037195642944425
-0.002789155812934
-0.0018214393639937
-0.0008141143480315
0.00022841070313
0.0012978070881217
0.0023832195438444
0.0034646054264158
0.0045099109411239
0.0054836347699165
0.006357223726809
0.0071137771010398
0.0077489903196692
0.0082708597183227
0.0086979176849126
0.0090552028268575
0.0093683423474431
0.0096586430445313
0.0099408589303493
0.0102213388308882
0.0104965260252356
0.0107554867863655
0.010982098057866
0.0111487610265612
0.0112086795270442
0.0110974526032805
0.0107421213760972
0.0100733432918787
0.009038932621479
0.0076166409999132
0.0058241612277925
0.0037216781638562
0.0014034840278327
-0.0010164277628064
-0.003418490756303
-0.0056905378587543
-0.007737691514194
-0.0094857979565858
-0.0108832158148288
-0.0119071938097476
-0.0125680714845657
-0.012902551330626
-0.0129614882171154
-0.0128021854907274
-0.0124846547842025
-0.0120663251727819
-0.0115953916683793
-0.0111061446368694
-0.0106178224086761
-0.0101367104798555
-0.0096592204645276
-0.0091726863756775
-0.0086544016376137
-0.008073735050857
-0.0074009951204061
-0.0066202720627188
-0.0057369545102119
-0.0047736880369484
-0.0037595585454255
-0.0027228433173149
-0.0016895158914849
-0.0006817912217229
0.0002839376102201
0.0011973126092925
0.0020535148214548
0.0028527895919978
0.0035987412557005
0.0042960084974765
0.0049506747163832
0.0055738468654453
0.0061816191300749
0.0067873792722821
0.0073934281244874
0.0079895379021763
0.0085582872852683
0.0090820370241999
0.0095456214621663
0.0099338022992014
0.010227020829916
0.0103977331891655
0.0104084247723221
0.0102125080302357
0.009760077111423
0.0090085295960307
0.0079349782317876
0.0065463394857943
0.004879577551037
0.0029909005388617
0.0009466656483709
-0.0011769793927669
-0.0032937144860625
-0.0053136283531785
-0.0071547646075487
-0.0087511884048581
-0.0100544290617108
-0.0110334958881139
-0.0116765843704342
-0.0119927525520324
-0.0120108556002378
-0.0117743117734789
-0.0113320806995034
-0.0107297571375966
-0.0100081413984298
-0.0092090163379907
-0.0083770910277962
-0.0075529688037931
-0.0067635686136782
-0.0060171755030751
-0.0053050038404762
-0.0046066311188042
-0.0038960098754614
-0.0031473215203732
-0.0023405288811773
-0.0014649596996605
-0.0005201492458581
0.0004839973989874
0.0015289050061255
0.0025940320920199
0.0036621266044676
0.0047167148441076
0.0057387729175388
0.0067078731954097
0.0076040541753172
0.0084103969857096
0.0091180065646767
0.0097282333299517
0.0102493641898036
0.0106931962072849
0.011073968373239
0.0114059569314122
0.0116992266848683
0.0119584035128355
0.012186667881906
0.0123897073790431
0.0125720333307981
0.012726348824799
0.0128255104646086
0.012821976095438
0.0126520888879895
0.0122440112754702
0.0115296198055148
0.0104583818465471
0.00900942645967
0.0071989437565207
0.005082263611257
0.0027489983476698
0.0003109723329544
-0.0021126293577253
-0.0044078761711716
-0.006475081667304
-0.0082374038174748
-0.0096513722091913
-0.0107127036899328
-0.0114495046436786
-0.0119074042886495
-0.0121377762407064
-0.0121920760720968
-0.0121175851672887
-0.0119527718052268
-0.0117249581962823
-0.0114510282874107
-0.0111387083306908
-0.0107872961089015
-0.0103890104219317
-0.0099308472126722
-0.0093959085643291
-0.0087670749053359
-0.0080345310270786
-0.0072007537819445
-0.0062787216156721
-0.005287267267704
-0.0042477664537727
-0.0031825206242501
-0.0021132922265678
-0.0010592779144644
-3.4524797229096293e-05
0.0009543633786961
0.0019076210446655
0.0028286413289606
0.0037205959670245
0.0045867399312555
0.0054335468448698
0.0062683755531907
0.0070891459472477
0.0078775687143206
0.0086034154519438
0.009234745055437
0.0097467880696058
0.0101264361292123
0.0103737646713852
0.0105014750733971
0.0105293188244104
0.0104747610166668
0.0103451441973447
0.010131069459021
0.0098015666007995
0.0093086436390876
0.0086024412885308
0.0076443781144917
0.0064111426472663
0.0048983129672706
0.0031276228837668
0.0011507621966302
-0.0009531029500067
-0.003084790892899
-0.0051378849893808
-0.00701300567016
-0.0086278580129146
-0.0099239023402333
-0.010871922597289
-0.0114751383662223
-0.0117661599069833
-0.0117941908538341
-0.0116098634898662
-0.0112616959959268
-0.0108012519776821
-0.0102823292836546
-0.0097524560987949
-0.009245584718883
-0.008779002353549
-0.0083524957299232
-0.0079497843980789
-0.0075431754812598
-0.0071013271808624
-0.0065976725891232
-0.0060155736282467
-0.0053478856571018
-0.0045930622145533
-0.0037518045864999
-0.0028249989263713
-0.0018159146420657
-0.0007383050979115
0.0003787679306697
0.0014948004391044
0.0025654390919953
0.0035504573024809
0.0044213156215846
0.0051663955673575
0.0057909595780074
0.0063118897378444
0.0067521897144615
0.0071373214013874
0.0074910633265972
0.0078312074765563
0.0081679867580533
0.0085048554465174
0.0088352281600236
0.0091330558061599
0.0093462690711021
0.0094004049897193
0.0092115979641675
0.0087052732706069
0.0078348014503717
0.0065929647535085
0.0050136218778789
0.00316654285416
0.0011480876710265
-0.0009318555239588
-0.0029644225724041
-0.0048515126109123
-0.0065076891332864
-0.0078607024624943
-0.0088598821312189
-0.009489762596786
-0.0097748450934886
-0.009770474396646
-0.0095477979630231
-0.0091807059943676
-0.0087370555847883
-0.0082720192149281
-0.0078221699222922
-0.0074021788313984
-0.0070060808211565
-0.0066129988990724
-0.0061948099173605
-0.0057222349569201
-0.0051674558781087
-0.0045058634132146
-0.0037226816639304
-0.0028226734139025
-0.0018329620361328
-0.0007958991918712
0.0002429138403385
0.0012458759592846
0.0021889766212552
0.0030609590467065
0.0038599981926381
0.0045901304110884
0.0052580181509256
0.005871339701116
0.0064379363320767
0.0069648632779717
0.0074587943963706
0.0079278759658336
0.0083809960633516
0.0088211661204695
0.0092395488172769
0.009618155658245
0.0099370330572128
0.0101773208007216
0.0103189963847398
0.0103362314403057
0.0101929679512977
0.0098438980057835
0.0092434473335742
0.0083568338304758
0.0071680820547044
0.0056861122138798
0.0039496440440416
0.0020276110153645
9.63965430855751e-06
-0.002010612282902
-0.0039474074728786
-0.0057280231267213
-0.0072973845526576
-0.0086214784532785
-0.009687328711152
-0.0105005912482738
-0.0110794277861714
-0.0114465998485684
-0.0116259874776005
-0.0116432690992951
-0.0115260984748601
-0.0113015100359916
-0.0109902517870068
-0.0106020215898752
-0.010138351470232
-0.0096011431887745
-0.0089972810819745
-0.0083372611552476
-0.0076322718523442
-0.006891512311995
-0.0061203222721815
-0.0053199622780084
-0.00448898691684
-0.0036247912794351
-0.0027245248202234
-0.0017871109303086
-0.0008163591846823
0.0001772239338606
0.0011783656664192
0.0021737336646765
0.0031558622140437
0.0041162129491567
0.0050368094816803
0.005893275141716
0.0066646942868828
0.0073395818471908
0.0079161301255226
0.0083984360098838
0.0087888585403561
0.0090805664658546
0.0092546045780181
0.0092799458652734
0.0091168386861681
0.008726118132472
0.0080825807526707
0.0071867890655994
0.0060668252408504
0.0047677271068096
0.0033405344001948
0.0018407033057883
0.0003317149821668
-0.0011141847353428
-0.0024215232115238
-0.0035224419552832
-0.004368423949927
-0.004937145859003
-0.0052319848909974
-0.0052757784724235
