bvp
-0.0189978145062923
-0.017721964046359
-0.0164201240986585
-0.0150994155555963
-0.013753430917859
-0.0123670063912868
-0.0109232626855373
-0.0094073163345456
-0.0078082038089632
-0.0061256824992597
-0.0043774973601102
-0.0025972749572247
-0.0008247946971096
0.000902846455574
0.0025557253975421
0.0041130636818706
0.0055653965100646
0.0069147297181189
0.008168508298695
0.009332682006061
0.0104121062904596
0.0114145129919052
0.0123509857803583
0.0132344039157032
0.0140753742307424
0.0148737113922834
0.0156148727983236
0.0162770859897136
0.0168400686234235
0.0172884557396173
0.0176100265234708
0.0177886188030242
0.0177932903170585
0.0175706259906291
0.017048355191946
0.0161496046930551
0.0148095991462469
0.012989554554224
0.010686594992876
0.007940256036818
0.0048330063000321
0.0014791432768106
-0.0019928780384361
-0.0054534231312572
-0.0087800761684775
-0.0118651324883103
-0.0146197220310568
-0.0169740915298461
-0.0188781134784221
-0.0203032940626144
-0.0212440993636846
-0.0217189602553844
-0.0217702016234397
-0.0214591715484857
-0.0208569224923849
-0.0200331918895244
-0.0190481692552566
-0.0179520212113857
-0.0167875289916992
-0.015588997863233
-0.0143793644383549
-0.0131685296073555
-0.0119530968368053
-0.0107181463390588
-0.0094411605969071
-0.0080974400043487
-0.0066664372570812
-0.0051389788277447
-0.003523054299876
-0.001842510420829
-0.000127560691908
0.0015944273909553
0.0032993811182677
0.0049618748016655
0.006554814055562
0.0080537302419543
0.0094399619847536
0.0107011944055557
0.0118312519043684
0.0128315761685371
0.0137137379497289
0.0144982598721981
0.0152090080082416
0.0158671271055936
0.0164874847978353
0.0170787014067173
0.0176459159702062
0.0181940160691738
0.0187253095209598
0.0192276500165462
0.0196619760245084
0.0199605673551559
0.0200348794460296
0.0197856035083532
0.0191120579838752
0.0179237611591815
0.0161566659808158
0.0137905497103929
0.0108613148331642
0.0074631050229072
0.0037358473055064
-0.0001571914181113
-0.0040485453791916
-0.0077776708640158
-0.0112013332545757
-0.0142066143453121
-0.0167198479175567
-0.0187064744532108
-0.0201640911400318
-0.0211134403944015
-0.02159184217453
-0.0216507334262132
-0.0213548205792903
-0.020777765661478
-0.0199914667755365
-0.0190540757030248
-0.0180049818009138
-0.0168672800064086
-0.0156525578349828
-0.0143636632710695
-0.0129975732415914
-0.0115540158003568
-0.0100443847477436
-0.008491575717926
-0.0069243675097823
-0.0053733875975012
-0.0038695659022778
-0.0024438088294118
-0.0011253912234678
6.264203693717718e-05
0.0011086468584835
0.0020143357105553
0.0027922873850911
0.0034612959716469
0.0040442161262035
0.0045692501589655
0.0050676129758358
0.0055638449266552
0.0060687884688377
0.0065833148546516
0.0071060433983802
0.0076375706121325
0.008181931450963
0.008747050538659
0.0093430755659937
0.0099789844825863
0.0106602637097239
0.0113861840218305
0.0121438466012477
0.0129007343202829
0.0136002823710441
0.0141634130850434
0.0144926207140088
0.0144757786765694
0.0139941051602363
0.0129363983869552
0.0112171918153762
0.0087976865470409
0.0057047349400818
0.0020388718694448
-0.0020316042937338
-0.00628662109375
-0.0104764914140105
-0.0143471043556928
-0.0176657885313034
-0.0202445089817047
-0.02195480838418
-0.0227332822978496
-0.0225836485624313
-0.0215776059776544
-0.0198468416929245
-0.0175628717988729
-0.0149128884077072
-0.0120782926678657
-0.0092153716832399
-0.0064400392584502
-0.0038233124651014
-0.0013979123905301
0.0008321390487253
0.0028837386053055
0.0047865561209619
0.0065732360817492
0.0082716234028339
0.009902817197144
0.0114803221076726
0.0130038410425186
0.0144542288035154
0.0157995671033859
0.017008401453495
0.0180585347115993
0.0189386960119009
0.0196475405246019
0.0201911479234695
0.0205804016441106
0.0208305828273296
0.0209609270095825
0.0209916122257709
0.0209403950721025
0.0208218116313219
0.0206482466310262
0.0204289089888334
0.0201650112867355
0.0198459438979625
0.0194496680051088
0.0189442876726388
0.0182897727936506
0.0174397192895412
0.0163415540009737
0.0149384634569287
0.0131777096539735
0.0110228843986988
0.0084640700370073
0.005524231120944
0.0022610947489738
-0.0012368746101856
-0.0048579983413219
-0.0084801539778709
-0.0119902715086936
-0.0152999255806207
-0.0183509513735771
-0.0211155544966459
-0.0235920865088701
-0.025797463953495
-0.027760561555624
-0.0295177027583122
-0.0311078503727912
-0.0325643047690391
-0.0339014492928981
-0.0351021252572536
-0.0361143536865711
-0.0368558391928672
-0.0372204147279262
-0.0370918996632099
-0.0363686867058277
-0.0349863469600677
-0.0329295471310615
-0.030235506594181
-0.0269888564944267
-0.023309227079153
-0.0193377658724784
-0.0152251711115241
-0.011119645088911
-0.0071540279313921
-0.0034351246431469
-3.919703885912895e-05
0.0029859687201678
0.0056162253022193
0.0078486548736691
0.0096992626786232
0.0111935269087553
0.0123542873188853
0.0131981875747442
0.0137412212789058
0.0140054952353239
0.0140217160806059
0.0138273173943161
0.0134632186964154
0.0129712130874395
0.0123906303197145
0.0117529360577464
0.0110778156667947
0.0103753888979554
0.0096541121602058
0.0089290719479322
0.0082227494567632
0.0075568323954939
0.0069452580064535
0.0063942959532141
0.0059038000181317
0.0054670507088303
0.0050717601552605
0.0047018048353493
0.004339107312262
0.0039646220393478
0.0035571723710745
0.0030921243596822
0.0025418600998818
0.0018791441107168
0.0010848268866539
0.0001577567309141
-0.0008804169483482
-0.001989199547097
-0.0031154740136116
-0.0041950838640332
-0.005150360520929
-0.0058889193460345
-0.0063105421140789
-0.0063232542015612
-0.0058599580079317
-0.0048873028717935
-0.0034084068611264
-0.0014641364105045
0.0008685165084898
0.0034826979972422
0.0062524694949388
0.0090478528290987
0.0117458458989858
0.0142318857833743
0.0164003614336252
0.0181599929928779
0.0194418132305145
0.0202069655060768
0.0204509254544973
0.0202027410268783
0.0195197388529777
0.0184791591018438
0.0171687249094247
0.0156752374023199
0.0140721527859568
0.0124106211587786
0.0107181947678327
0.0090065002441406
0.0072805383242666
0.0055419942364096
0.0037920828908681
0.0020399992354214
0.0003109674435108
-0.0013530368451029
-0.002899148967117
-0.0042727869004011
-0.0054276031441986
-0.0063325623050332
-0.0069732926785945
-0.0073487446643412
-0.0074660903774201
-0.0073365764692425
-0.0069733909331262
-0.0063907746225595
-0.0056077819317579
-0.0046594906598329
-0.0036043443251401
-0.0025163895916193
-0.0014707874506711
-0.0005358876660466
0.0002275994047522
0.0007673157379031
0.0010440913029015
0.0010388395749032
0.0007553617469966
0.0002158242277801
-0.0005457908846437
-0.0014854632318019
-0.0025466154329478
-0.0036582350730895
-0.0047400714829564
-0.0057142823934555
-0.0065123084932565
-0.0070781451649963
-0.007381351199001
-0.0074353213422
-0.007303372491151
-0.007086151279509
-0.0068965815007686
-0.0068326434120535
-0.0069565270096063
-0.0072840363718569
-0.00778493238613
-0.0083927363157272
-0.0090180337429046
-0.0095624616369605
-0.0099386032670736
-0.0100950039923191
-0.0100355185568332
-0.0098243840038776
-0.0095753464847803
-0.0094281388446688
-0.0095180831849575
-0.0099442806094884
-0.0107436310499906
-0.0118814390152692
-0.0132625866681337
-0.0147559083998203
-0.0162254124879837
-0.0175625849515199
-0.0187054686248302
-0.0196298453956842
-0.0203152056783437
-0.0207041036337614
-0.0206705555319786
-0.0200110860168933
-0.0184727553278207
-0.0158117040991783
-0.0118490345776081
-0.0064982217736542
0.0002235313877463
0.0081795416772365
0.0171045940369367
0.0266216602176427
0.0362784452736377
0.0455850884318351
0.0540481135249137
0.0612082369625568
0.0666791275143623
0.0701755210757255
0.0715317279100418
0.0707165822386741
0.0678400993347168
0.0631449818611145
0.0569836199283599
0.0497845225036144
0.0420107953250408
0.034116007387638
0.0265050325542688
0.0195040665566921
0.0133401546627283
0.0081320386379957
0.0038957465440034
0.0005628075450658
-0.0019966606050729
-0.0039449464529752
-0.005432991310954
-0.0065513160079717
-0.0073047261685132
-0.0076269805431365
-0.0074248146265745
-0.0066307354718446
-0.0052458588033914
-0.0033589694648981
-0.0011392701417207
0.0011894814670085
0.0033825449645519
0.0052052624523639
0.0064568594098091
0.0069875493645668
0.0067060105502605
0.0055749826133251
0.0036041177809238
0.0008493773639202
-0.0025831088423728
-0.0065363310277462
-0.0108117870986461
-0.0151913855224847
-0.0194659046828746
-0.0234593302011489
-0.0270414762198925
-0.0301325321197509
-0.0327133759856224
-0.0348445028066635
-0.0366721525788307
-0.0384011641144752
-0.0402458161115646
-0.0423815138638019
-0.0449019148945808
-0.0477887466549873
-0.0509125255048275
-0.0540635213255882
-0.0569944009184837
-0.0594601593911647
-0.0612507313489913
-0.0622159242630004
-0.0622796826064586
-0.0614422932267189
-0.0597732029855251
-0.0573955252766609
-0.0544639378786087
-0.0511408075690269
-0.0475783608853817
-0.0439090356230735
-0.040235910564661
-0.0366215072572231
-0.0330824889242649
-0.0295931231230497
-0.0260953307151794
-0.0225146748125553
-0.0187817271798849
-0.0148532595485448
-0.0107267163693904
-0.0064465822651982
-0.0021041939035058
0.0021690428256988
0.0062164971604943
0.0098789874464273
0.0130178593099117
0.0155298756435513
0.0173569582402706
0.018494863063097
0.0189953707158565
0.0189585741609334
0.0185181703418493
0.0178245864808559
0.0170303788036108
0.0162770878523588
0.015681754797697
0.0153271369636058
0.015256855636835
0.0154731580987572
0.015942171216011
0.0166076403111219
0.0174012519419193
0.0182460658252239
0.0190637819468975
0.0197882428765296
0.0203769691288471
0.0208166167140007
0.0211233701556921
0.0213394202291965
0.021526750177145
0.0217582024633884
0.022105049341917
0.0226239841431379
0.0233490876853466
0.0242892131209373
0.0254277419298887
0.0267252475023269
0.0281228609383106
0.0295423530042171
0.0308900475502014
0.0320699475705623
0.0329974740743637
0.0336082689464092
0.0338639393448829
0.0337543003261089
0.0332951545715332
0.0325200483202934
0.03146593272686
0.0301578156650066
0.0285997670143842
0.026776198297739
0.0246617682278156
0.0222349781543016
0.0194890443235635
0.0164372306317091
0.0131166232749819
0.0095926281064748
0.0059589175507426
0.0023301662877202
-0.0011663269251585
-0.0043984316289424
-0.0072413627058267
-0.0095922714099287
-0.0113806286826729
-0.0125738596543669
-0.0131808780133724
-0.0132527751848101
-0.0128761548548936
-0.0121572967618703
-0.0112055409699678
-0.010124422609806
-0.0090061817318201
-0.0079225283116102
-0.0069132279604673
-0.0059793796390295
-0.0050856936722993
-0.0041716294363141
-0.0031707165762782
-0.002032115124166
-0.0007340414449572
0.0007133362814784
0.002271793782711
0.0038827061653137
0.005477616097778
0.0069908238947391
0.0083687184378504
0.0095726056024432
0.0105784349143505
0.0113770104944705
0.0119744008406996
0.0123900137841701
0.0126533061265945
0.0128002874553203
0.0128642674535512
0.0128589160740375
0.0127637013792991
0.0125218676403164
0.0120499711483716
0.0112526882439851
0.010041369125247
0.0083562145009636
0.0061829853802919
0.0035542859695851
0.0005407946882769
-0.0027560559101402
-0.0062095811590552
-0.0096783097833395
-0.013021201826632
-0.0161093659698963
-0.0188314598053693
-0.0210982244461774
-0.0228484775871038
-0.0240534506738185
-0.0247173532843589
-0.0248738806694746
-0.024577485397458
-0.0238918531686067
-0.022884739562869
-0.0216303318738937
-0.0202081073075532
-0.0186933074146509
-0.0171438045799732
-0.0155906565487384
-0.0140380151569843
-0.0124711766839027
-0.0108676608651876
-0.0092063676565885
-0.0074724010191857
-0.0056601646356284
-0.0037771724164485
-0.0018466715700924
9.497767314314842e-05
0.0020062769763171
0.003846472594887
0.005576544906944
0.0071627763099968
0.0085846409201622
0.0098385363817214
0.0109325144439935
0.0118766650557518
0.0126748848706483
0.0133178234100341
0.0137755023315548
0.0139935445040464
0.0138972699642181
0.0134028941392898
0.0124346101656556
0.0109456153586506
0.0089369481429457
0.0064642424695193
0.0036277926992625
0.0005558709381148
-0.0026082803960889
-0.0057175112888216
-0.008631158620119
-0.0112208453938364
-0.0133742736652493
-0.0150022506713867
-0.0160463191568851
-0.0164830032736063
-0.0163268279284238
-0.0156328305602073
-0.0144924893975257
-0.013019255362451
-0.0113284457474946
-0.009523345157504
-0.0076942215673625
-0.00592055125162
-0.0042660711333155
-0.0027709100395441
-0.001447859685868
-0.0002834759652614
0.000756440218538
0.0017182836309075
0.0026517561636865
0.0036014467477798
0.0046001886948943
0.0056660780683159
0.0068033323623239
0.0080064171925187
0.009264875203371
0.0105648878961801
0.0118873603641986
0.0132061773911118
0.0144909713417291
0.0157148204743862
0.0168591178953647
0.0179110988974571
0.0188580304384231
0.0196782834827899
0.0203295163810253
0.0207419972866773
0.0208224970847368
0.020466573536396
0.0195768866688013
0.0180847980082035
0.0159683711826801
0.0132599137723445
0.0100427325814962
0.0064420867711305
0.002613355172798
-0.0012716351775452
-0.0050384290516376
-0.0085240630432963
-0.0115904165431857
-0.0141323246061801
-0.016080530360341
-0.0174036063253879
-0.0181083474308252
-0.0182368140667676
-0.0178605001419782
-0.0170702040195465
-0.0159623082727193
-0.0146287847310304
-0.0131547395139932
-0.0116173019632697
-0.0100808506831526
-0.0085900388658046
-0.0071653723716735
-0.005805023945868
-0.0044914232566952
-0.0031998772174119
-0.0019068883266299
-0.0005958890542387
0.0007392565021291
0.0020923595875501
0.0034447666257619
0.0047684060409665
0.0060331681743264
0.0072115790098905
0.0082761887460947
0.0091997385025024
0.0099623454734683
0.0105568468570709
0.0109899407252669
0.0112820705398917
0.0114646703004837
0.0115753700956702
0.0116527508944273
0.0117275118827819
0.0118097607046365
0.0118778403848409
0.0118729388341307
0.0117030050605535
0.0112577835097908
0.0104280887171626
0.0091220485046505
0.0072813294827938
0.0048976093530654
0.0020209485664963
-0.0012435177341103
-0.004747450351715
-0.0083166072145104
-0.0117707727476954
-0.0149428993463516
-0.0176946967840194
-0.0199274476617574
-0.0215865038335323
-0.0226587168872356
-0.0231659691780805
-0.0231580398976802
-0.022706875577569
-0.0219026319682598
-0.0208467114716768
-0.0196395590901374
-0.0183679461479187
-0.0170955397188663
-0.0158564038574695
-0.0146527774631977
-0.013459512963891
-0.0122333467006683
-0.0109247229993343
-0.0094901155680418
-0.0079003814607858
-0.0061437683179974
-0.0042243534699082
-0.0021570331882685
3.303936682641506e-05
0.0023029148578643
0.004587510600686
0.0068070599809288
0.0088809244334697
0.0107386987656354
0.0123250065371394
0.0136009883135557
0.0145466942340135
0.015163354575634
0.0154723329469561
0.0155118638649582
0.0153340259566903
0.0150009263306856
0.0145789450034499
0.0141314463689923
0.0137078426778316
0.0133280539885163
0.0129700414836406
0.0125692207366228
0.012029331177473
0.0112386420369148
0.01008877530694
0.0084970872849226
0.0064291791059076
0.0039119939319789
0.0010319356806576
-0.002076641190797
-0.0052465214394032
-0.0082966852933168
-0.0110528580844402
-0.0133643355220556
-0.015118446201086
-0.0162536352872848
-0.0167651046067476
-0.0167004317045211
-0.0161504615098238
-0.0152381360530853
-0.0141024254262447
-0.0128790345042943
-0.0116852791979908
-0.0106127429753541
-0.009724736213684
-0.0090540526434779
-0.0086002759635448
-0.008330350741744
-0.0081831561401486
-0.0080757988616824
-0.0079161953181028
-0.0076230699196457
-0.0071393866091966
-0.0064310496672987
-0.0054808482527732
-0.0042868629097938
-0.002863580128178
-0.0012408884940668
0.0005406658165156
0.002435871399939
0.0043994882144033
0.0063887471333146
0.0083629051223397
0.0102824233472347
0.0121113937348127
0.013820650987327
0.0153861241415143
0.0167817324399948
0.0179728511720895
0.0189172849059104
0.0195733588188886
0.0199081879109144
0.0199014823883771
0.0195439513772726
0.0188303850591182
0.0177503395825624
0.0162824131548404
0.0143977086991071
0.0120720500126481
0.0093004368245601
0.0061110504902899
0.0025789430364966
-0.0011707679368555
-0.0049785710871219
-0.0086733065545558
-0.0120877875015139
-0.0150684155523777
-0.0174857899546623
-0.0192472785711288
-0.0203059110790491
-0.0206620953977108
-0.0203601270914077
-0.0194820128381252
-0.0181398522108793
-0.0164660848677158
-0.0146002918481826
-0.012673731893301
-0.01079529710114
-0.0090456902980804
-0.007482536137104
-0.0061467518098652
-0.0050613172352313
-0.0042267483659088
-0.0036204950883984
-0.0032005268149077
-0.0029100354295223
-0.002683296566829
-0.0024534938856959
-0.0021600571926683
-0.0017535551451146
-0.0011987823527306
-0.0004772178363054
0.0004129430744796
0.0014625722542405
0.0026570414192974
0.0039740358479321
0.0053816391155123
0.0068426923826336
0.0083199944347143
0.0097803194075822
0.0111978836357593
0.0125546250492334
0.0138364173471927
0.0150289982557296
0.0161182545125484
0.0170929171144962
0.0179416686296463
0.0186436362564563
0.0191608071327209
0.0194357354193925
0.0193891860544681
0.0189191717654466
0.0179119072854518
0.0162664055824279
0.013921677134931
0.0108778858557343
0.0072091054171323
0.0030624852515757
-0.0013589004520326
-0.0058206743560731
-0.0100808339193463
-0.0139126367866992
-0.017126765102148
-0.0195887796580791
-0.0212258044630289
-0.0220212936401367
-0.022008353844285
-0.0212687887251377
-0.0199289042502641
-0.0181451868265867
-0.0160852186381816
-0.0139104127883911
-0.011763198301196
-0.0097581706941127
-0.0079758297652006
-0.006459457334131
-0.0052170446142554
-0.0042294729501008
-0.0034606880508363
-0.0028642518445849
-0.002386781387031
-0.0019706066232174
-0.0015596463344991
-0.001109987264499
-0.0005965151358395
-1.0664574801921844e-05
0.0006449129432439
0.0013610764872282
0.0021270113065838
0.002934799529612
0.0037818986456841
0.0046694036573171
0.0055974246934056
0.0065630320459604
0.0075619448907673
0.0085891615599393
0.009639112278819
0.0107086021453142
0.0117964567616581
0.0128950318321585
0.0139807807281613
0.0150110656395554
0.0159262400120496
0.0166517421603202
0.0170976798981428
0.0171610750257968
0.0167348682880401
0.01572135835886
0.0140490578487515
0.0116924550384283
0.0086877727881073
0.0051362197846174
0.0011964517179876
-0.002927002729848
-0.007004078477621
-0.0108108948916196
-0.014156742952764
-0.0168959349393844
-0.0189324934035539
-0.0202229190617799
-0.0207745060324668
-0.0206375438719987
-0.0198940671980381
-0.0186487790197134
-0.0170227792114019
-0.015146454796195
-0.0131495120003819
-0.0111488485708832
-0.0092377886176109
-0.0074794474057853
-0.0059068389236927
-0.0045318305492401
-0.0033559794537723
-0.0023744697682559
-0.0015743784606456
-0.0009329877793788
-0.0004198416136205
-2.098269760608673e-06
0.0003511840477585
0.0006687231361865
0.000979053787887
0.0013124160468578
0.0016998699866235
0.0021680826321244
0.0027355612255632
0.0034161708317697
0.0042216563597321
0.005154320038855
0.0061994879506528
0.0073289172723889
0.0085094217211008
0.0097081940621137
0.0108959255740046
0.0120498249307274
0.0131542114540934
0.0141980275511741
0.0151706794276833
0.0160549655556678
0.0168169513344764
0.0173962712287902
0.0177034828811883
0.0176303274929523
0.0170662682503461
0.0159119442105293
0.014093886129558
0.0115844942629337
0.0084195593371987
0.004704201593995
0.0006051090313121
-0.0036681836936622
-0.0078875189647078
-0.0118286572396755
-0.0152902118861675
-0.01811109110713
-0.0201837494969367
-0.0214588958770036
-0.0219413582235574
-0.0216810069978237
-0.0207664407789707
-0.0193233210593462
-0.0175063982605934
-0.0154795926064252
-0.0133943371474742
-0.0113740097731351
-0.0095037184655666
-0.0078270621597766
-0.006352262571454
-0.0050637042149901
-0.0039323065429925
-0.0029238350689411
-0.0020062192343175
-0.0011533084325492
-0.0003451779484748
0.0004330035299062
0.0011916519142687
0.001933111809194
0.002648479770869
0.003323218319565
0.0039453897625207
0.0045080259442329
0.0050090225413441
0.0054526883177459
0.0058517539873719
0.0062280534766614
0.0066099828109145
0.0070270178839564
0.0075056185014545
0.0080691389739513
0.008739492855966
0.0095373950898647
0.0104778753593564
0.0115591865032911
0.0127499625086784
0.013981083407998
0.0151438955217599
0.0160964280366897
0.0166799705475568
0.016743004322052
0.0161655414849519
0.0148785412311553
0.0128758260980248
0.0102173965424299
0.0070244041271507
0.0034673050977289
-0.000251448189374
-0.0039183986373245
-0.0073324921540915
-0.0103292101994156
-0.0127976471558213
-0.0146841723471879
-0.0159855801612138
-0.016736876219511
-0.0169985629618167
-0.0168475713580846
-0.0163709931075572
-0.0156584177166223
-0.0147912083193659
-0.0138319563120603
-0.0128186298534274
-0.0117646362632513
-0.0106616970151662
-0.0094832591712474
-0.0081939306110143
-0.0067667514085769
-0.0051966393366456
-0.0035020168870687
-0.001719944179058
9.812507778406145e-05
0.0018904143944382
0.0035927826538681
0.0051487479358911
0.0065157711505889
0.0076651619747281
0.0085797794163227
0.009254353120923
0.0096964184194803
0.0099274460226297
0.0099848452955484
0.0099167563021183
0.0097681293264031
0.0095733646303415
0.0093613276258111
0.0091600511223077
0.0089951148256659
0.0088877212256193
0.0088557358831167
0.0089149866253137
0.0090760942548513
0.0093343760818243
0.0096563454717397
0.0099713336676359
0.0101767713204026
0.0101566463708877
0.009802758693695
0.009029540233314
0.00778265343979
0.0060469047166407
0.0038528367877006
0.0012762491824105
-0.0015695899492129
-0.0045465221628546
-0.0075075388886034
-0.0103114321827888
-0.0128334872424602
-0.0149754313752055
-0.0166739355772733
-0.0179038923233747
-0.0186758432537317
-0.0190275739878416
-0.019010990858078
-0.0186821669340133
-0.0181004777550697
-0.0173292346298694
-0.0164306163787841
-0.0154569391161203
-0.0144400708377361
-0.0133823379874229
-0.0122559741139411
-0.0110144261270761
-0.0096116662025451
-0.0080188792198896
-0.0062297489494085
-0.0042582270689308
-0.0021367715671658
8.575525134801865e-05
0.0023494716733694
0.0045877266675233
0.0067270249128341
0.0086879702284932
0.0103922942653298
0.0117747168987989
0.0127944266423583
0.0134406639263033
0.0137317879125475
0.0137117756530642
0.0134466309100389
0.0130199501290917
0.0125249084085226
0.0120513904839754
0.011672057211399
0.0114326700568199
0.0113478368148207
0.0113959284499287
0.0115097854286432
0.0115748308598995
0.0114454822614789
0.0109756402671337
0.0100520364940166
0.0086203617975115
0.0066975587978959
0.0043677305802702
0.0017655668780207
-0.0009440762223675
-0.0035853539593517
-0.0059905853122472
-0.0080199846997857
-0.00957668479532
-0.0106127224862575
-0.0111314691603183
-0.0111911967396736
-0.0109005197882652
-0.0103986822068691
-0.0098298098891973
-0.0093216588720679
-0.0089710801839828
-0.0088344067335128
-0.0089214276522398
-0.0091948797926306
-0.009577177464962
-0.0099634174257516
-0.0102387089282274
-0.0102951731532812
-0.0100432410836219
-0.0094172433018684
-0.0083816144615411
-0.0069396998733282
-0.0051359646022319
-0.0030459929257631
-0.000759826041758
0.0016342843882739
0.0040593328885734
0.00645013153553
0.0087506081908941
0.0109122963622212
0.0128932455554604
0.0146559402346611
0.0161654166877269
0.0173900704830884
0.0183063559234142
0.0189063120633363
0.0191996358335018
0.0192056111991405
0.0189451538026332
0.0184380207210779
0.0176982060074806
0.016724906861782
0.0154953822493553
0.0139672644436359
0.0120900403708219
0.0098210778087377
0.0071430085226893
0.0040788995102047
0.0007005130173638
-0.002871117554605
-0.0064703524112701
-0.009900527074933
-0.0129607133567333
-0.0154775995761156
-0.0173279084265232
-0.0184464566409587
-0.018825564533472
-0.0185105241835117
-0.0175933297723531
-0.0162050947546958
-0.0145040731877088
-0.0126591231673955
-0.0108333537355065
-0.0091697489842772
-0.0077782273292541
-0.0067267599515616
-0.0060374327003955
-0.0056861392222344
-0.0056099584326148
-0.0057237730361521
-0.0059368722140789
-0.006162533070892
-0.0063218437135219
-0.0063432902097702
-0.0061624175868928
-0.0057269837707281
-0.0050056390464305
-0.003994352184236
-0.0027167866937816
-0.0012195319868624
0.000434098765254
0.0021715844050049
0.0039223562926054
0.0056299609132111
0.0072564100846648
0.00877639465034
0.0101711899042129
0.0114280395209789
0.012541189789772
0.0135116949677467
0.0143448915332555
0.0150442253798246
0.0156017960980534
0.0159883759915828
0.0161482226103544
0.0160018485039472
0.0154577707871794
0.0144330328330397
0.0128771420568227
0.010791883803904
0.0082379691302776
0.005324637517333
0.0021933559328317
-0.0009934317786246
-0.0040611773729324
-0.0068370699882507
-0.0091689154505729
-0.0109416991472244
-0.0120867192745208
-0.012584657408297
-0.0124662723392248
-0.0118101257830858
-0.0107340002432465
-0.0093811275437474
-0.0079030627384781
-0.0064394869841635
-0.0051025585271418
-0.0039724819362163
-0.0030967905186116
-0.0024878496769815
-0.0021236087195575
-0.001953296829015
-0.0019049081020057
-0.0018937177956104
-0.0018330491147935
-0.001646585878916
-0.001278662472032
-0.0006996996817179
9.304960258305071e-05
0.0010783160105347
0.0022173509933054
0.0034638307988643
0.0047705289907753
0.0060873916372656
0.0073597719892859
0.0085365399718284
0.0095823556184768
0.0104838348925113
0.0112477531656622
0.0118941906839609
0.0124482810497283
0.012933786958456
0.0133657893165946
0.0137380864471197
0.0140101676806807
0.0141024459153413
0.0139027666300535
0.013283709064126
0.0121267512440681
0.0103454198688268
0.0079044681042432
0.0048364596441388
0.0012500723823904
-0.0026788609102368
-0.0067315329797565
-0.0106742177158594
-0.014284523203969
-0.0173750538378953
-0.0198095943778753
-0.0215103439986705
-0.0224611237645149
-0.0227065756916999
-0.0223422870039939
-0.0214957948774099
-0.0203068330883979
-0.0189141035079956
-0.0174455977976322
-0.016007263213396
-0.0146710239350795
-0.0134669560939073
-0.0123847089707851
-0.0113839469850063
-0.0104074785485863
-0.0093931872397661
-0.0082859247922897
-0.007048740517348
-0.0056688776239752
-0.004156821873039
-0.0025407287757843
-0.000858042621985
0.0008506529266014
0.0025420528836548
0.0041702291928231
0.0056900810450315
0.0070635327138006
0.0082679269835352
0.009301271289587
0.0101793790236115
0.0109284976497292
0.0115797007456421
0.0121649615466594
0.0127080678939819
0.0132080540060997
0.0136239258572459
0.0138712003827095
0.0138332955539226
0.013381078839302
0.0123925898224115
0.0107747670263051
0.0084877032786607
0.0055614728480577
0.0020987447351217
-0.0017356877215206
-0.0057362397201359
-0.0096850609406828
-0.0133792906999588
-0.0166474264115095
-0.0193555802106857
-0.021412743255496
-0.0227762330323457
-0.0234515070915222
-0.0234848633408546
-0.0229545794427394
-0.0219666473567485
-0.0206501148641109
-0.0191414318978786
-0.017560739070177
-0.0159928742796182
-0.0144797302782535
-0.0130234686657786
-0.0115961264818906
-0.0101498309522867
-0.0086262673139572
-0.0069683464244008
-0.0051335915923118
-0.0031025731004774
-0.0008781822398304
0.0015205685049295
0.0040611587464809
0.0066920574754476
0.0093392124399542
0.0119143594056367
0.0143300294876098
0.0165124870836734
0.0184080898761749
0.0199825316667556
0.0212170705199241
0.0221072062849998
0.0226654782891273
0.022923519834876
0.0229275934398174
0.022726621478796
0.0223564878106117
0.0218269526958465
0.0211120955646038
0.0201458670198917
0.0188340079039335
0.0170830395072698
0.0148314200341701
0.0120722195133566
0.008863209746778
0.0053238151594996
0.0016234271461144
-0.0020361803472042
-0.0054448940791189
-0.0084100952371954
-0.0107769202440977
-0.012440662831068
-0.0133512672036886
-0.0135125406086444
-0.0129829971119761
-0.0118779158219695
-0.0103635173290967
-0.0086389780044555
-0.0069091585464775
-0.0053545832633972
-0.0041065644472837
-0.0032330567482858
-0.0027367859147489
-0.0025639471132308
-0.002618588740006
-0.0027769638691097
-0.0029027881100773
-0.0028662141412496
-0.0025594173930585
-0.0019037434831261
-0.0008569904603064
0.000577566679567
0.0023520884569734
0.0043858559802174
0.0065792892128229
0.0088278427720069
0.0110340435057878
0.0131158269941806
0.0150127597153186
0.0166890677064657
0.0181305054575204
0.0193377938121557
0.0203221924602985
0.0211032070219516
0.021705811843276
0.022158121690154
0.0224853884428739
0.0226958133280277
0.0227685011923313
0.0226521138101816
0.0222668200731277
0.0215054452419281
0.0202418807893991
0.0183501541614532
0.0157279316335916
0.0123192397877573
0.0081327036023139
0.003252362832427
-0.0021613826975226
-0.007883726619184
-0.0136461621150374
-0.0191590562462806
-0.0241395868360996
-0.0283461809158325
-0.0316056087613105
-0.0338229984045028
-0.0349798128008842
-0.0351251699030399
-0.0343614779412746
-0.0328294411301612
-0.030696703121066
-0.0281463377177715
-0.0253622941672801
-0.0225127842277288
-0.019734950736165
-0.0171268060803413
-0.0147464396432042
-0.012614456936717
-0.0107220187783241
-0.0090444851666688
-0.0075517250224947
-0.0062109045684337
-0.0049862680025398
-0.0038405135273933
-0.0027389631140977
-0.0016540695214644
-0.0005669260863214
0.0005336904432624
0.001653112238273
0.0027927188202738
0.0039502079598605
0.0051190857775509
0.0062901987694203
0.0074544977396726
0.0086036082357168
0.0097272489219903
0.0108113335445523
0.0118400547653436
0.0127993104979395
0.0136775150895118
0.0144628481939435
0.0151375196874141
0.015670271590352
0.0160092562437057
0.0160779654979705
0.0157776400446891
0.0149993412196636
0.013644996099174
0.0116521418094635
0.0090158386155962
0.0057999617420136
0.0021316325291991
-0.0018179831095039
-0.0058561796322464
-0.0097873397171497
-0.0134267788380384
-0.0166126042604446
-0.0192182343453168
-0.0211633965373039
-0.0224177427589893
-0.0229966081678867
-0.0229542702436447
-0.022375775501132
-0.021363977342844
-0.0200216826051473
-0.0184350442141294
-0.0166687574237585
-0.0147748626768589
-0.0128023047000169
-0.010798430070281
-0.0088058598339557
-0.0068579744547605
-0.0049738367088139
-0.0031561492942273
-0.0013946422841399
0.0003284907434135
0.0020328944083303
0.0037322998978197
0.0054295090958476
0.0071188043802976
0.0087901288643479
0.0104305977001786
0.0120230112224817
0.0135411508381366
0.0149487722665071
0.0162066910415887
0.0172819606959819
0.0181546583771705
0.0188209284096956
0.0192922800779342
0.019593209028244
0.0197562351822853
0.0198121629655361
0.0197767000645399
0.0196369122713804
0.0193428061902523
0.0188111923635005
0.0179433710873127
0.016646459698677
0.0148503798991441
0.0125235170125961
0.009687066078186
0.0064211469143629
0.002858649007976
-0.0008300933986902
-0.004454924724996
-0.0078243911266326
-0.0107668153941631
-0.0131502058357
-0.0148959336802363
-0.0159841738641262
-0.0164497662335634
-0.0163693074136972
-0.0158448610454797
-0.0149915590882301
-0.0139309195801615
-0.0127826426178216
-0.0116511583328247
-0.010612491518259
-0.0097061898559331
-0.008934118784964
-0.0082657821476459
-0.0076478160917758
-0.0070165768265724
-0.0063109956681728
-0.0054814908653497
-0.0044961208477616
-0.0033450038172304
-0.0020387978293001
-0.0006019177963025
0.0009318441152572
0.0025182990357279
0.0041026677936315
0.0056254956871271
0.0070313941687345
0.0082765165716409
0.0093338983133435
0.0101951844990253
0.0108694517984986
0.011379973962903
0.0117553882300853
0.0120157822966575
0.0121606588363647
0.0121632618829607
0.0119722560048103
0.0115189105272293
0.0107249189168214
0.0095115639269351
0.0078157139942049
0.0056101181544363
0.0029196464456617
-0.000171763356775
-0.0035270082298666
-0.006974792573601
-0.0103347953408956
-0.013439449481666
-0.0161459911614656
-0.0183411501348018
-0.0199453234672546
-0.020916998386383
-0.0212542507797479
-0.020993486046791
-0.020208153873682
-0.0190061852335929
-0.0175199136137962
-0.0158874038606882
-0.0142319360747933
-0.012646097689867
-0.0111839808523654
-0.0098622506484389
-0.0086666168645024
-0.0075591783970594
-0.0064861122518777
-0.0053880647756159
-0.004212618805468
-0.0029238450806587
-0.0015042305458337
4.970678128302097e-05
0.0017288702074438
0.0035076509229838
0.0053439517505466
0.007185208145529
0.0089755859225988
0.0106628881767392
0.0122043248265981
0.013570811599493
0.0147496294230222
0.0157440304756164
0.0165699459612369
0.0172517076134681
0.0178179685026407
0.0182976070791482
0.0187160391360521
0.0190929342061281
0.0194360949099063
0.0197264142334461
0.0199035312980413
0.0198654029518365
0.0194836184382438
0.0186286270618438
0.0171980187296867
0.0151409404352307
0.0124712036922574
0.0092656407505273
0.0056525520049035
0.0017968597821891
-0.0021177376620471
-0.0059092678129673
-0.0094137629494071
-0.012494133785367
-0.01504747569561
-0.0170128252357244
-0.0183739103376865
-0.019154280424118
-0.0194075852632522
-0.0192088037729263
-0.0186488609760999
-0.017826709896326
-0.0168354287743568
-0.0157497711479663
-0.014622762799263
-0.0134875252842903
-0.0123584261164069
-0.0112342974171042
-0.0101040303707122
-0.0089496858417987
-0.0077503472566604
-0.0064920862205326
-0.0051766377873718
-0.0038181873969733
-0.002432017121464
-0.0010277591645717
0.0003888169303536
0.0018125729402527
0.0032382444478571
0.0046590464189648
0.006064360961318
0.007439887151122
0.0087695317342877
0.0100370533764362
0.0112304091453552
0.0123478956520557
0.0133965695276856
0.0143809486180543
0.0152928251773118
0.0161110162734985
0.0168097987771034
0.0173684190958738
0.0177769176661968
0.0180377233773469
0.0181630849838256
0.0181708056479692
0.0180807877331972
0.0179130546748638
0.0176853202283382
0.0174058079719543
0.0170636419206857
0.0166237168014049
0.0160246938467025
0.0151784848421812
0.0139783537015318
0.0123185953125357
0.0101206675171852
0.0073581300675868
0.0040702689439058
0.0003598844632506
-0.0036197789013385
-0.0076837535016238
-0.011636939831078
-0.0152950678020715
-0.0185027085244655
-0.0211474560201168
-0.0231648683547973
-0.0245325248688459
-0.0252648703753948
-0.0254150051623582
-0.0250738747417926
-0.0243590492755174
-0.0233965702354908
-0.0223033428192138
-0.021173670887947
-0.0200710631906986
-0.0190271604806184
-0.0180469639599323
-0.0171155259013175
-0.0162034146487712
-0.0152731295675039
-0.0142872352153062
-0.0132135227322578
-0.0120244286954402
-0.0106984134763479
-0.0092284232378005
-0.007628106046468
-0.0059304758906364
-0.0041829058900475
-0.0024386125151067
-0.0007465882226824
0.0008547380566596
0.0023393221199512
0.0036926928441971
0.0049108038656413
0.005999899469316
0.006975385826081
0.0078580193221569
0.0086702182888984
0.0094358958303928
0.0101793464273214
0.0109164901077747
0.0116450302302837
0.0123454425483942
0.0129911378026008
0.0135582778602838
0.0140314251184463
0.0144046815112233
0.0146790966391563
0.014859577640891
0.0149529948830604
0.0149655109271407
0.0148960184305906
0.0147252837195992
0.0144077958539128
0.0138759389519691
0.0130531564354896
0.0118645876646041
0.0102474493905901
0.0081685818731784
0.0056409398093819
0.0027278745546936
-0.0004621283151209
-0.0037847326602786
-0.0070755775086581
-0.0101723680272698
-0.0129344221204519
-0.0152554679661989
-0.0170700121670961
-0.0183516275137662
-0.0191059671342372
-0.0193634741008281
-0.0191758070141077
-0.018617333844304
-0.0177834071218967
-0.0167787317186594
-0.0157016795128583
-0.0146326655521988
-0.0136284548789262
-0.0127190183848142
-0.0119046801701188
-0.0111578293144702
-0.0104336161166429
-0.0096838306635618
-0.0088652689009904
-0.0079441247507929
-0.0068994034081697
-0.0057226456701755
-0.004417311400175
-0.0030035246163606
-0.0015218204353004
-2.6791589334607124e-05
0.0014272853732109
0.0028000120073556
0.0040699960663914
0.0052309483289718
0.0062863091006875
0.0072460416704416
0.0081228213384747
0.0089288968592882
0.0096750045195221
0.0103698149323463
0.0110213551670312
0.011639779433608
0.0122350715100765
0.0128087224438786
0.0133489919826388
0.0138349588960409
0.0142440218478441
0.0145584102720022
0.0147688556462526
0.0148740233853459
0.0148763926699757
0.0147736957296729
0.0145474039018154
0.0141563508659601
0.013540624640882
0.0126339951530098
0.0113815544173121
0.0097578791901469
0.0077770315110683
0.0054892748594284
0.002973094349727
0.0003297091461718
-0.0023253317922353
-0.0048736063763499
-0.0072036599740386
-0.0092208944261074
-0.0108556486666202
-0.0120660942047834
-0.0128389047458767
-0.0131895756348967
-0.0131623204797506
-0.0128276012837886
-0.0122717078775167
-0.0115803973749279
-0.0108289578929543
-0.0100824646651744
-0.0093947984278202
-0.0088015012443065
-0.0083143506199121
-0.0079203201457858
-0.0075837625190615
-0.007254937198013
-0.006882281973958
-0.0064207604154944
-0.0058360500261187
-0.0051078302785754
-0.0042310473509132
-0.0032153013162314
-0.0020826617255806
-0.0008614626713097
0.0004184697754681
0.0017221884336322
0.0030043739825487
0.0042131524533033
0.0053023295477032
0.006240677088499
0.007011666893959
0.0076107112690806
0.0080459583550691
0.0083382204174995
0.0085164234042167
0.0086115095764398
0.0086511261761188
0.0086522493511438
0.0086104506626725
0.0084929428994655
0.0082398382946848
0.0077715758234262
0.007004352286458
0.0058714020997285
0.0043397471308708
0.0024190295953303
0.0001661039423197
-0.002317612292245
-0.0049007562920451
-0.007443556562066
-0.0098167518153786
-0.0119129363447427
-0.013651268556714
-0.0149788297712802
-0.0158693119883537
-0.0163181256502866
-0.0163397938013076
-0.015973262488842
-0.0152852637693285
-0.0143616804853081
-0.0132933985441923
-0.0121654318645596
-0.0110488394275307
-0.0099930660799145
