bvp
0.0739249438047409
0.0736919268965721
0.0733781903982162
0.0728765428066253
0.072086289525032
0.0709218382835388
0.0693166479468345
0.0672185570001602
0.0645750388503074
0.0613143295049667
0.0573390834033489
0.0525455437600612
0.0468562915921211
0.0402385182678699
0.0326996408402919
0.024280285462737
0.0150575786828994
0.0051500331610441
-0.0052820872515439
-0.016035484150052
-0.0268608666956424
-0.0374675691127777
-0.047542817890644
-0.0567817836999893
-0.0649187266826629
-0.071751981973648
-0.0771597474813461
-0.0811045467853546
-0.0836244970560073
-0.0848187282681465
-0.0848353877663612
-0.0838560312986373
-0.0820721983909607
-0.0796630680561065
-0.0767820924520492
-0.0735526829957962
-0.0700692981481552
-0.0664003193378448
-0.0625912770628929
-0.058668166399002
-0.0546407848596572
-0.050506804138422
-0.0462555587291717
-0.0418700203299522
-0.0373300164937973
-0.0326248183846473
-0.0277786087244749
-0.0228755474090576
-0.0180619396269321
-0.0135183092206716
-0.0094191543757915
-0.0059029096737504
-0.0030587576329708
-0.0009254133328795
0.0005034361965954
0.001269529107958
0.0014384123496711
0.0010894075967371
0.000309859868139
-0.0008056750521063
-0.0021531130187213
-0.0036190408281981
-0.0050868024118244
-0.0064427792094647
-0.0075773186981678
-0.0083838365972042
-0.0087620094418525
-0.0086272377520799
-0.0079227667301893
-0.0066284504719078
-0.0047655035741627
-0.0023976708762347
0.0003747611772269
0.0034274726640433
0.006624620873481
0.0098295621573925
0.0129160471260547
0.0157760325819253
0.0183193907141685
0.0204720310866832
0.0221810955554246
0.0234233457595109
0.0242086481302976
0.024578858166933
0.0246041528880596
0.0243754386901855
0.023993132635951
0.0235540848225355
0.0231387838721275
0.0228018127381801
0.0225679222494363
0.0224357694387435
0.0223884470760822
0.022401787340641
0.0224423632025718
0.0224608667194843
0.02238823287189
0.0221343152225017
0.0215921867638826
0.0206521246582269
0.0192201100289821
0.0172323118895292
0.0146625973284244
0.0115242805331945
0.0078689083456993
0.0037837103009223
-0.0006120968610048
-0.0051703453063964
-0.0097178425639867
-0.0140683464705944
-0.018043790012598
-0.0214947462081909
-0.0243106819689273
-0.0264217425137758
-0.0278009884059429
-0.0284686107188463
-0.0284890756011009
-0.0279584117233753
-0.0269904062151908
-0.0257066041231155
-0.0242271497845649
-0.0226609520614147
-0.0210968311876058
-0.0195967480540275
-0.0181918330490589
-0.016886256635189
-0.0156711675226688
-0.0145373260602355
-0.0134769137948751
-0.0124795520678162
-0.0115301636978983
-0.0106108523905277
-0.0097052734345197
-0.008802805095911
-0.0079005239531397
-0.0070035047829151
-0.006125645712018
-0.0052916686981916
-0.0045388415455818
-0.0039153583347797
-0.0034747570753097
-0.0032730791717767
-0.003369690850377
-0.0038207210600376
-0.0046619679778814
-0.0058909896761178
-0.0074579697102308
-0.0092684654518961
-0.0111956102773547
-0.0130987800657749
-0.0148427030071616
-0.016308894380927
-0.0174011867493391
-0.0180517826229333
-0.0182261355221271
-0.017922842875123
-0.0171696338802576
-0.0160216130316257
-0.0145632298663258
-0.0129028959199786
-0.0111556621268391
-0.009424933232367
-0.0077915294095873
-0.0063082738779485
-0.0049977796152234
-0.0038544428534805
-0.0028502051718533
-0.0019417582079768
-0.001078353729099
-0.0002107713371515
0.0006999792531132
0.0016785352490842
0.0027372743934392
0.0038788574747741
0.0050934976898133
0.0063547287136316
0.0076209530234336
0.0088427010923624
0.00996860768646
0.0109460819512605
0.0117198340594768
0.0122313052415847
0.012419787235558
0.0122271468862891
0.011607370339334
0.0105384076014161
0.0090313013643026
0.0071351598016917
0.0049380618147552
0.0025589980650693
0.0001304307661484
-0.0022193014156073
-0.0043769469484686
-0.0062494068406522
-0.0077665206044912
-0.0088823158293962
-0.0095734456554055
-0.0098376087844371
-0.009695766493678
-0.009197998791933
-0.0084288269281387
-0.0075036818161606
-0.0065510589629411
-0.0056848437525331
-0.0049779270775616
-0.0044494112953543
-0.0040696319192647
-0.0037738261744379
-0.0034748977050185
-0.0030759060755372
-0.0024841455742716
-0.0016227113083004
-0.0004362044855952
0.0011055618524551
0.0030018063262104
0.0052174553275108
0.0076867872849106
0.0103199314326047
0.0130076492205262
0.0156278442591428
0.0180567353963851
0.0201760008931159
0.0218719691038131
0.0230386368930339
0.0235888883471488
0.0234683416783809
0.0226692799478769
0.0212392657995224
0.0192800313234329
0.0169381145387887
0.0143876150250434
0.0118073122575879
0.0093594770878553
0.0071755163371562
0.0053490702994167
0.0039366288110613
0.0029645385220646
0.0024351528845727
0.002325746230781
0.0025870245881378
0.003148740157485
0.0039278385229408
0.0048353183083236
0.0057851718738675
0.0067055160179734
0.0075454679317772
0.0082755498588085
0.0088853165507316
0.0093799317255616
0.0097777191549539
0.0101081952452659
0.0104062352329492
0.010705791413784
0.0110355112701654
0.0114111825823783
0.0118285585194826
0.0122650638222694
0.0126891275867819
0.013069687411189
0.013382276520133
0.013609979301691
0.0137377623468637
0.0137446317821741
0.0135986004024744
0.0132542643696069
0.0126542290672659
0.0117381513118743
0.0104597713798284
0.008804028853774
0.0067920619621872
0.0044738152064383
0.0019213496707379
-0.0007719811983406
-0.0034952161367982
-0.006130177527666
-0.0085624102503061
-0.0106896860525012
-0.0124302431941032
-0.0137309161946177
-0.014572262763977
-0.0149677917361259
-0.0149589739739894
-0.0146108493208885
-0.01400579046458
-0.0132296942174434
-0.0123579455539584
-0.0114516858011484
-0.0105597786605358
-0.0097186081111431
-0.0089492751285433
-0.0082544516772031
-0.0076194670982658
-0.0070183323696255
-0.0064191557466983
-0.0057889772579073
-0.0051013426855206
-0.0043420521542429
-0.0035085319541394
-0.0026070647872984
-0.0016507296822965
-0.0006549493409693
0.0003659250214695
0.0013932110741734
0.0023931143805384
0.0033097043633461
0.0040647033601999
0.0045642927289009
0.0047130696475505
0.0044325031340122
0.0036777751520276
0.0024474691599607
0.0007852362468838
-0.0012251660227775
-0.0034699258394539
-0.0058173649013042
-0.0081299524754285
-0.0102751422673463
-0.0121360458433628
-0.01362428907305
-0.0146903926506638
-0.0153240012004971
-0.0155462455004453
-0.0154020609334111
-0.0149530256167054
-0.0142675656825304
-0.0134122837334871
-0.0124490717425942
-0.0114349108189344
-0.0104185603559017
-0.0094337426126003
-0.0084947729483246
-0.0075971540063619
-0.0067204218357801
-0.0058356169611215
-0.0049191364087164
-0.0039635868743062
-0.0029773088172078
-0.0019756900146603
-0.0009720784146338
2.565397880971432e-05
0.0010129823349416
0.0019867406226694
0.0029449975118041
0.0038843182846903
0.0047937398776412
0.0056507168337702
0.0064196400344371
0.0070517770946025
0.0074908435344696
0.007679964415729
0.0075622680597007
0.007084060460329
0.0062099401839077
0.0049410983920097
0.0033232553396373
0.0014413106255233
-0.000592361902818
-0.0026493703480809
-0.0045969444327056
-0.0063112927600741
-0.0076887859031558
-0.0086531601846218
-0.0091611295938491
-0.0092034358531236
-0.0087997615337371
-0.0079965675249695
-0.0068707182072103
-0.0055267121642827
-0.0040810951031744
-0.0026433151215314
-0.001302795484662
-0.0001222544815391
0.0008660067105665
0.0016604720149189
0.0022865775972604
0.0027890652418136
0.0032202980946749
0.0036275766324251
0.0040463064797222
0.0045013758353888
0.0050111883319914
0.0055873803794384
0.0062300125136971
0.0069263582117855
0.007657341659069
0.0084040081128478
0.0091483248397707
0.0098705627024173
0.0105452295392751
0.0111366249620914
0.0115963984280824
0.0118650188669562
0.011877991259098
0.011575948446989
0.0109155373647809
0.0098801804706454
0.0084902457892894
0.0068046962842345
0.0049085179343819
0.0028951379936188
0.0008561898721382
-0.0011193359969183
-0.0029424573294818
-0.0045261429622769
-0.0057951090857386
-0.0066970624029636
-0.007207547314465
-0.0073299757204949
-0.0070956205017864
-0.0065616592764854
-0.0058046206831932
-0.0049096122384071
-0.00395695772022
-0.0030130776576697
-0.0021301158703863
-0.0013477652100846
-0.0006918059661984
-0.0001722703455016
0.0002176433335989
0.0005037013906985
0.0007301144651137
0.0009502579923719
0.0012114298297092
0.0015445344615727
0.0019628973677754
0.0024647524114698
0.0030358559451997
0.0036545870825648
0.0042998455464839
0.0049533154815435
0.0055914684198796
0.0061775855720043
0.0066612353548407
0.0069807511754333
0.0070677930489182
0.0068568526767194
0.0062969452701509
0.0053624440915882
0.0040617170743644
0.0024403999559581
0.0005789902061223
-0.0014130915515124
-0.0034078396856784
-0.0052731921896338
-0.0068870093673467
-0.0081493481993675
-0.0089952796697616
-0.0094028739258646
-0.0093907779082655
-0.0090097887441515
-0.0083326064050197
-0.007442538626492
-0.006423526443541
-0.0053526069968938
-0.0042947847396135
-0.0033005094155669
-0.0024042576551437
-0.0016227483283728
-0.0009547462686896
-0.0003831905778497
0.0001221484271809
0.000596962752752
0.00106800312642
0.0015437736874446
0.0020174267701804
0.0024764202535152
0.0029118156526237
0.0033217151649296
0.0037088249810039
0.0040778848342597
0.0044348980300128
0.0047851810231804
0.0051295915618538
0.0054599726572632
0.0057536265812814
0.00596993137151
0.0060547417961061
0.0059485957026481
0.0055921506136655
0.004934596363455
0.0039478931576013
0.0026388419792056
0.0010525663383305
-0.0007320305448956
-0.0026107165031135
-0.004466142039746
-0.0061833634972572
-0.0076628876850008
-0.0088288551196455
-0.0096342973411083
-0.010062787681818
-0.0101247495040297
-0.0098505364730954
-0.009286668151617
-0.0084985010325908
-0.0075714914128184
-0.0066011771559715
-0.0056752953678369
-0.0048603229224681
-0.0041960584931075
-0.0036928721237927
-0.0033311790321022
-0.0030675781890749
-0.0028459834866225
-0.0026075122877955
-0.0022981972433626
-0.001876778434962
-0.0013202088885009
-0.0006224759854376
0.0002101259306073
0.0011599680874496
0.0021967010106891
0.0032800789922475
0.0043664318509399
0.0054125906899571
0.0063755433075129
0.0072109987959265
0.0078715784475207
0.0083046220242977
0.0084531176835298
0.008262475952506
0.007691727951169
0.006726074963808
0.005388842895627
0.003747645067051
0.0019056500168517
-1.9462546333670616e-05
-0.0019149065483361
-0.0036844743881374
-0.0052526299841701
-0.0065624807029962
-0.0075733857229352
-0.0082607548683881
-0.0086169810965657
-0.0086524151265621
-0.0083947172388434
-0.0078864451497793
-0.0071803540922701
-0.0063326125964522
-0.0053947218693792
-0.0044041271321475
-0.0033812359906733
-0.0023389258421957
-0.0012933299876749
-0.0002638325095176
0.0007341061718761
0.0016934634186327
0.00261399615556
0.0034994059242308
0.0043585840612649
0.0052074175328016
0.0060643469914793
0.0069418908096849
0.0078411567956209
0.0087511520832777
0.0096535366028547
0.010531285777688
0.0113705582916736
0.0121506750583648
0.0128337368369102
0.0133625622838735
0.0136643182486295
0.0136576332151889
0.0132630988955497
0.0124168684706091
0.0110852923244237
0.0092762224376201
0.0070442808791995
0.0044889990240335
0.0017448995495215
-0.0010351329110562
-0.00369723001495
-0.0060994839295744
-0.0081240609288215
-0.0096915382891893
-0.0107696400955319
-0.0113702695816755
-0.0115396892651915
-0.0113482009619474
-0.0108796060085296
-0.0102189760655164
-0.0094420760869979
-0.0086102588102221
-0.0077700023539364
-0.0069544855505228
-0.0061842282302677
-0.0054660649038851
-0.0047912839800119
-0.0041341087780892
-0.003457105718553
-0.0027258242480456
-0.0019213296473026
-0.0010414160788059
-9.486498311161996e-05
0.0009035319089889
0.0019363383762538
0.002987110055983
0.0040428219363093
0.005093228071928
0.006128781940788
0.007140080910176
0.0081194536760449
0.0090622585266828
0.0099665410816669
0.0108323572203516
0.0116581730544567
0.0124310832470655
0.0131166763603687
0.0136563759297132
0.0139724090695381
0.0139772817492485
0.0135859819129109
0.0127297416329383
0.0113697908818721
0.0095087168738245
0.007196438498795
0.0045273634605109
0.0016286419704556
-0.0013555295299738
-0.0042785299010574
-0.0070021492429077
-0.0094071282073855
-0.0114074777811765
-0.0129597699269652
-0.0140587240457534
-0.0147257735952734
-0.0149994865059852
-0.0149285951629281
-0.014566570520401
-0.013967677950859
-0.0131833562627434
-0.0122598139569163
-0.0112385805696249
-0.010157786309719
-0.0090512419119477
-0.0079441731795668
-0.0068461564369499
-0.0057486798614263
-0.004635336343199
-0.003496553748846
-0.0023349202238023
-0.0011613056994974
1.1045951396226885e-05
0.0011698133312165
0.0023024349939078
0.00339423911646
0.0044295177794992
0.0053941118530929
0.0062771877273917
0.0070714438334107
0.007773813791573
0.0083891786634922
0.0089338272809982
0.0094315838068723
0.0099033145233988
0.0103591904044151
0.010796807706356
0.0112025532871484
0.0115559343248605
0.0118326097726821
0.012001353316009
0.0120183993130922
0.0118257757276296
0.0113554457202553
0.010537083260715
0.0093099102377891
0.0076381624676287
0.0055245379917323
0.0030178900342434
0.000212172861211
-0.0027671665884554
-0.0057834037579596
-0.0087031284347176
-0.011402434669435
-0.0137726804241538
-0.0157294105738401
-0.0172182116657495
-0.0182157140225172
-0.0187295321375131
-0.0187959689646959
-0.0184739101678133
-0.0178381893783807
-0.0169755201786756
-0.0159795582294464
-0.014939384534955
-0.0139286434277892
-0.0130048729479312
-0.012209091335535
-0.0115558635443449
-0.0110229197889566
-0.0105515737086534
-0.0100588854402303
-0.0094550950452685
-0.0086586084216833
-0.0076058427803218
-0.0062585407868027
-0.0046098427847027
-0.0026870109140872
-0.0005484819412231
0.0017265789210796
0.0040535666048526
0.0063521480187773
0.0085465060546994
0.01056619733572
0.0123522179201245
0.0138626266270875
0.0150767937302589
0.0159989204257726
0.0166568271815776
0.0170957297086715
0.0173711720854043
0.0175423212349414
0.0176647938787937
0.017782786861062
0.01792130805552
0.0180810242891311
0.0182365775108337
0.0183341521769762
0.0182870086282491
0.0179781187325716
0.0172779690474271
0.0160736963152885
0.0142981326207518
0.0119480732828378
0.0090886279940605
0.005845118779689
0.0023839503992348
-0.0011118457186967
-0.0044645648449659
-0.0075174798257648
-0.0101453410461544
-0.0122598372399806
-0.0138081638142466
-0.0147721543908119
-0.0151740480214357
-0.0150788752362132
-0.0145855629816651
-0.0138104679062962
-0.0128694362938404
-0.0118636013939976
-0.0108702108263969
-0.0099369632080197
-0.0090804751962423
-0.008291034027934
-0.0075427955016493
-0.0068035628646612
-0.0060393111780285
-0.0052160043269395
-0.0043024760670959
-0.003275396535173
-0.0021267277188599
-0.0008691365364938
0.000465816585347
0.0018347188597545
0.00319120218046
0.0044936528429389
0.0057081780396401
0.0068089067935943
0.0077785798348486
0.0086076604202389
0.0092937368899583
0.0098431538790464
0.0102702789008617
0.0105947135016322
0.0108410194516181
0.0110373767092823
0.0112080266699194
0.0113632371649146
0.0114927506074309
0.01156288664788
0.01151579990983
0.0112728392705321
0.0107443630695343
0.0098453629761934
0.0085131088271737
0.0067209117114543
0.004485388752073
0.0018689271528273
-0.001023847144097
-0.0040554520674049
-0.0070681106299161
-0.0099026747047901
-0.012421540915966
-0.0145225701853632
-0.016141090542078
-0.0172492302954196
-0.0178552456200122
-0.0179983675479888
-0.0177403632551431
-0.0171584766358137
-0.0163390710949897
-0.0153705924749374
-0.0143372928723692
-0.0133118769153952
-0.0123453205451369
-0.0114580215886235
-0.0106369080021977
-0.0098433475941419
-0.0090316561982035
-0.0081639094278216
-0.0072126477025449
-0.0061603272333741
-0.0050016455352306
-0.0037449558731168
-0.0024092949461191
-0.0010188475716859
0.0004021706990897
0.0018326808931306
0.0032537532970309
0.0046442588791251
0.0059781107120215
0.0072270701639354
0.008368344977498
0.0093897767364978
0.0102870445698499
0.011058198288083
0.0117027293890714
0.0122237680479884
0.0126284323632717
0.0129228625446558
0.0131012266501784
0.0131343584507703
0.0129661411046981
0.012519359588623
0.0117093091830611
0.010464534163475
0.0087496023625135
0.0065818442963063
0.004037317354232
0.0012413363438099
-0.0016545046819373
-0.0044958074577152
-0.007142009679228
-0.009476376697421
-0.0114091429859399
-0.0128773897886276
-0.0138458767905831
-0.0143086556345224
-0.0142902387306094
-0.0138450479134917
-0.013052511960268
-0.0120064336806535
-0.0108019020408391
-0.0095230396836996
-0.0082330740988254
-0.0069720773026347
-0.0057639512233436
-0.004623606801033
-0.0035583954304456
-0.0025665662251412
-0.0016362350434064
-0.0007468964904546
0.0001261234283447
0.0010065739043056
0.0019143775571137
0.0028648900333791
0.0038673072122037
0.004921537823975
0.0060156267136335
0.0071264314465224
0.008226016536355
0.0092880809679627
0.0102869244292378
0.0111949741840362
0.0119867166504263
0.0126451458781957
0.0131639838218688
0.0135428225621581
0.0137756988406181
0.0138388518244028
0.0136850774288177
0.0132475048303604
0.0124507378786802
0.0112260421738028
0.0095288231968879
0.0073568122461438
0.0047638267278671
0.0018578579183667
-0.0012209931155666
-0.0043266569264233
-0.0073210792616009
-0.0100798336789011
-0.0124990157783031
-0.0145011572167277
-0.0160356909036636
-0.0170789361000061
-0.017634468153119
-0.0177302733063697
-0.0174155719578266
-0.0167583245784044
-0.0158393010497093
-0.0147407120093703
-0.0135324634611606
-0.0122648943215608
-0.0109736770391464
-0.0096886428073048
-0.0084342174232006
-0.0072222128510475
-0.0060470895841717
-0.0048881811089813
-0.0037152362056076
-0.0024938667193055
-0.001191362272948
0.0002161907032132
0.0017363703809678
0.0033563654869794
0.0050466647371649
0.0067710801959037
0.0084956660866737
0.0101878978312015
0.0118072293698787
0.0133025106042623
0.0146249998360872
0.0157433114945888
0.0166467279195785
0.017342047765851
0.0178516600281
0.0182107836008071
0.0184590648859739
0.0186266899108886
0.0187210198491811
0.0187180489301681
0.0185586232692003
0.0181524623185396
0.0173942912369966
0.0161858741194009
0.014453143812716
0.0121593130752444
0.0093181105330586
0.0060019204393029
0.0023396317847073
-0.0014968893956393
-0.0053167724981904
-0.0089358482509851
-0.0121945273131132
-0.014967780560255
-0.0171704664826393
-0.0187594126909971
-0.0197326615452766
-0.0201232247054576
-0.0199869405478239
-0.0193944983184337
-0.0184327028691768
-0.0172038413584232
-0.0158152412623167
-0.0143639333546161
-0.0129251554608345
-0.0115483868867158
-0.0102573297917842
-0.0090515725314617
-0.0079104891046881
-0.0067982771433889
-0.0056697651743888
-0.0044778306037187
-0.0031822780147194
-0.0017559905536472
-0.0001851976849138
0.0015285685658454
0.0033602456096559
0.0052588176913559
0.0071585280820727
0.0089939795434474
0.0107096452265977
0.0122640645131468
0.0136311594396829
0.0147999012842774
0.0157728586345911
0.0165636278688907
0.0171942226588726
0.0176929272711277
0.0180913135409355
0.0184221919625997
0.0187197905033826
0.0190146565437316
0.0193209312856197
0.0196280591189861
0.0199020020663738
0.0200881417840719
0.0201119817793369
0.0198797769844532
0.0192822609096765
0.0182056166231632
0.0165507793426513
0.0142551138997077
0.0113082667812705
0.0077610062435269
0.0037277238443493
-0.0006215795874595
-0.0050791916437447
-0.0094248196110129
-0.0134566547349095
-0.0170167461037635
-0.0200006756931543
-0.0223554223775863
-0.0240719243884086
-0.0251752398908138
-0.0257145799696445
-0.0257567763328552
-0.0253817532211542
-0.0246755704283714
-0.02372382953763
-0.0226081423461437
-0.0214019380509853
-0.0201625786721706
-0.0189221464097499
-0.0176855754107236
-0.0164406783878803
-0.0151716619729995
-0.0138662662357091
-0.0125151835381984
-0.0111089590936899
-0.0096384938806295
-0.0080991191789507
-0.0064933523535728
-0.0048302789218723
-0.0031232929322868
-0.001387690543197
0.000359839759767
0.0020995957311242
0.0038102883845567
0.0054747462272644
0.007080961484462
0.0086147775873541
0.010054413229227
0.0113735813647508
0.0125486720353364
0.013565482571721
0.0144230648875236
0.0151315033435821
0.0157056860625743
0.0161617081612348
0.0165166221559047
0.0167865846306085
0.0169842652976512
0.0171199049800634
0.0172047466039657
0.0172530822455883
0.0172781143337488
0.0172812640666961
0.0172460526227951
0.0171415172517299
0.0169267989695072
0.0165518783032894
0.0159559547901153
0.0150668416172266
0.0138056324794888
0.0120974276214838
0.0098851965740323
0.0071434341371059
0.0038901939988136
0.0001953728497028
-0.0038189413025975
-0.0079865138977766
-0.0121150072664022
-0.0160147510468959
-0.0195253565907478
-0.0225293282419443
-0.024956626817584
-0.0267831981182098
-0.0280223842710256
-0.0287135317921638
-0.0289140827953815
-0.0286950394511222
-0.0281375870108604
-0.0273302868008613
-0.0263626985251903
-0.0253126472234725
-0.0242336019873619
-0.0231494978070259
-0.0220580510795116
-0.0209415219724178
-0.0197800770401954
-0.018558632582426
-0.0172646678984165
-0.0158845391124486
-0.0144046992063522
-0.0128159616142511
-0.0111158061772584
-0.0093086920678615
-0.0074079614132642
-0.0054372642189264
-0.0034278391394764
-0.001415189821273
0.000564640155062
0.0024824740830808
0.0043196361511945
0.0060615022666752
0.0076906792819499
0.0091885924339294
0.0105413896963
0.0117432475090026
0.0127953076735138
0.013704146258533
0.0144820902496576
0.0151467062532901
0.0157177317887544
0.0162130091339349
0.0166462045162916
0.0170281883329153
0.0173719692975282
0.0176968872547149
0.0180229693651199
0.0183561444282531
0.0186798758804798
0.0189586915075778
0.0191428922116756
0.019168572500348
0.0189563687890768
0.0184147022664546
0.0174501966685056
0.015982573851943
0.0139610217884182
0.0113803874701261
0.0082925464957952
0.0048059686087071
0.0010742670856416
-0.002719237934798
-0.0063821887597441
-0.009741717018187
-0.0126680601388216
-0.0150800459086894
-0.0169374793767929
-0.0182330254465341
-0.0189886130392551
-0.0192528218030929
-0.0190962962806224
-0.0186063647270202
-0.0178797822445631
-0.0170128624886274
-0.0160916000604629
-0.0151823759078979
-0.0143228089436888
-0.0135163264349102
-0.0127382706850767
-0.0119527401402592
-0.0111261019483208
-0.0102307172492146
-0.0092449644580483
-0.0081530651077628
-0.0069450065493583
-0.005618117749691
-0.004179517738521
-0.0026465849950909
-0.001044878270477
0.0005953912623226
0.0022438059095293
0.0038736197166144
0.0054642101749777
0.007003366947174
0.0084856059402227
0.0099030528217554
0.0112392408773303
0.0124735478311777
0.0135878324508667
0.0145692778751254
0.0154117848724126
0.016116764396429
0.0166932195425033
0.0171562228351831
0.0175227113068103
0.0178074613213539
0.0180221684277057
0.0181772597134113
0.0182851366698741
0.01836116053164
0.0184160061180591
0.01843998208642
0.0183908231556415
0.0181920826435089
0.0177396610379219
0.0169159900397062
0.015612575225532
0.013754254207015
0.0113159073516726
0.0083294361829757
0.0048842234537005
0.001121727284044
-0.0027778455987572
-0.0066169253550469
-0.0102043151855468
-0.0133735667914152
-0.0159985348582267
-0.0180089846253395
-0.0193951781839132
-0.0201972424983978
-0.0204896815121173
-0.0203668549656867
-0.0199308935552835
-0.0192834828048944
-0.0185182355344295
-0.0177121944725513
-0.0169202666729688
-0.0161736719310283
-0.0154808806255459
-0.0148303117603063
-0.0141920307651162
-0.0135187283158302
-0.0127554554492235
-0.0118587920442223
-0.0108085107058286
-0.0096042668446898
-0.0082584647461771
-0.0067922873422503
-0.0052324407733976
-0.0036083771847188
-0.0019513282459229
-0.0002943207509815
0.0013287244364619
0.0028858319856226
0.0043500582687556
0.0057015181519091
0.0069300662726163
0.0080378269776701
0.0090354392305016
0.0099318418651819
0.0107283359393477
0.0114225298166275
0.0120144123211503
0.012506540864706
0.012901397421956
0.0132030062377452
0.01341980881989
0.0135594084858894
0.0136159323155879
0.0135594215244054
0.0133321089670062
0.0128528717905282
0.0120330611243844
0.0108002936467528
0.0091171097010374
0.0069881174713373
0.0044613974168896
0.0016277319518849
-0.0013850496616214
-0.0044247605837881
-0.0073329051956534
-0.0099615380167961
-0.0121844811365008
-0.0139067657291889
-0.0150752682238817
-0.0156849417835474
-0.015774542465806
-0.0154151627793908
-0.0146974176168441
-0.0137181608006358
-0.0125711318105459
-0.0113452412188053
-0.010123336687684
-0.0089755170047283
-0.0079493727535009
-0.0070626544766128
-0.0063029355369508
-0.0056330827064812
-0.0049988660030066
-0.0043387599289417
-0.0035951724275946
-0.0027233753353357
-0.0016973745077848
-0.0005128104239702
0.0008153826929628
0.002259062603116
0.003780031343922
0.0053278636187314
0.0068407743237912
0.0082572000101208
0.009531507268548
0.0106422882527112
0.0115901976823806
0.0123899886384606
0.0130626950412988
0.0136296413838863
0.0141065893694758
0.0144968461245298
0.0147828236222267
0.014917860738933
0.0148263927549123
0.0144181028008461
0.0136064430698752
0.0123206619173288
0.0105170626193284
0.0081949830055236
0.005408220924437
0.0022639511153101
-0.0010885751107707
-0.0044765947386622
-0.007727209944278
-0.0106888767331838
-0.0132448188960552
-0.0153185725212097
-0.0168736316263675
-0.0179067235440015
-0.0184367448091506
-0.0184953305870294
-0.0181245561689138
-0.0173811912536621
-0.0163386426866054
-0.0150798326358199
-0.0136851370334625
-0.0122222760692238
-0.0107396803796291
-0.0092644607648253
-0.007805576082319
-0.0063581531867384
-0.004906422458589
-0.0034276135265827
-0.0018987692892551
-0.0003050118684768
0.001355524174869
0.0030735367909073
0.0048306882381439
0.0065946029499173
0.0083156498149037
0.0099362023174762
0.0114050209522247
0.0126863215118646
0.0137636018916964
0.014639695174992
0.0153334941715002
0.0158769153058528
0.0163126960396766
0.0166869889944791
0.0170353502035141
0.0173704028129577
0.0176763124763965
0.0179071445018053
0.0179855730384588
0.0178036969155073
0.0172340236604213
0.0161544922739267
0.0144789637997746
0.0121805304661393
0.0093010235577821
0.0059475377202034
0.0022785060573369
-0.001518469536677
-0.0052508190274238
-0.0087403412908315
-0.0118367550894618
-0.0144271124154329
-0.016439227387309
-0.0178379975259304
-0.0186223667114973
-0.0188285633921623
-0.0185305308550596
-0.0178301930427551
-0.0168426465243101
-0.0156818330287933
-0.0144479032605886
-0.0132172387093305
-0.0120372623205184
-0.0109266377985477
-0.0098779257386922
-0.0088619068264961
-0.0078355781733989
-0.0067513193935155
-0.005562231875956
-0.0042242566123604
-0.0027026543393731
-0.0009850468486547
0.0009100968018174
0.0029377634637057
0.0050376830622553
0.0071440124884247
0.0091927619650959
0.0111283995211124
0.0129066444933414
0.0144945308566093
0.0158729143440723
0.0170396082103252
0.0180073846131563
0.0187972821295261
0.0194338522851467
0.0199446268379688
0.0203549768775701
0.0206715688109397
0.0208641290664672
0.0208595190197229
0.0205509234219789
0.0198170896619558
0.0185454785823822
0.0166539102792739
0.0141073856502771
0.0109297269955277
0.0072083156555891
0.0030873196665197
-0.0012502886820584
-0.0056040063500404
-0.0097734704613685
-0.0135726872831583
-0.0168448965996503
-0.0194779299199581
-0.021413592621684
-0.0226466841995716
-0.0232164841145277
-0.0231965463608503
-0.0226842071861028
-0.0217877961695194
-0.0206136032938957
-0.0192568413913249
-0.0177975259721279
-0.0162994731217622
-0.0148103553801774
-0.0133609622716903
-0.0119615113362669
-0.0105977933853864
-0.0092364400625228
-0.0078409649431705
-0.0063866027630865
-0.0048647988587617
-0.0032803621143102
-0.0016453159041702
2.8571346774697304e-05
0.0017317791935056
0.0034513620194047
0.0051663573831319
0.0068499110639095
0.0084748566150665
0.0100179594010114
0.0114606013521552
0.0127895567566156
0.0140008805319666
0.0150990532711148
0.0160871651023626
0.0169588960707187
0.0177004262804985
0.0182985719293355
0.0187482703477144
0.0190548356622457
0.0192304458469152
0.0192868970334529
0.0192252323031425
0.0190235581248998
0.0186289437115192
0.017957704141736
0.0169048570096492
0.0153647810220718
0.01325907651335
0.010557135567069
0.0072820829227566
0.0035094171762466
-0.0006370684131979
-0.0049951393157243
-0.0093792770057916
-0.0135971307754516
-0.017465841025114
-0.0208281613886356
-0.0235663335770368
-0.0256104189902544
-0.0269381813704967
-0.0275688935071229
-0.0275565311312675
-0.0269813723862171
-0.0259385574609041
-0.0245301015675067
-0.0228635799139738
-0.0210495144128799
-0.0191905982792377
-0.0173674616962671
-0.0156304165720939
-0.0140003114938735
-0.0124748200178146
-0.0110351080074906
-0.009650663472712
-0.008284231647849
-0.0068989763967692
-0.0054655596613883
-0.0039656637236475
-0.0023910352028906
-0.0007395413122139
0.0009848937625065
0.0027638524770736
0.0045575923286378
0.0063105444423854
0.0079658208414912
0.0094798654317855
0.0108296293765306
0.0120105007663369
0.0130319045856595
0.0139148198068141
0.0146881155669689
0.0153828915208578
0.0160268992185592
0.0166402738541364
0.0172356646507978
0.017822153866291
0.0184032525867223
0.0189662426710128
0.0194741301238536
0.0198664534837007
0.0200631096959114
0.0199672635644674
0.0194707550108432
0.018465407192707
0.0168602839112281
0.0146018248051404
0.011690329760313
0.0081876143813133
0.0042155440896749
-5.4163858294487e-05
-0.0044177421368658
-0.0086600854992866
-0.0125779742375016
-0.0160060115158557
-0.0188343003392219
-0.0210095942020416
-0.0225257761776447
-0.0234118364751338
-0.0237222015857696
-0.0235313586890697
-0.0229292698204517
-0.0220136418938636
-0.0208802968263626
-0.0196145996451377
-0.0182861797511577
-0.0169476754963397
-0.0156330280005931
-0.0143535509705543
-0.0130998287349939
-0.0118515845388174
-0.0105858817696571
-0.0092800958082079
-0.007913745008409
-0.0064691756851971
-0.0049310908652842
-0.0032890969887375
-0.0015430640196427
0.0002939096884801
0.0021963668987154
0.0041294926777482
0.0060540088452398
0.0079312566667795
0.0097275795415043
0.0114190699532628
0.0129914358258247
0.0144324861466884
0.015726163983345
0.0168534070253372
0.0177978351712226
0.0185526888817548
0.0191240217536687
0.0195297431200742
0.0197968948632478
0.0199562422931194
0.0200363751500844
0.020061993971467
0.0200533531606197
0.0200212411582469
0.0199606865644454
0.0198468249291181
0.0196267701685428
0.0192096401005983
0.0184718780219554
0.0172823835164308
0.0155319375917315
0.0131552731618285
0.0101467696949839
0.0065690949559211
0.0025490010157227
-0.0017392700538039
-0.0060958568938076
-0.010316452011466
-0.0142123736441135
-0.0176297798752784
-0.0204612705856561
-0.0226453877985477
-0.0241630561649799
-0.0250384174287319
-0.0253376364707946
-0.0251598060131073
-0.0246227271854877
-0.0238480661064386
-0.0229471586644649
-0.0220082439482212
-0.0210881642997264
-0.0202109180390834
-0.0193720776587724
-0.0185457281768322
-0.0176915749907493
-0.0167621430009603
-0.0157093238085508
-0.0144902262836694
-0.0130756665021181
-0.0114607699215412
-0.0096695153042674
-0.0077495975419878
-0.0057626627385616
-0.0037745120935142
-0.0018456128891557
-2.296362072229385e-05
0.0016637449152767
0.0032016695477068
0.0045921066775918
0.005845955107361
0.006978936959058
0.0080087082460522
0.0089539214968681
0.0098353428766131
0.0106743397191166
0.0114850103855133
0.0122685423120856
0.0130145857110619
0.0137025006115436
0.0142984231933951
0.0147505039349198
0.0149852205067873
0.014909453690052
0.014423195272684
0.0134403146803379
0.0119101740419864
0.0098339840769767
0.0072717359289526
0.0043405871838331
0.001204427331686
-0.0019493561703711
-0.004940016195178
-0.0076167322695255
-0.0098695941269397
-0.0116313882172107
-0.0128755159676074
-0.0136128403246402
-0.0138848274946212
-0.0137525722384452
-0.0132869454100728
-0.0125641636550426
-0.0116652194410562
-0.0106714041903615
-0.0096527002751827
-0.0086562810465693
-0.0077007235959172
-0.0067780558019876
-0.0058651072904467
-0.0049367006868124
-0.0039712479338049
-0.0029506292194128
-0.0018606083467602
-0.0006930916570127
0.0005519967526197
0.0018671608995646
0.0032390281558036
0.0046491306275129
0.0060741016641259
0.0074864192865788
0.0088562341406941
0.0101564843207597
0.0113712325692176
0.0124985566362738
0.0135419825091958
0.0144991874694824
0.0153577988967299
0.0160971637815237
0.0166906975209712
0.0171045809984207
0.017292222008109
0.0171901974827051
0.0167216379195451
0.0158062633126974
0.014374547637999
0.0123855173587799
0.0098432255908846
0.0068053929135203
0.0033842334523797
-0.000262773304712
-0.0039559295400977
-0.007519997190684
-0.0108014103025197
-0.0136757045984268
-0.0160496924072504
-0.0178619511425495
-0.0190839953720569
-0.0197201259434223
-0.0198036804795265
-0.0193913336843252
-0.0185564924031496
-0.0173825360834598
-0.0159581843763589
-0.0143710151314735
-0.0126961655914783
-0.0109901819378137
-0.0092951254919171
-0.0076421545818448
-0.0060494286008179
-0.0045207729563117
-0.0030477168038487
-0.0016127633862197
-0.0001936894841492
0.0012307781726121
0.0026759291067719
0.0041491482406854
0.0056508532725274
0.0071755549870431
0.0087109338492155
0.0102370521053671
0.0117295086383819
0.0131631288677454
0.0145115945488214
0.0157484356313943
0.0168529860675334
0.0178158823400735
0.0186398848891258
0.0193359032273292
0.0199169926345348
0.0203925911337137
0.0207598004490137
0.0209913328289985
0.0210276339203119
0.0207783579826354
0.0201330427080392
0.0189816784113645
0.0172432642430067
0.0148887187242507
0.0119468588382005
0.008501692675054
0.004688243381679
0.0006805050652474
-0.0033283687662333
-0.0071466108784079
-0.0106034968048334
-0.0135654099285602
-0.0159432236105203
-0.0176921393722295
-0.0188089273869991
-0.019327962771058
-0.0193146001547575
-0.0188551731407642
-0.0180443134158849
-0.0169740989804267
-0.0157302804291248
-0.0143924290314316
-0.0130307571962475
-0.0116994250565767
-0.0104310289025306
-0.0092339189723134
-0.0080930795520544
-0.0069770170375704
-0.0058486815541982
-0.0046742931008338
-0.0034278575330972
-0.0020942217670381
-0.0006722399266436
0.0008247309597209
0.0023728171363472
0.0039424011483788
0.005498866084963
0.0070014484226703
0.008407199755311
0.0096804602071642
0.010801326483488
0.0117694167420268
0.012602312490344
0.0133292814716696
0.013984696008265
0.0146036278456449
0.0152173610404133
0.0158484168350696
0.0165063738822937
0.0171846058219671
0.017858637496829
0.0184831637889146
0.0189857985824346
0.0192649718374013
0.0191960223019123
0.0186437368392944
0.0174816716462373
0.0156143615022301
0.0129961902275681
0.0096443817019462
0.0056426068767905
0.0011330647394061
-0.0036991499364376
-0.0086449235677719
-0.0134930117055773
-0.0180510953068733
-0.0221572183072567
-0.0256848502904176
-0.0285507701337337
-0.0307203736156225
-0.0322021581232547
-0.033035323023796
-0.0332791209220886
-0.0330060496926307
-0.0322946421802043
-0.0312222316861152
-0.0298614930361509
-0.0282784290611743
-0.0265286210924386
-0.0246531385928392
-0.0226755309849977
-0.0206007231026887
-0.0184171628206968
-0.0161053296178579
-0.0136520452797412
-0.011060245335102
-0.0083496002480387
-0.0055535910651087
-0.0027147748041898
0.0001201815903186
0.0029023652896285
0.0055813551880419
0.0081078121438622
0.0104380100965499
0.012539429590106
0.0143947079777717
0.0160017125308513
0.0173721425235271
0.0185314565896987
0.0195154454559087
0.0203583315014839
0.0210812017321586
0.0216908119618892
0.0221834182739257
0.0225482806563377
0.0227735843509435
0.0228533204644918
0.022791750729084
0.0226054526865482
0.0223214589059352
0.0219711624085903
0.0215829089283943
0.0211747735738754
0.0207476522773504
0.0202790908515453
0.019716402515769
0.0189705360680818
0.0179206971079111
0.0164349507540464
0.014398050494492
0.0117358611896634
0.0084321741014719
0.0045359712094068
0.0001589953899383
-0.004533763974905
-0.0093403924256563
-0.0140452152118086
-0.0184438806027174
-0.0223641078919172
-0.0256768949329853
-0.0282964669167995
-0.0301776155829429
-0.0313197895884513
-0.0317709259688854
-0.0316192843019962
-0.0309758819639682
-0.0299573894590139
-0.0286736506968736
-0.0272197108715772
-0.0256716031581163
-0.0240831300616264
-0.0224834475666284
-0.0208796150982379
-0.0192630626261234
-0.0176151841878891
-0.0159117579460144
-0.014126531779766
-0.0122372014448046
-0.0102376714348793
-0.0081472992897033
-0.0060070091858506
-0.0038670948706567
-0.0017761508934199
0.0002244459465146
0.0021018839906901
0.0038319490849971
0.0053992518223822
0.006798933725804
0.0080383801832795
0.0091355312615633
0.0101140262559056
0.01100012101233
0.011823121458292
0.0126128904521465
0.013391938060522
0.014169436879456
0.0149419987574219
0.015699628740549
0.0164326578378677
0.017135877162218
0.0178104992955923
0.0184640884399414
0.0191059373319149
0.0197396203875541
0.0203553400933742
0.0209208596497774
0.0213735625147819
0.0216218493878841
0.0215593725442886
0.0210825782269239
0.0201019123196601
0.0185509286820888
0.016397563740611
0.0136539516970515
0.0103813596069812
0.0066870553418993
0.0027124050538986
-0.0013814126141369
-0.0054251221008598
-0.0092527689412236
-0.0127134686335921
-0.0156801659613847
-0.0180550664663314
-0.0197734106332063
-0.0208061579614877
-0.0211638733744621
-0.0209028553217649
-0.0201257895678281
-0.0189689397811889
-0.0175792481750249
-0.0160904768854379
-0.0146057242527604
-0.0131894499063491
-0.0118679162114858
-0.010635987855494
-0.0094683561474084
-0.0083303805440664
-0.007184425368905
-0.0059954482130706
-0.0047382665798068
-0.0034005201887339
-0.0019822164904326
-0.00049859425053
0.0010175725910812
