bvp
-0.0405317656695842
-0.0440579168498516
-0.0474518910050392
-0.0506270825862884
-0.0534763783216476
-0.0558731965720653
-0.057706244289875
-0.0589405372738838
-0.0596704930067062
-0.0601293891668319
-0.0606467723846435
-0.061578270047903
-0.0632394701242446
-0.0658603608608245
-0.0695639178156852
-0.0743618309497833
-0.0801533088088035
-0.0867226123809814
-0.0937488973140716
-0.1008399650454521
-0.1075793653726577
-0.1135706305503845
-0.1184737756848335
-0.1220254227519035
-0.1240308731794357
-0.1243408918380737
-0.1228414997458458
-0.1194669008255004
-0.1142215579748153
-0.1071911305189132
-0.0985393822193145
-0.0885030478239059
-0.0773866474628448
-0.0655500963330268
-0.0533894449472427
-0.0413155779242515
-0.0297286212444305
-0.0189801156520843
-0.0093313679099082
-0.0009271949529647
0.0062122344970703
0.0121859535574913
0.0171907320618629
0.0214879810810089
0.0253718942403793
0.0291439145803451
0.0330865159630775
0.0374289825558662
0.0423153862357139
0.0477977693080902
0.053860105574131
0.0604522079229354
0.067511573433876
0.0749683231115341
0.0827357918024063
0.0906932502985
0.09867924451828
0.1065100878477096
0.1140123754739761
0.1210437044501304
0.1274941265583038
0.1332833617925644
0.1383637487888336
0.1427235603332519
0.1463854163885116
0.149397924542427
0.1518193632364273
0.153698056936264
0.1550580114126205
0.1558936089277267
0.156168907880783
0.1558185517787933
0.1547567099332809
0.1528954207897186
0.1501623541116714
0.1465121358633041
0.1419298350811004
0.1364237070083618
0.1300098001956939
0.1226990148425102
0.1144932582974433
0.1053910106420517
0.0954023003578186
0.0845707207918167
0.0729949474334716
0.0608407482504844
0.0483357012271881
0.0357470177114009
0.0233547240495681
0.0114319361746311
0.0002308459952473
-0.0100308079272508
-0.0191808324307203
-0.0271011292934417
-0.0337357446551322
-0.0390954427421093
-0.0432564839720726
-0.0463526733219623
-0.048560082912445
-0.0500770919024944
-0.0511016324162483
-0.0518075078725814
-0.0523279085755348
-0.0527520142495632
-0.0531280636787414
-0.0534662939608097
-0.0537451058626174
-0.0539230406284332
-0.0539532229304313
-0.0537949949502944
-0.0534212738275527
-0.0528251156210899
-0.0520240925252437
-0.0510569475591182
-0.0499733164906501
-0.0488228276371955
-0.0476452410221099
-0.0464608110487461
-0.0452684946358203
-0.0440578609704971
-0.042825024574995
-0.0415818840265274
-0.0403607711195945
-0.0392204150557518
-0.0382540747523307
-0.0375957898795604
-0.0374159812927246
-0.0379000268876552
-0.0392139106988906
-0.0414671301841735
-0.0446829460561275
-0.0487835705280303
-0.0535899884998798
-0.0588345155119895
-0.0641909390687942
-0.0693190172314643
-0.0739028602838516
-0.0776724442839622
-0.080416202545166
-0.0819903239607811
-0.0823246538639068
-0.0814258903264999
-0.0793769136071205
-0.0763287767767906
-0.0724838897585868
-0.0680736303329467
-0.0633339285850524
-0.0584797970950603
-0.0536808781325817
-0.0490437448024749
-0.0446096733212471
-0.0403695628046989
-0.0362849086523056
-0.032303187996149
-0.0283660236746072
-0.0244161300361156
-0.0204067062586545
-0.0163100138306617
-0.0121210785582661
-0.0078567313030362
-0.0035514533519744
0.0007485337555408
0.0049911877140402
0.0091235758736729
0.013096259906888
0.0168689526617527
0.020413514226675
0.0237085409462451
0.0267313756048679
0.0294539928436279
0.0318390354514122
0.0338314846158027
0.0353483967483043
0.036275740712881
0.0364789888262748
0.0358248129487037
0.0342074744403362
0.0315765142440795
0.0279619321227073
0.023488849401474
0.0183764640241861
0.0129207540303468
0.0074597205966711
0.0023284745402634
-0.0021774671040475
-0.0058222045190632
-0.0084411762654781
-0.0099513763561844
-0.0103553812950849
-0.0097347488626837
-0.0082370862364768
-0.0060616433620452
-0.003440226893872
-0.0006095666904002
0.00221814122051
0.0048773977905511
0.0072637582197785
0.0093407351523637
0.0111336447298526
0.0127102071419358
0.0141585990786552
0.0155706387013196
0.0170305371284484
0.0186070017516613
0.0203451197594404
0.0222589038312435
0.02432831376791
0.0265024360269308
0.0287090502679348
0.0308671779930591
0.0328981205821037
0.0347345620393753
0.0363284945487976
0.0376566164195537
0.0387175381183624
0.0395163670182228
0.0400431603193283
0.0402546823024749
0.0400636419653892
0.0393386036157608
0.0379160493612289
0.0356238558888435
0.0323146879673004
0.0279035065323114
0.0223992019891738
0.0159209407866001
0.0086952419951558
0.0010354705154895
-0.0066912090405821
-0.0141030848026275
-0.0208446085453033
-0.0266232062131166
-0.0312326923012733
-0.0345591232180595
-0.0365753434598445
-0.037331860512495
-0.0369458347558975
-0.0355870649218559
-0.0334620475769043
-0.0307959802448749
-0.0278111919760704
-0.0247040688991546
-0.0216269623488187
-0.0186803620308637
-0.0159112066030502
-0.0133130000904202
-0.0108358673751354
-0.0084100998938083
-0.0059695243835449
-0.003463917877525
-0.0008633319521322
0.0018403088906779
0.0046326071023941
0.0074782171286642
0.0103272525593638
0.0131251513957977
0.0158187635242939
0.0183576084673404
0.0206974204629659
0.0228057391941547
0.0246652923524379
0.026276571676135
0.0276557430624961
0.028824346140027
0.0297986716032028
0.0305820107460021
0.031154204159975
0.0314578004181385
0.0313863009214401
0.0307830870151519
0.029458075761795
0.0272205062210559
0.0239198878407478
0.0194846261292696
0.0139481835067272
0.0074577629566192
0.0002668444067239
-0.0072861248627305
-0.0148155493661761
-0.0219395123422145
-0.0283250696957111
-0.0337136685848236
-0.0379295013844966
-0.0408792793750762
-0.042547833174467
-0.0429906770586967
-0.0423239469528198
-0.0407125204801559
-0.0383555330336093
-0.0354685522615909
-0.0322644859552383
-0.0289351865649223
-0.0256340429186821
-0.0224604215472936
-0.0194545201957225
-0.0166097432374954
-0.0138921895995736
-0.0112540237605571
-0.0086418697610497
-0.0060051307082176
-0.003302794182673
-0.0005074930377304
0.0023905904963612
0.0053801382891833
0.0084279179573059
0.0114819426089525
0.0144784366711974
0.0173499584197998
0.0200341418385505
0.0224839821457862
0.0246718525886535
0.0265820827335119
0.0282017197459936
0.0295189693570137
0.0305284652858972
0.0312367398291826
0.0316625088453292
0.0318337269127368
0.031785100698471
0.0315551571547985
0.0311817526817321
0.0306970924139022
0.0301226545125246
0.0294629596173763
0.0286962278187274
0.0277607906609773
0.026539834216237
0.0248554870486259
0.0224864967167377
0.0192103367298841
0.0148550309240818
0.0093466397374868
0.0027408357709646
-0.0047718565911054
-0.0128859467804431
-0.0212175995111465
-0.0293527618050575
-0.0368978641927242
-0.043518804013729
-0.0489617548882961
-0.05306077003479
-0.0557383224368095
-0.057003304362297
-0.0569480843842029
-0.0557379648089408
-0.0535895824432373
-0.050746239721775
-0.0474549531936645
-0.0439425930380821
-0.0403937175869941
-0.0369364432990551
-0.0336372554302215
-0.0305039510130882
-0.027496762573719
-0.0245454162359237
-0.0215667877346277
-0.0184781178832054
-0.0152075421065092
-0.0117085138335824
-0.0079757310450077
-0.0040518371388316
-2.079340629279613e-05
0.0040089199319481
0.0079255551099777
0.0116308256983757
0.015048598870635
0.0181293692439794
0.0208500046283006
0.0232079401612281
0.0252154450863599
0.0268965065479278
0.0282851886004209
0.029425710439682
0.0303702447563409
0.0311687886714935
0.0318557731807231
0.032443594187498
0.0329258888959884
0.0332867614924907
0.0335096083581447
0.0335821136832237
0.0334991663694381
0.0332637168467044
0.0328843966126441
0.0323721207678318
0.0317360907793045
0.0309762246906757
0.0300699546933174
0.0289576239883899
0.0275353454053401
0.0256569571793079
0.0231436882168054
0.019808791577816
0.0155008621513843
0.0101523734629154
0.0038114599883556
-0.0033537913113832
-0.0110715478658676
-0.0189944598823785
-0.0267381779849529
-0.0339248590171337
-0.0402231104671955
-0.0453775078058242
-0.0492237247526645
-0.0516910403966903
-0.052795723080635
-0.0526322647929191
-0.0513673536479473
-0.049226202070713
-0.0464638471603393
-0.0433328188955783
-0.0400576964020729
-0.0368169359862804
-0.0337316431105136
-0.0308616384863853
-0.0282086413353681
-0.0257266089320182
-0.0233372002840042
-0.020946392789483
-0.0184601545333862
-0.0157989021390676
-0.0129085993394255
-0.0097680883482098
-0.0063945571891963
-0.0028432901017367
0.0008025835268199
0.0044482485391199
0.0080016432330012
0.0113824224099516
0.0145267322659492
0.0173896588385105
0.0199454501271247
0.0221855659037828
0.0241163149476051
0.0257577635347843
0.0271418765187263
0.0283080860972404
0.0292987376451492
0.0301540791988372
0.0309041440486907
0.0315630622208118
0.0321316346526145
0.0326025001704692
0.0329626612365245
0.0331965461373329
0.0332912616431713
0.0332415141165256
0.0330516472458839
0.0327342525124549
0.0323067046701908
0.031786061823368
0.0311814583837986
0.0304843932390213
0.0296574272215366
0.0286204610019922
0.0272402148693799
0.0253382753580808
0.0227234493941068
0.0192358158528804
0.014787065796554
0.0093883462250232
0.0031629418954253
-0.0036593610420823
-0.0107691790908575
-0.017817199230194
-0.0244533978402614
-0.030360747128725
-0.0352830849587917
-0.0390441678464412
-0.0415548831224441
-0.0428122356534004
-0.0428953394293785
-0.0419564545154571
-0.0402028746902942
-0.0378720499575138
-0.0352048724889755
-0.0324199236929416
-0.0296925846487283
-0.0271414406597614
-0.0248225312680006
-0.0227342210710048
-0.0208304841071367
-0.0190354622900486
-0.0172582566738128
-0.0154072502627968
-0.0134013844653964
-0.0111830830574035
-0.0087329009547829
-0.0060741119086742
-0.0032628220506012
-0.0003729443997144
0.0025154342874884
0.0053258193656802
0.0079944310709834
0.0104743335396051
0.0127355437725782
0.0147646805271506
0.0165634863078594
0.0181448627263307
0.0195267349481582
0.0207282528281211
0.0217721462249755
0.0226853340864181
0.0234894193708896
0.0241908822208642
0.0247835628688335
0.025258058682084
0.025607069954276
0.0258268602192401
0.0259187184274196
0.025889890268445
0.0257528871297836
0.0255236513912677
0.0252187401056289
0.0248512532562017
0.024427255615592
0.0239443890750408
0.0233891811221838
0.0227252878248691
0.0218737684190273
0.0207029022276401
0.0190408881753683
0.0167067535221576
0.0135478824377059
0.0094753634184598
0.0044919168576598
-0.0012926058843731
-0.0076631768606603
-0.0143211064860224
-0.0209214426577091
-0.0271154940128326
-0.032587707042694
-0.0370820239186286
-0.0404185056686401
-0.042506743222475
-0.0433568842709064
-0.0430769175291061
-0.0418511629104614
-0.0399091839790344
-0.0374947860836982
-0.0348387360572814
-0.0321371853351593
-0.0295379441231489
-0.0271335765719413
-0.0249603260308504
-0.0230061672627925
-0.0212260466068983
-0.019556388258934
-0.0179250333458185
-0.0162563323974609
-0.0144764017313718
-0.0125239249318838
-0.0103602726012468
-0.0079724974930286
-0.0053725466132164
-0.0025947513058781
0.000309363938868
0.0032767299562692
0.0062380051240324
0.0091249085962772
0.0118772881105542
0.014445555396378
0.0167904365807771
0.0188835933804512
0.0207105129957199
0.0222749281674623
0.0235969703644514
0.0247014574706554
0.0256084352731704
0.0263328645378351
0.0268874131143093
0.0272849239408969
0.0275391787290573
0.0276627838611602
0.0276654548943042
0.0275556556880474
0.0273436140269041
0.0270422995090484
0.0266649425029754
0.0262197609990835
0.02570316568017
0.0250910613685846
0.0243264939635992
0.0233088750392198
0.0218962728977203
0.0199246313422918
0.0172404386103153
0.0137387197464704
0.0093934200704097
0.0042741238139569
-0.0014510583132505
-0.0075294398702681
-0.0136532392352819
-0.0194970052689313
-0.0247568488121032
-0.0291845668107271
-0.0326080508530139
-0.0349367633461952
-0.0361611545085907
-0.0363522805273532
-0.0356539823114872
-0.0342600010335445
-0.0323848985135555
-0.0302405748516321
-0.0280184224247932
-0.0258743613958358
-0.0239179581403732
-0.0222070664167404
-0.0207485500723123
-0.0195040181279182
-0.0183983519673347
-0.0173326842486858
-0.016202038154006
-0.0149102061986923
-0.0133808013051748
-0.0115702301263809
-0.0094775669276714
-0.0071416087448596
-0.0046279318630695
-0.0020156940445303
0.0006144251674413
0.0031930953264236
0.0056725800968706
0.0080307573080062
0.0102657657116651
0.0123829878866672
0.0143840331584215
0.0162645708769559
0.0180206410586833
0.0196553245186805
0.0211747474968433
0.0225758254528045
0.0238395556807518
0.0249343793839216
0.0258240532130002
0.0264763459563255
0.0268705990165472
0.0270006246864795
0.0268702656030654
0.0264813676476478
0.025816136971116
0.0248207598924636
0.0234018415212631
0.0214421935379505
0.0188318118453025
0.0155032072216272
0.0114576648920774
0.0067744716070592
0.0016068366821855
-0.0038305460475385
-0.0092818643897771
-0.0144771980121731
-0.0191608201712369
-0.0231142360717058
-0.0261730067431926
-0.0282395426183938
-0.0292916819453239
-0.0293838921934366
-0.0286375507712364
-0.0272227060049772
-0.025335643440485
-0.0231737941503524
-0.0209150947630405
-0.018708050251007
-0.0166668407618999
-0.0148639930412173
-0.0133213438093662
-0.012007687240839
-0.0108498875051736
-0.0097519289702177
-0.0086125144734978
-0.0073390500620007
-0.0058594522997736
-0.0041316905990242
-0.0021490342915058
6.109289824962616e-05
0.0024451939389109
0.0049348538741469
0.007453869562596
0.0099214203655719
0.0122579978778958
0.0143944295123219
0.016279574483633
0.0178858879953622
0.0192119069397449
0.0202790889889001
0.0211242605000734
0.0217911377549171
0.0223233848810195
0.0227610655128955
0.0231393054127693
0.0234855283051729
0.0238159149885177
0.024132777005434
0.0244158934801816
0.0246037859469652
0.0245780311524868
0.0241655074059963
0.0231600515544414
0.0213591065257787
0.0186065211892128
0.0148282879963517
0.0100544057786464
0.0044258809648454
-0.0018153651617467
-0.0083531942218542
-0.0148343164473772
-0.0209078416228294
-0.0262600481510162
-0.0306403711438179
-0.0338810831308364
-0.0359118543565273
-0.0367620959877967
-0.0365458279848098
-0.0354352816939353
-0.0336346328258514
-0.0313595011830329
-0.028819490224123
-0.0262002982199192
-0.0236473307013511
-0.0212552547454834
-0.0190667659044265
-0.0170786045491695
-0.0152490558102726
-0.0135049717500805
-0.0117512857541441
-0.009889175184071
-0.0078416960313916
-0.0055714920163154
-0.0030809249728918
-0.0004019541665911
0.002414422109723
0.0053064534440636
0.0082085989415645
0.0110568534582853
0.0137925883755087
0.0163662023842334
0.018739653751254
0.0208868812769651
0.0227931104600429
0.024454228579998
0.0258767679333686
0.0270755067467689
0.0280665457248687
0.0288619417697191
0.0294711552560329
0.0299051124602556
0.0301783457398414
0.0303095839917659
0.0303191561251878
0.0302209910005331
0.030010575428605
0.0296511016786098
0.0290616825222969
0.0281147398054599
0.0266477689146995
0.024490438401699
0.0215021725744009
0.0176072251051664
0.0128174740821123
0.0072427308186888
0.0010861458722501
-0.0053778663277626
-0.0118361068889498
-0.0179703570902347
-0.0234887767583131
-0.0281533375382423
-0.0317989401519298
-0.0343407317996025
-0.0357720591127872
-0.0361571758985519
-0.0356198400259017
-0.0343265011906623
-0.0324648208916187
-0.0302250552922487
-0.0277887880802154
-0.0253184400498867
-0.0229436811059713
-0.0207495186477899
-0.0187696553766727
-0.0169874802231788
-0.0153459385037422
-0.0137633047997951
-0.0121503453701734
-0.0104245878756046
-0.0085205994546413
-0.0063983546569943
-0.0040482887998223
-0.0014892891049385
0.0012383991852402
0.0040770345367491
0.0069506037980318
0.0097693670541048
0.0124419536441564
0.0148882716894149
0.017050689086318
0.0188997201621532
0.0204313490539789
0.0216605588793754
0.0226154141128063
0.0233321487903594
0.0238502398133277
0.0242087859660387
0.0244472529739141
0.0246076751500368
0.0247337613254785
0.0248650573194026
0.0250251777470111
0.025210129097104
0.0253859739750623
0.025494173169136
0.0254514664411544
0.0251400768756866
0.0244030822068452
0.0230572894215583
0.0209215655922889
0.017852334305644
0.0137775931507349
0.0087221749126911
0.0028174053877592
-0.0037067895755171
-0.0105430381372571
-0.0173414200544357
-0.0237561650574207
-0.0294873006641864
-0.0343043655157089
-0.0380551181733608
-0.0406657457351684
-0.0421365238726139
-0.0425346456468105
-0.0419840142130851
-0.0406514033675193
-0.0387294739484787
-0.0364173054695129
-0.0339000560343265
-0.0313320122659206
-0.0288232304155826
-0.0264289248734712
-0.0241511352360248
-0.0219571534544229
-0.019799530506134
-0.0176270380616188
-0.0153912398964166
-0.0130518041551113
-0.010581761598587
-0.0079733487218618
-0.0052400468848645
-0.0024122158065438
0.0004703230224549
0.0033630360849201
0.0062185260467231
0.0089901266619563
0.0116369174793362
0.0141277872025966
0.016441810876131
0.0185616798698902
0.0204675551503896
0.0221405662596225
0.0235710740089416
0.0247621741145849
0.0257273316383361
0.0264877937734127
0.0270714052021503
0.0275098402053117
0.0278351418673992
0.028077907860279
0.0282656289637088
0.0284189730882644
0.0285475589334964
0.028647581115365
0.0286975465714931
0.0286466851830482
0.0284003224223852
0.0278134830296039
0.026700735092163
0.0248617883771657
0.0221170410513877
0.0183467976748943
0.013525198213756
0.0077380035072565
0.0011795526370406
-0.0058667911216616
-0.0130595620721578
-0.0200377460569143
-0.0264581777155399
-0.0320253670215606
-0.0365166366100311
-0.0398016199469566
-0.0418490506708622
-0.0427186377346515
-0.0425413623452186
-0.0414948686957359
-0.0397814773023128
-0.0376102738082408
-0.035180814564228
-0.0326667688786983
-0.030200183391571
-0.0278619583696126
-0.0256823971867561
-0.0236472878605127
-0.0217053219676017
-0.0197770670056343
-0.0177695602178573
-0.0155987292528152
-0.0132091669365763
-0.0105818202719092
-0.0077325352467596
-0.0047052819281816
-0.0015635802410542
0.0016169203445315
0.0047572376206517
0.0077854008413851
0.0106432028114795
0.0132881682366132
0.0156932510435581
0.0178455803543329
0.0197467878460884
0.021416014060378
0.0228884071111679
0.024202698841691
0.0253862850368022
0.0264496430754661
0.027390107512474
0.0281983725726604
0.0288645606487989
0.029384072870016
0.0297603197395801
0.0300019346177577
0.0301181636750698
0.0301160290837287
0.029998930171132
0.0297630820423364
0.0293882228434085
0.0288240630179643
0.0279761552810668
0.0266987178474664
0.0248072929680347
0.0221135206520557
0.0184692367911338
0.0138061437755823
0.0081635387614369
0.0016996609047055
-0.0053183520212769
-0.0125473830848932
-0.0196149758994579
-0.0261647924780845
-0.0318921767175197
-0.0365675389766693
-0.0400458052754402
-0.0422657057642936
-0.0432481802999973
-0.043093454092741
-0.0419685468077659
-0.040085881948471
-0.0376786328852176
-0.0349757485091686
-0.0321791991591453
-0.0294462572783231
-0.0268788747489452
-0.024520544335246
-0.022360473871231
-0.0203457828611135
-0.0183982364833354
-0.0164296850562095
-0.0143543360754847
-0.0120986029505729
-0.0096124038100242
-0.0068823071196675
-0.0039366884157061
-0.0008378783240914
0.0023321805056184
0.0054854303598403
0.008538014255464
0.0114185437560081
0.0140735516324639
0.0164691731333732
0.0185911450535058
0.0204429477453231
0.0220404602587223
0.0234060753136873
0.0245678052306175
0.0255621466785669
0.0264296997338533
0.0272009298205375
0.0278864651918411
0.0284796506166458
0.0289647877216339
0.029326319694519
0.0295569524168968
0.0296604949980974
0.0296481978148221
0.0295315906405448
0.0293128807097673
0.0289706829935312
0.0284436512738466
0.0276210103183984
0.0263485349714756
0.0244507994502782
0.0217607319355011
0.018150471150875
0.0135646387934684
0.0080486917868256
0.001759068109095
-0.0050480691716074
-0.0120452595874667
-0.018874229863286
-0.0251886826008558
-0.0306904315948486
-0.0351565480232238
-0.0384533479809761
-0.040535133332014
-0.0414352528750896
-0.041254136711359
-0.0401441492140293
-0.0382956601679325
-0.0359254628419876
-0.0332597345113754
-0.0305087771266698
-0.0278421211987733
-0.0253717936575412
-0.0231466591358184
-0.0211584791541099
-0.019354173913598
-0.0176495816558599
-0.0159467794001102
-0.0141526069492101
-0.0121916523203253
-0.0100143328309059
-0.0076018976978957
-0.004965266212821
-0.0021414076909422
0.0008075879886746
0.0037985891103744
0.0067386655136942
0.0095387082546949
0.0121249593794345
0.0144467270001769
0.0164792258292436
0.0182221140712499
0.019695634022355
0.0209349431097507
0.0219838395714759
0.0228891298174858
0.0236943922936916
0.0244356095790863
0.0251416452229022
0.025831650942564
0.0265056751668453
0.027140399441123
0.0276958663016557
0.0281268693506717
0.0283934157341718
0.028465511277318
0.0283185131847858
0.0279204845428466
0.0272160563617944
0.0261129848659038
0.0244811438024044
0.0221710689365863
0.019046027213335
0.0150174628943204
0.0100787356495857
0.0043264953419566
-0.0020419955253601
-0.0087521569803357
-0.0154855977743864
-0.021918024867773
-0.027755532413721
-0.0327610895037651
-0.0367687195539474
-0.0396886691451072
-0.0415052250027656
-0.0422683022916317
-0.0420833453536033
-0.0411019884049892
-0.0395089015364646
-0.0375004559755325
-0.0352600291371345
-0.0329411514103412
-0.0306617096066474
-0.0284999553114175
-0.0264881029725074
-0.0246114358305931
-0.0228163041174411
-0.0210229661315679
-0.0191427208483219
-0.0170981120318174
-0.0148384207859635
-0.0123456250876188
-0.0096330773085355
-0.0067392727360129
-0.0037196511402726
-0.0006391862407326
0.0024356644134968
0.0054433410987257
0.0083267549052834
0.0110311610624194
0.0135087724775075
0.0157266296446323
0.0176695883274078
0.0193392764776945
0.0207526460289955
0.0219391211867332
0.0229361299425363
0.0237841363996267
0.024520318955183
0.0251726135611534
0.0257576219737529
0.0262787118554115
0.0267168767750263
0.0270135067403316
0.027054063975811
0.026667907834053
0.0256522018462419
0.0238120984286069
0.0210043378174304
0.0171741973608732
0.0123775852844119
0.0067840162664651
0.0006601257482543
-0.0056637939997017
-0.0118359513580799
-0.0175238121300935
-0.0224483665078878
-0.0264059267938137
-0.0292720030993223
-0.0309982784092426
-0.0316157862544059
-0.0312339626252651
-0.0300234910100698
-0.0281896274536848
-0.0259451176971197
-0.0234862081706523
-0.0209751464426517
-0.0185304544866085
-0.0162234231829643
-0.0140793193131685
-0.0120837418362498
-0.0101933609694242
-0.0083457278087735
-0.0064659621566534
-0.0044759977608919
-0.0023109531030058
6.215926259756088e-05
0.0026348643004894
0.0053621400147676
0.0081749875098466
0.0109928473830223
0.013735800050199
0.0163363311439752
0.0187467951327562
0.0209418069571256
0.0229152664542198
0.0246725752949714
0.0262242741882801
0.0275840274989604
0.028767604380846
0.0297918189316988
0.0306712351739406
0.031411062926054
0.0320045053958892
0.0324390232563018
0.0327048376202583
0.0328008309006691
0.0327367670834064
0.0325290560722351
0.0321875102818012
0.0316957309842109
0.0309927556663751
0.0299645625054836
0.0284525025635957
0.0262786038219928
0.0232811719179153
0.0193534828722476
0.0144749479368329
0.008726442232728
0.0022895475849509
-0.0045702680945396
-0.0115348193794488
-0.0182720683515071
-0.0244741514325141
-0.0298861246556043
-0.0343221276998519
-0.0376713052392005
-0.0398975014686584
-0.0410344637930393
-0.0411754250526428
-0.0404589064419269
-0.0390521883964538
-0.0371311642229557
-0.0348632037639617
-0.0323998220264911
-0.0298719331622123
-0.0273814518004655
-0.0249947067350149
-0.0227415971457958
-0.0206170938909053
-0.0185844488441944
-0.0165835246443748
-0.0145435128360986
-0.0123961186036467
-0.0100865568965673
-0.0075817410834133
-0.0048761521466076
-0.0019933208823204
0.001018526032567
0.0040921214967966
0.0071456683799624
0.0100900214165449
0.0128401955589652
0.0153285469859838
0.017514256760478
0.0193842183798551
0.0209479890763759
0.0222322195768356
0.023274527862668
0.0241171456873416
0.0248019509017467
0.025364750996232
0.0258301589637994
0.0262129660695791
0.0265242867171764
0.0267728473991155
0.0269592478871345
0.0270725917071104
0.0270952619612216
0.0270108077675104
0.0268086530268192
0.0264826379716396
0.0260233916342258
0.0254052691161632
0.0245689004659652
0.0234082154929637
0.0217742156237363
0.0194949246942996
0.0164047069847583
0.0123818004503846
0.0073868669569492
0.0014866180717945
-0.0051459176465868
-0.0122503582388162
-0.0195094887167215
-0.0265864860266447
-0.0331634916365146
-0.0389735847711563
-0.0438194200396537
-0.0475767478346824
-0.0501897297799587
-0.0516668297350406
-0.0520760416984558
-0.0515346899628639
-0.0501953512430191
-0.0482299104332923
-0.0458120554685592
-0.0431036613881588
-0.0402483940124511
-0.0373649522662162
-0.0345353856682777
-0.0317974761128425
-0.0291480384767055
-0.02655297704041
-0.0239584241062402
-0.0213022213429212
-0.0185261946171522
-0.0155875105410814
-0.0124675948172807
-0.0091763846576213
-0.005749296862632
-0.0022378708235919
0.0013017137534916
0.0048138187266886
0.0082393875345587
0.0115140955895185
0.0145763540640473
0.0173785146325826
0.0198929198086261
0.0221124961972236
0.0240479484200477
0.0257222522050142
0.0271658562123775
0.0284137539565563
0.0295015778392553
0.0304608270525932
0.0313140451908111
0.032071866095066
0.0327365808188915
0.033307708799839
0.0337810963392257
0.0341460295021534
0.0343882776796817
0.0344964601099491
0.0344647541642189
0.034290675073862
0.0339691862463951
0.0334827341139316
0.0327886380255222
0.0318079181015491
0.0304222609847784
0.0284835882484912
0.0258350372314453
0.0223438423126935
0.0179408565163612
0.0126485181972384
0.0065864473581314
-3.941729664802551e-05
-0.0069573032669723
-0.013859243132174
-0.0204369276762008
-0.0264140032231807
-0.0315686389803886
-0.0357471108436584
-0.0388680174946785
-0.0409170724451541
-0.041937880218029
-0.0420234054327011
-0.0413055792450904
-0.0399402938783168
-0.0380900092422962
-0.0359089188277721
-0.0335344523191452
-0.0310826823115348
-0.0286421030759811
-0.0262654647231102
-0.0239664018154144
-0.0217260830104351
-0.0195051319897174
-0.0172544158995151
-0.0149240028113126
-0.0124715454876422
-0.0098705366253852
-0.0071162260137498
-0.0042274738661944
-0.001243335660547
0.0017874250188469
0.0048158103600144
0.0077924840152263
0.0106661720201373
0.013387581333518
0.0159145221114158
0.0182157028466463
0.0202726200222969
0.0220787972211837
0.0236391089856624
0.0249698683619499
0.026095975190401
0.0270455926656723
0.0278458539396524
0.0285188984125852
0.0290790051221847
0.0295327715575695
0.0298787802457809
0.0301059149205684
0.0301955938339233
0.0301276426762342
0.0298861674964427
0.0294649340212345
0.0288690067827701
0.0281096473336219
0.0271955002099275
0.0261217206716537
0.0248567163944244
0.0233305059373378
0.0214307252317667
0.0190122239291667
0.0159236509352922
0.0120444064959883
0.0073169060051441
0.0017649177461862
-0.0044992193579673
-0.011276644654572
-0.0182982198894023
-0.025253988802433
-0.0318276807665824
-0.0377314873039722
-0.0427350886166095
-0.0466806590557098
-0.049486257135868
-0.0511445924639701
-0.0517170839011669
-0.051320943981409
-0.0501100867986679
-0.0482547245919704
-0.0459267273545265
-0.0432913750410079
-0.0404982678592205
-0.0376676581799984
-0.0348776467144489
-0.0321595259010791
-0.029502511024475
-0.0268634278327226
-0.0241792742162942
-0.0213842522352933
-0.0184274446219205
-0.0152839049696922
-0.0119574293494224
-0.0084770889952778
-0.0048899874091148
-0.0012534335255622
0.0023698657751083
0.0059137642383575
0.0093121714890003
0.0125053850933909
0.0154467681422829
0.0181078109890222
0.0204803720116615
0.0225750673562288
0.0244156587868928
0.0260314792394638
0.0274512469768524
0.0287007018923759
0.0298038106411695
0.0307826586067676
0.0316539295017719
0.0324281677603721
0.0331104770302772
0.0336957015097141
0.0341651737689971
0.0344927422702312
0.0346548445522785
0.0346376821398735
0.0344378352165222
0.0340579636394977
0.0335022062063217
0.0327685549855232
0.0318350605666637
0.0306455753743648
0.0291021130979061
0.0270682703703641
0.0243901070207357
0.0209332443773746
0.0166190098971128
0.0114471036940813
0.0055079832673072
-0.001014887355268
-0.007859855890274
-0.0147178936749696
-0.0212687086313962
-0.0272132381796836
-0.0323001854121685
-0.036344401538372
-0.0392355136573314
-0.0409395508468151
-0.0414953678846359
-0.0410062186419963
-0.0396266765892505
-0.0375444665551185
-0.0349617823958396
-0.0320814214646816
-0.0290950611233711
-0.0261684004217386
-0.0234231483191251
-0.0209240615367889
-0.0186793822795152
-0.016652038320899
-0.0147734666243195
-0.0129567328840494
-0.0111110294237732
-0.0091576939448714
-0.0070431008934974
-0.0047464426606893
-0.0022814073599874
0.0003121993504464
0.0029808240942656
0.0056611783802509
0.0082799056544899
0.0107610439881682
0.0130386184900999
0.0150642376393079
0.0168093796819448
0.0182679668068885
0.0194573923945426
0.0204117931425571
0.0211708024144172
0.0217730365693569
0.0222550965845584
0.0226503368467092
0.0229871142655611
0.0232885051518678
0.023569380864501
0.0238294191658496
0.0240516327321529
0.0242108572274446
0.0242826025933027
0.0242466479539871
0.0240891240537166
0.0238045807927846
0.0233955383300781
0.0228667836636304
0.0222123302519321
0.0213974341750144
0.0203441940248012
0.0189290046691894
0.0169975236058235
0.0143956067040562
0.0110035818070173
0.006764106452465
0.0017025992274284
-0.0040619755163788
-0.0103202424943447
-0.0167929325252771
-0.0231659449636936
-0.0291280187666416
-0.0344030931591987
-0.038775511085987
-0.0421045906841754
-0.0443292669951915
-0.0454658269882202
-0.0455979742109775
-0.0448592007160186
-0.0434109419584274
-0.0414256118237972
-0.0390790551900863
-0.0365426279604435
-0.0339675471186637
-0.0314676128327846
-0.029108565300703
-0.0269073322415351
-0.0248391889035701
-0.0228493940085172
-0.0208660364151
-0.0188114736229181
-0.0166146904230117
-0.0142259430140256
-0.0116264391690492
-0.0088271778076887
-0.0058612986467778
-0.0027787070721387
0.0003554355353116
0.0034660790115594
0.0064788269810378
0.0093282768502831
0.0119627807289361
0.0143481204286217
0.0164680890738964
0.0183222368359565
0.0199248362332582
0.0213038083165884
0.0224957428872585
0.0235394723713397
0.024472014978528
0.0253257118165493
0.0261261500418186
0.0268903411924839
0.0276222638785839
0.0283083952963352
0.028916910290718
0.0293977744877338
0.0296806842088699
0.0296705309301614
0.0292441435158252
0.0282564926892519
0.0265594497323036
0.0240288022905588
0.0205945372581481
0.0162671282887458
0.0111508583649992
0.0054412786848843
-0.0005926155135966
-0.0066415923647582
-0.0123978806659579
-0.0175924580544233
-0.0220196563750505
-0.0255461540073156
-0.0281063616275787
-0.0296932477504014
-0.0303517077118158
-0.0301723796874284
-0.0292828325182199
-0.0278360582888126
-0.0259948354214429
-0.0239142216742038
-0.0217283684760332
-0.0195418689399957
-0.0174226313829422
-0.0153982769697904
-0.0134614231064915
-0.0115827247500419
-0.0097221639007329
-0.0078340666368603
-0.0058727785944938
-0.0038025835528969
-0.0016035912558436
0.0007287971675395
0.0031830742955207
0.0057296161539852
0.0083229783922433
0.0109075689688324
0.013423160649836
0.0158116053789854
0.0180263761430978
0.0200368985533714
0.0218231193721294
0.023370936512947
0.0246736705303192
0.0257338248193264
0.0265637747943401
0.0271856226027011
0.0276289172470569
0.0279278457164764
0.0281179174780845
0.0282302238047122
0.0282858852297067
0.0282953102141618
0.0282622724771499
0.028188457712531
0.0280744507908821
0.0279149003326892
0.0276859384030103
0.0273279771208763
0.0267335008829832
0.025748461484909
0.0241898298263549
0.0218753200024366
0.0186586119234561
0.0144642619416117
0.0093139884993433
0.0033356137573719
-0.0032466351985931
-0.0101360622793436
-0.016998067498207
-0.0234989561140537
-0.0293394364416599
-0.0342812277376651
-0.0381687730550766
-0.0409386754035949
-0.0426113605499267
-0.043272491544485
-0.0430535823106765
-0.0421152114868164
-0.0406307689845562
-0.0387692004442215
-0.0366811379790306
-0.0344911552965641
-0.0322919748723506
-0.0301390048116445
-0.0280496813356876
-0.0260079875588417
-0.0239701680839061
-0.021875275298953
-0.0196645185351371
-0.0172992683947086
-0.0147669939324259
-0.0120777375996112
-0.0092584388330578
-0.0063480492681264
-0.003392654005438
-0.0004408634267747
0.0024586112704128
0.0052583692595362
0.0079151997342705
0.0103935431689023
0.0126687996089458
0.0147312581539154
0.0165881682187318
0.0182587746530771
0.0197626929730176
0.0211106706410646
0.0223049186170101
0.0233459621667861
0.0242373030632734
0.0249841101467609
0.0255913622677326
0.0260663162916898
0.0264204014092683
0.0266661755740642
0.0268144216388463
0.0268738716840744
0.0268488191068172
0.026733960956335
0.0265069659799337
0.0261134952306747
0.0254490636289119
0.0243561659008264
0.0226452089846134
0.0201331209391355
0.0166901014745235
0.0122792124748229
0.0069755027070641
0.0009638145565986
-0.005481936968863
-0.0120354862883687
-0.0183615330606699
-0.0241530556231737
-0.0291575994342565
-0.0331935882568359
-0.0361566767096519
-0.0380187816917896
-0.0388242378830909
-0.0386815294623374
-0.0377475842833519
-0.036206517368555
-0.0342473872005939
-0.032044917345047
-0.0297457948327064
-0.0274615138769149
-0.0252652484923601
-0.0231901127845048
-0.0212305709719657
-0.0193496365100145
-0.0174917131662368
-0.0155958393588662
-0.0136031499132514
-0.011464100331068
-0.0091520622372627
-0.0066723697818815
-0.0040588653646409
-0.0013659358955919
0.001339775044471
0.0039895037189126
0.0065230391919612
0.0088970130309462
0.0110873663797974
0.0130854407325387
0.0148921823129057
0.016515152528882
0.0179678350687026
0.0192690379917621
0.0204429794102907
0.0215158760547637
0.0225053001195192
0.0234125107526779
0.0242267530411481
0.0249349121004343
0.0255272034555673
0.0259976293891668
0.0263443458825349
0.0265729092061519
0.0266969371587038
0.0267322808504104
0.0266864653676748
0.026544677093625
0.0262553449720144
0.0257221236824989
0.0248077549040317
0.0233489852398633
0.0211801473051309
0.018165323883295
0.014233173802495
0.0094032399356365
0.0037974305450916
-0.0023653898388147
-0.0087931957095861
-0.0151589410379529
-0.0211429670453071
-0.0264704748988151
-0.030936624854803
-0.0344155244529247
-0.036856397986412
-0.0382716730237007
-0.0387230589985847
-0.0383137390017509
-0.037185363471508
-0.0355088599026203
-0.0334662348031997
-0.0312302000820636
-0.0289453621953725
-0.0267144124954938
-0.0245954822748899
-0.0226058382540941
-0.0207245927304029
-0.01890011690557
-0.0170642621815204
-0.0151473758742213
-0.0130924526602029
-0.0108650885522365
-0.0084538385272026
-0.0058673089370131
-0.0031368630006909
-0.0003184927627444
0.002514574676752
0.005284653045237
0.0079221054911613
0.0103744575753808
0.0126081109046936
0.0146060856059193
0.0163692496716976
0.0179177951067686
0.0192850623279809
0.0205053072422742
0.0216055139899253
0.0226076766848564
0.02353360876441
0.0243998505175113
0.025207569822669
0.0259422995150089
0.0265834368765354
0.0271134637296199
0.0275228694081306
0.0278103556483984
0.0279785096645355
0.0280261952430009
0.0279373452067375
0.0276670381426811
0.027130564674735
0.0262022372335195
0.0247271005064249
0.0225470624864101
0.0195388793945312
0.0156486146152019
0.0109081231057643
0.0054373224265873
-0.0005613532848656
-0.0068207755684852
-0.013040592893958
-0.0189233403652906
-0.0242052171379327
-0.0286775436252355
-0.032199203968048
-0.0347001291811466
-0.0361766517162323
-0.036682691425085
-0.0363196060061454
-0.0352229811251163
-0.033546295017004
-0.0314483158290386
-0.0290861651301383
-0.0266052521765232
-0.0241245608776807
-0.0217257142066955
-0.019449071958661
-0.0172957647591829
-0.0152350962162017
-0.0132153527811169
-0.0111771505326032
-0.0090673817321658
-0.0068496125750243
-0.0045099933631718
-0.0020588589832186
0.0004733270034193
0.0030457540415227
0.0056158080697059
0.0081400200724601
0.0105737382546067
0.012874724343419
0.0150057766586542
0.0169351585209369
0.018639400601387
0.0201077423989772
0.0213434286415576
0.0223611593246459
0.0231830701231956
0.0238352455198764
0.0243449471890926
0.0247380286455154
0.0250383652746677
0.0252694897353649
0.0254531968384981
0.0256027486175298
0.0257176719605922
0.0257850475609302
0.0257837343961
0.0256871804594993
0.0254618227481842
0.0250591356307268
0.0244038738310337
0.0233863163739442
0.0218675397336483
0.0197001472115516
0.0167585629969835
0.0129707297310233
0.008344454690814
0.0029818201437592
-0.0029258411377668
-0.0091220503672957
-0.0153175313025712
-0.0212219767272472
-0.026572436094284
-0.0311557706445455
-0.0348223075270652
-0.0374904349446296
-0.0391457304358482
-0.0398368872702121
-0.0396665036678314
-0.0387762114405632
-0.0373289585113525
-0.0354920700192451
-0.0334217734634876
-0.0312481243163347
-0.029065566137433
-0.0269338600337505
-0.0248830337077379
-0.0229159649461507
-0.0210109576582908
-0.0191276613622903
-0.0172162372618913
-0.015227984637022
-0.0131239714100956
-0.0108802998438477
-0.008492449298501
-0.0059766834601759
-0.0033652400597929
-0.0007000057958066
0.0019731542561203
0.0046117240563035
0.0071787517517805
0.0096361087635159
0.0119407214224338
0.0140506979078054
0.0159338116645813
0.0175722055137157
0.018963798880577
0.0201210714876651
0.0210671015083789
0.0218306239694356
0.0224416851997375
0.0229273159056901
0.0233086161315441
0.0236020870506763
0.0238243285566568
0.0239949189126491
0.0241321418434381
0.0242437236011028
0.0243208482861518
0.0243364404886961
0.0242416057735681
0.0239575468003749
0.0233685467392206
0.0223268754780292
0.0206728838384151
0.0182632133364677
