bvp
-0.0184298288077116
-0.0170943662524223
-0.0157113894820213
-0.0142750535160303
-0.0127705447375774
-0.011177415959537
-0.0094797173514962
-0.0076753674075007
-0.0057763708755373
-0.00380405690521
-0.0017855772748589
0.000247779302299
0.0022612325847148
0.0042170621454715
0.0060761314816772
0.0078002284280955
0.009354704990983
0.0107117239385843
0.0118535598739981
0.0127750914543867
0.0134860286489129
0.0140090165659785
0.014370284974575
0.014591297134757
0.0146890245378017
0.0146809220314025
0.014589749276638
0.0144473258405923
0.0142952837049961
0.0141802541911602
0.0141442120075225
0.0142127852886915
0.0143840759992599
0.0146211013197898
0.0148517731577157
0.0149794518947601
0.0149010382592678
0.0145212970674037
0.0137591902166605
0.0125576071441173
0.010900679975748
0.008826176635921
0.0064251767471432
0.0038329465314745
0.0012148189125582
-0.0012513829860836
-0.0033915769308805
-0.0050471979193389
-0.0060866051353514
-0.006420140620321
-0.0060174241662025
-0.0049216579645872
-0.0032545446883887
-0.0012089787051081
0.0009706348646432
0.0030179936438798
0.0046759340912103
0.0057238615117967
0.0060054268687963
0.0054583395831286
0.0041367467492818
0.002211109502241
-5.737016908824444e-05
-0.0023575373925268
-0.0043718921951949
-0.0058119446039199
-0.006441131234169
-0.0060871536843478
-0.0046461704187095
-0.002086560241878
0.0015415942762047
0.0060968440957367
0.0113445483148098
0.0169662218540906
0.0225823856890201
0.0277895256876945
0.0322047732770442
0.0355082973837852
0.0374768190085887
0.0380024015903472
0.0370930656790733
0.0348611325025558
0.0315054915845394
0.0272874496877193
0.0225021261721849
0.0174465402960777
0.0123849157243967
0.0075219441205263
0.0029933098703622
-0.0011311955749988
-0.0048380624502897
-0.0081553254276514
-0.0111366296187043
-0.0138473315164446
-0.0163519494235515
-0.0187040865421295
-0.0209400542080402
-0.0230758711695671
-0.025108253583312
-0.027018828317523
-0.0287780053913593
-0.0303516145795583
-0.0317162536084651
-0.032873012125492
-0.0338455811142921
-0.0346663258969783
-0.0353630259633064
-0.0359534323215484
-0.0364438146352767
-0.036825492978096
-0.0370719507336616
-0.0371422655880451
-0.0369913205504417
-0.0365821868181228
-0.0358934849500656
-0.0349181182682514
-0.0336577333509922
-0.032121043652296
-0.0303293634206056
-0.0283215604722499
-0.0261500030755996
-0.0238694511353969
-0.021526750177145
-0.0191573500633239
-0.0167878475040197
-0.014440918341279
-0.012140903621912
-0.0099179809913039
-0.0078111412003636
-0.0058726002462208
-0.0041705425828695
-0.0027832542546093
-0.0017852047458291
-0.0012353390920907
-0.0011730208061635
-0.0016137175261974
-0.002539234701544
-0.0038892026059329
-0.0055604097433388
-0.0074149249121546
-0.0092954710125923
-0.011043949984014
-0.0125176068395376
-0.013600580394268
-0.01421311032027
-0.014318311586976
-0.0139215905219316
-0.0130612961947917
-0.0117956176400184
-0.0101942848414182
-0.0083391517400741
-0.0063248071819543
-0.0042484998703002
-0.0021928902715444
-0.0002132710069417
0.001665610820055
0.0034457277506589
0.0051492173224687
0.0068113151937723
0.0084727350622415
0.010170355439186
0.0119283962994813
0.0137558039277791
0.0156500879675149
0.0176019333302974
0.0195954721421003
0.0216033570468425
0.0235837288200855
0.0254865363240242
0.0272650141268968
0.0288827866315841
0.0303155835717916
0.031551718711853
0.0325921922922134
0.0334497801959514
0.0341464169323444
0.0347072668373584
0.0351507440209388
0.0354782082140445
0.0356701798737049
0.0356905311346054
0.0354913920164108
0.0350154936313629
0.034202866256237
0.0330053344368934
0.0314026437699794
0.0294119957834482
0.0270878802984952
0.0245158169418573
0.0218026675283908
0.0190636366605758
0.0164097063243389
0.013939045369625
0.011731257662177
0.0098429070785641
0.0083064772188663
0.0071331402286887
0.0063129728659987
0.0058110393583774
0.0055671716108918
0.0055030202493071
0.0055337399244308
0.0055827545002102
0.0055946251377463
0.0055395732633769
0.0054118577390909
0.005226522218436
0.0050142705440521
0.0048148659989237
0.0046697235666215
0.0046135736629366
0.0046699335798621
0.0048534180968999
0.0051697753369808
0.0056076785549521
0.006133365444839
0.0066968644969165
0.0072437594644725
0.0077241733670234
0.0080972984433174
0.0083347605541348
0.0084249507635831
0.0083766998723149
0.008218646980822
0.0079919453710317
0.0077394624240696
0.0074975034222006
0.0072931302711367
0.007144646719098
0.0070581594482064
0.0070189489051699
0.0069851530715823
0.0068876883015036
0.0066371243447065
0.0061376197263598
0.0053028846159577
0.0040699178352952
0.0024093864485621
0.0003312323242425
-0.0021136663854122
-0.0048364717513322
-0.0077206753194332
-0.0106371641159057
-0.0134582538157701
-0.0160663053393363
-0.0183601677417755
-0.0202662535011768
-0.0217485185712575
-0.0228083413094282
-0.0234777648001909
-0.0238112919032573
-0.0238755904138088
-0.0237391032278537
-0.0234655011445283
-0.0231100302189588
-0.0227158516645431
-0.0223104059696197
-0.0219037737697362
-0.0214893296360969
-0.0210452582687139
-0.020537132397294
-0.0199254900217056
-0.0191801786422729
-0.0182926468551158
-0.0172766651958227
-0.0161613393574953
-0.0149845667183399
-0.013786993920803
-0.0126058533787727
-0.0114713553339242
-0.0104041965678334
-0.0094131929799914
-0.0084961429238319
-0.0076434020884335
-0.0068408381193876
-0.0060710171237587
-0.0053138774819672
-0.0045507438480854
-0.0037720408290624
-0.0029816050082445
-0.0021936828270554
-0.0014265403151512
-0.0006966451182961
-1.5893951058387756e-05
0.0006054872646927
0.0011516856029629
0.0015950556844472
0.0018941098824143
0.0019964417442679
0.0018474990501999
0.0014026574790477
0.0006384244188666
-0.0004385756328701
-0.0017891814932227
-0.0033492501825094
-0.0050404616631567
-0.0067774802446365
-0.0084722340106964
-0.0100375451147556
-0.0113918296992778
-0.0124664008617401
-0.0132138673216104
-0.0136146750301122
-0.0136791840195655
-0.013443948701024
-0.0129639916121959
-0.0123024880886077
-0.011518346145749
-0.0106566864997148
-0.0097497850656509
-0.0088254353031516
-0.0079097617417573
-0.0070221843197941
-0.0061705103144049
-0.0053494567982852
-0.004541543778032
-0.0037195165641605
-0.0028520317282527
-0.0019132017623633
-0.0008894673082977
0.0002196657005697
0.0014021713286638
0.0026353124994784
0.0038920994848012
0.0051486017182469
0.0063851326704025
0.007580678910017
0.008708625100553
0.0097400462254881
0.0106518678367137
0.0114335045218467
0.0120884012430906
0.0126324724406003
0.0130911450833082
0.0134939644485712
0.0138683542609214
0.0142349787056446
0.0146045619621872
0.0149756334722042
0.0153357200324535
0.0156654696911573
0.0159373190253973
0.0161072611808776
0.0161114856600761
0.0158760659396648
0.0153344860300421
0.0144425565376877
0.0131863895803689
0.0115866521373391
0.0096996799111366
0.0076119527220726
0.0054289987310767
0.0032623291481286
0.0012174835428595
-0.0006145404186099
-0.0021631252020597
-0.0033808490261435
-0.0042452979832887
-0.0047641359269618
-0.0049776365049183
-0.0049510579556226
-0.0047606150619685
-0.0044796233996748
-0.0041682161390781
-0.0038689451757818
-0.0036060835700482
-0.0033846762962639
-0.0031914063729345
-0.0029995860531926
-0.0027759824879467
-0.0024893081281334
-0.0021171204280108
-0.0016439238097518
-0.0010581768583506
-0.0003589473199099
0.0004370436072349
0.0012977211736142
0.0021837728563696
0.0030582440085709
0.0038940093945711
0.004675184842199
0.0053936848416924
0.0060454364866018
0.0066292835399508
0.0071482541970908
0.0076091852970421
0.008019202388823
0.0083837509155273
0.0087083522230386
0.0089989341795444
0.0092584770172834
0.0094855185598135
0.0096770692616701
0.0098308725282549
0.009942072443664
0.0099962996318936
0.0099656740203499
0.0098098814487457
0.00947942212224
0.0089205559343099
0.0080835251137614
0.0069323689676821
0.0054546138271689
0.0036715753376483
0.001645618584007
-0.0005255979485809
-0.0027292815502732
-0.0048572546802461
-0.006814669817686
-0.0085233626887202
-0.0099262157455086
-0.0109901316463947
-0.0117051200941205
-0.0120824612677097
-0.0121544282883405
-0.0119724795222282
-0.0116006471216678
-0.0111058773472905
-0.0105491578578948
-0.0099794287234544
-0.0094306766986846
-0.0089233964681625
-0.0084694335237145
-0.0080749411135911
-0.0077390149235725
-0.0074504185467958
-0.0071867331862449
-0.0069183656014502
-0.0066140382550656
-0.0062451371923089
-0.0057896040380001
-0.0052342610433697
-0.0045763193629682
-0.0038251499645411
-0.0029998123645782
-0.0021212347783148
-0.0012058392167091
-0.0002666376531124
0.0006798664107918
0.0016101296059787
0.002497520763427
0.0033180341124534
0.0040532620623707
0.004691663198173
0.0052297860383987
0.0056714131496846
0.0060214488767087
0.0062775695696473
0.0064262216910719
0.0064432118088006
0.0062955524772405
0.0059466292150318
0.0053661684505641
0.00453736865893
0.0034569688141345
0.002136128488928
0.0006055533885955
-0.0010813933331519
-0.0028510391712188
-0.0046159857884049
-0.0062833726406097
-0.0077633541077375
-0.008977660909295
-0.0098665785044431
-0.0103940414264798
-0.0105514917522668
-0.0103591661900281
-0.0098625514656305
-0.0091229826211929
-0.0082098254933953
-0.0071999551728367
-0.0061752698384225
-0.0052126077935099
-0.0043722717091441
-0.0036895947996526
-0.0031717987731099
-0.0028021198231726
-0.0025481793563812
-0.0023691083770245
-0.0022206865251064
-0.0020606929901987
-0.0018532890826463
-0.0015703006647527
-0.0011897070799022
-0.0006941378815099
-7.43282726034522e-05
0.0006638881750404
0.0014975013909861
0.0023916512727737
0.0033078175038099
0.0042110178619623
0.0050743455067276
0.005880918353796
0.0066238450817763
0.0073033985681831
0.0079220589250326
0.0084812976419925
0.0089809112250804
0.0094178896397352
0.0097870863974094
0.0100857112556695
0.0103118019178509
0.0104518244042992
0.010471343062818
0.0103191593661904
0.0099384672939777
0.0092780347913503
0.0083037707954645
0.0070090759545564
0.0054196300916373
0.0035924378316849
0.001611397601664
-0.0004192871274426
-0.0023856190964579
-0.0041806465014815
-0.005719497334212
-0.0069429874420166
-0.007816856727004
-0.0083364928141236
-0.0085310712456703
-0.0084575982764363
-0.0081867026165127
-0.0077871759422123
-0.0073151919059455
-0.0068114893510937
-0.0063045844435691
-0.0058146710507571
-0.0053549567237496
-0.0049327192828059
-0.004551479127258
-0.0042110010981559
-0.0039041601121425
-0.003614877583459
-0.0033232425339519
-0.0030160285532474
-0.0026919855736196
-0.002358179539442
-0.0020221299491822
-0.001684212591499
-0.0013353510294109
-0.0009621528442949
-0.0005534517113119
-0.0001016387250274
0.0003995583392679
0.000955345807597
0.0015679667703807
0.0022362049203366
0.002957165474072
0.0037282982375472
0.0045454590581357
0.0053960504010319
0.0062552420422434
0.0070910542272031
0.0078721828758716
0.0085709700360894
0.0091618280857801
0.0096181435510516
0.0099091548472642
0.0099984891712665
0.0098461676388978
0.0094151403754949
0.0086805392056703
0.0076357168145477
0.0062950602732598
0.0046995584852993
0.0029202175792306
0.0010495583992451
-0.0008150257635861
-0.0025846422649919
-0.0041844905354082
-0.0055554183200001
-0.0066551826894283
-0.0074598561041057
-0.007964632473886
-0.0081825973466038
-0.0081412633880972
-0.0078781200572848
-0.0074362880550324
-0.0068611078895628
-0.0061968294903635
-0.0054828589782118
-0.0047536911442875
-0.0040432205423712
-0.0033867617603391
-0.0028180768713355
-0.0023639099672436
-0.0020378651097416
-0.0018358159577473
-0.0017356995958834
-0.0017027382273226
-0.0016977202612906
-0.0016836274880915
-0.0016287749167531
-0.0015093088150024
-0.0013121224474161
-0.0010345568880438
-0.0006781141273677
-0.0002419566735625
0.0002742097713053
0.0008617101702839
0.0015014102682471
0.0021698307245969
0.0028459744062274
0.0035160714760422
0.004174880683422
0.0048229363746941
0.0054624355398118
0.0060948496684432
0.0067200949415564
0.0073337713256478
0.00792071595788
0.0084505919367074
0.0088803330436348
0.0091571370139718
0.009217276237905
0.0089886868372559
0.0084044281393289
0.007422502618283
0.0060420227237045
0.0043090255931019
0.0023103416897356
0.0001592677144799
-0.0020193641539663
-0.0041015385650098
-0.005974743515253
-0.0075478740036487
-0.0087604979053139
-0.009585466235876
-0.0100224381312727
-0.0100940084084868
-0.0098495511338114
-0.0093639250844717
-0.0087235830724239
-0.008010028861463
-0.007290594279766
-0.0066142752766609
-0.0060086902230978
-0.005480017978698
-0.0050165858119726
-0.0045940903946757
-0.0041821487247943
-0.0037516462616622
-0.0032805544324219
-0.0027555390261113
-0.002168531762436
-0.0015147572848945
-0.000798397231847
-3.917049616575241e-05
0.0007298353593796
0.0014719399623572
0.0021571591496467
0.0027691423892974
0.0033080491703003
0.0037898181471973
0.0042420853860676
0.0046958019956946
0.0051750647835433
0.0056911241263151
0.0062412451952695
0.0068088988773524
0.0073642497882246
0.0078642563894391
0.0082515887916088
0.0084563698619604
0.008406763896346
0.0080460095778107
0.0073463241569697
0.00631461199373
0.0049910750240087
0.0034433670807629
0.0017583805602043
3.2193493098020554e-05
-0.0016413462581112
-0.0031812870875
-0.0045267036184668
-0.0056374529376626
-0.0064908755011856
-0.0070832055062055
-0.0074363434687256
-0.0075994934886693
-0.0076382560655474
-0.0076153790578246
-0.0075757503509521
-0.0075414893217384
-0.0075124315917491
-0.007469127420336
-0.0073788668960332
-0.007203125860542
-0.0069053680635988
-0.0064584561623632
-0.0058478014543652
-0.0050681577995419
-0.0041180201806128
-0.0030004722066223
-0.0017332239076495
-0.0003558029420673
0.0010751392692327
0.0024970055092126
0.0038507289718836
0.0050853351131081
0.006159555632621
0.0070436503738164
0.0077216979116201
0.0081926248967647
0.0084694381803274
0.0085773849859833
0.0085500851273536
0.0084252292290329
0.0082421228289604
0.0080344006419181
0.0078143924474716
0.0075613558292388
0.0072249290533363
0.006740802899003
0.0060501173138618
0.0051172082312405
0.0039406442083418
0.0025537041947245
0.0010174561757594
-0.0005885388236492
-0.002176295267418
-0.0036589768715202
-0.0049589648842811
-0.0060132667422294
-0.0067756851203739
-0.0072211208753287
-0.0073551693931221
-0.0072201108559966
-0.0068894727155566
-0.0064540808089077
-0.0060062753036618
-0.0056266048923134
-0.0053737396374344
-0.0052773626521229
-0.0053354101255536
-0.0055164163932204
-0.0057653649710118
-0.0060115228407084
-0.006179142743349
-0.006199856288731
-0.0060211429372429
-0.0056104534305632
-0.0049591693095862
-0.0040842900052666
-0.003024504519999
-0.0018331962637603
-0.0005708881653845
0.0007036160677671
0.0019417214207351
0.0031104041263461
0.0041948589496314
0.0051969029009342
0.0061273695901036
0.0069986376911401
0.0078232791274786
0.0086162397637963
0.0093957688659429
0.0101775527000427
0.0109616573899984
0.0117240529507398
0.0124189797788858
0.0129844825714826
0.0133465798571705
0.0134248742833733
0.0131413973867893
0.0124321784824132
0.0112594738602638
0.009622722864151
0.0075667453929781
0.0051827616989612
0.0025989606510847
-3.575906157493591e-05
-0.0025693234056234
-0.0048650633543729
-0.0068206563591957
-0.0083780977874994
-0.0095195397734642
-0.0102568455040454
-0.0106215709820389
-0.0106572918593883
-0.010415444150567
-0.009951539337635
-0.0093204900622367
-0.008574666455388
-0.007763594854623
-0.0069317226298153
-0.0061145867221057
-0.0053339265286922
-0.004594865720719
-0.0038916929624974
-0.0032196720130741
-0.0025812215171754
-0.0019830195233225
-0.0014298623427748
-0.0009198761545121
-0.0004440145567059
1.167040318250656e-05
0.0004659858532249
0.0009428285993635
0.0014673080295324
0.0020610608626157
0.0027402080595493
0.0035130134783685
0.0043779416009783
0.0053260838612914
0.0063436739146709
0.0074099646881222
0.0084951855242252
0.0095634739845991
0.0105791809037327
0.0115122403949499
0.012339262291789
0.0130415018647909
0.0136023061349987
0.0140032544732093
0.0142186880111694
0.0142113231122493
0.0139321386814117
0.0133266076445579
0.0123479636386036
0.0109731815755367
0.009211235679686
0.0071000792086124
0.0047011468559503
0.0020961875561624
-0.0006173115689307
-0.0033331394661217
-0.0059436159208416
-0.0083464877679944
-0.010452477261424
-0.0121927158907055
-0.0135224545374512
-0.0144209936261177
-0.0148910693824291
-0.0149575266987085
-0.014662655070424
-0.0140582136809825
-0.0132001722231507
-0.0121495127677917
-0.0109714092686772
-0.0097289821133017
-0.0084769167006015
-0.0072561292909085
-0.0060895886272192
-0.0049840831197798
-0.0039375564083456
-0.0029456228949129
-0.0020054602064192
-0.0011187578784301
-0.0002929681213572
0.000460348353954
0.0011301302583888
0.0017122161807492
0.0022123684175312
0.0026407663244754
0.0030033416114747
0.0033007017336785
0.0035345833748579
0.0037135197781026
0.0038543106056749
0.0039812652394175
0.0041240495629608
0.0043135713785886
0.0045775598846375
0.0049374448135495
0.0054060663096606
0.0059863766655325
0.0066721192561089
0.0074490848928689
0.0082929469645023
0.0091636255383491
0.0100019890815019
0.0107315462082624
0.0112619157880544
0.0114941820502281
0.0113320853561162
0.0106986239552497
0.0095522366464138
0.0078961253166198
0.0057786279357969
0.0032863263040781
0.0005332804284989
-0.0023502963595092
-0.0052289627492427
-0.0079709570854902
-0.0104572083801031
-0.0125942584127187
-0.0143238911405205
-0.0156220514327287
-0.0164905972778797
-0.01694892719388
-0.0170302297919988
-0.0167812705039978
-0.0162598993629217
-0.0155271477997303
-0.0146384984254837
-0.0136404251679778
-0.0125707788392901
-0.0114595377817749
-0.0103282146155834
-0.0091864932328462
-0.0080329813063144
-0.0068666106089949
-0.0056977015919983
-0.0045477570965886
-0.0034439042210578
-0.0024137524887919
-0.0014792222063988
-0.0006524025229737
6.376125384122133e-05
0.0006740269600413
0.0011902344413101
0.0016299921553581
0.0020145692396909
0.0023666224442422
0.0027111847884953
0.0030789789743721
0.0035027372650802
0.0040059546008706
0.0045968368649482
0.0052719507366418
0.0060212356038391
0.0068311057984828
0.007688570767641
0.0085840942338109
0.00950872246176
0.0104487603530287
0.0113837029784917
0.0122847817838191
0.0131096569821238
0.0137969013303518
0.0142678413540124
0.0144363697618246
0.0142193594947457
0.0135444514453411
0.0123591516166925
0.0106428246945142
0.008417353965342
0.0057510379701852
0.00275449315086
-0.000429596286267
-0.0036410638131201
-0.0067185154184699
-0.0095134135335683
-0.0119007695466279
-0.013788629323244
-0.0151259442791342
-0.0159043557941913
-0.0161521099507808
-0.0159261859953403
-0.0153078027069568
-0.0143953282386064
-0.0132895112037658
-0.0120784100145101
-0.0108302449807524
-0.0095923207700252
-0.0083914222195744
-0.0072360099293291
-0.0061211450956761
-0.0050350739620625
-0.0039667268283665
-0.002912325086072
-0.0018775751814246
-0.0008742220234125
8.594320388510823e-05
0.0009927668143063
0.0018325604032725
0.0025846143253147
0.0032263966277241
0.0037430019583553
0.0041336831636726
0.0044137029908597
0.0046127457171678
0.0047698291018605
0.0049260593950748
0.0051193591207265
0.0053818365558981
0.0057370327413082
0.0061980281025171
0.0067691374570131
0.0074490308761596
0.0082291513681411
0.009085782803595
0.0099758151918649
0.0108455242589116
0.0116428630426526
0.0123196160420775
0.0128271784633398
0.0131143331527709
0.0131265250965952
0.0128076281398534
0.0121084619313478
0.0109992399811744
0.0094786034896969
0.0075775319710373
0.0053609926253557
0.0029267189092934
0.0003944430500268
-0.0021147613879293
-0.0044954353943467
-0.006663167849183
-0.0085535906255245
-0.0101194120943546
-0.0113304080441594
-0.0121783930808305
-0.0126786436885595
-0.0128631778061389
-0.0127737857401371
-0.0124595323577523
-0.0119738774374127
-0.0113682346418499
-0.010684766806662
-0.0099513977766036
-0.0091812219470739
-0.0083786081522703
-0.0075478302314877
-0.0066966358572244
-0.0058344230055809
-0.0049695800989866
-0.0041086529381573
-0.00325637916103
-0.0024151941761374
-0.0015859906561672
-0.0007711935904808
2.326472895219922e-05
0.0007892917492426
0.0015191086567938
0.0022077688481658
0.002856237348169
0.0034714397042989
0.0040604304522275
0.0046240254305303
0.005156188737601
0.0056491224095225
0.0060999332927167
0.0065143853425979
0.0069056837819516
0.0072895316407084
0.0076793730258941
0.0080833919346332
0.0084985047578811
0.0089000845327973
0.0092360228300094
0.0094327703118324
0.0094111347571015
0.0091017661616206
0.0084528066217899
0.0074349986389279
0.0060507482849061
0.0043412428349256
0.0023839173372834
0.0002807886339724
-0.0018561626784503
-0.0039165136404335
-0.0057989503256976
-0.0074189072474837
-0.0087180873379111
-0.0096703078597784
-0.0102794244885444
-0.0105725908651947
-0.0105926450341939
-0.0103916656225919
-0.0100267911329865
-0.0095559023320674
-0.0090303299948573
-0.0084857139736413
-0.0079356161877512
-0.0073725190013647
-0.0067750997841358
-0.0061159119941294
-0.0053677801042795
-0.0045107956975698
-0.0035385007504373
-0.0024606185033917
-0.0013016615994274
-9.530273382551968e-05
0.0011241880711168
0.0023268980439752
0.0034838886931538
0.0045627909712493
0.0055298362858593
0.0063548516482114
0.0070151942782104
0.0074995425529778
0.007811055984348
0.0079667391255497
0.0079917814582586
0.0079126376658678
0.0077542127110064
0.0075404280796647
0.0072922972030937
0.0070225680246949
0.0067306058481335
0.0063969194889068
0.0059781181626021
0.0054105147719383
0.0046252817846834
0.003567581763491
0.0022129511926323
0.0005783836822956
-0.0012754037743434
-0.0032529791351407
-0.0052410112693905
-0.0071258642710745
-0.0088071441277861
-0.0102062849327921
-0.0112711079418659
-0.0119763817638158
-0.0123203014954924
-0.0123231746256351
-0.0120331449434161
-0.0115286698564887
-0.0109076807275414
-0.0102692749351263
-0.0096966009587049
-0.0092442519962787
-0.0089322924613952
-0.0087462058290839
-0.0086411572992801
-0.0085518946871161
-0.0084066428244113
-0.0081385560333728
-0.0076924562454223
-0.0070283855311572
-0.0061210221610963
-0.004959441255778
-0.0035532540641725
-0.0019373507238924
-0.0001667747274041
0.0016939016059041
0.0035796980373561
0.0054309242404997
0.0071970177814364
0.0088386395946145
0.0103272348642349
0.0116441082209348
0.0127808488905429
0.0137390093877911
0.014525705948472
0.0151483826339244
0.0156139936298131
0.0159274283796548
0.0160846896469593
0.0160680096596479
0.0158470422029495
0.0153821948915719
0.0146299609914422
0.0135519551113247
0.0121244397014379
0.0103459591045975
0.0082440124824643
0.0058790859766304
0.0033429590985178
0.0007506116526201
-0.0017728444654494
-0.004105822648853
-0.0061411494389176
-0.0077978624030947
-0.0090339900925755
-0.0098495902493596
-0.0102758342400193
-0.0103605091571807
-0.0101585322991013
-0.0097260810434818
-0.0091165620833635
-0.0083790803328156
-0.0075571415945887
-0.0066872779279947
-0.0058004045858979
-0.004923602566123
-0.0040799467824399
-0.0032865183893591
-0.0025484841316938
-0.0018555126152932
-0.0011897350195795
-0.0005378182977437
0.0001055509783327
0.0007425716612488
0.0013771052472293
0.0020157331600785
0.0026673199608922
0.0033413544297218
0.0040446673519909
0.0047781430184841
0.0055357660166919
0.0063065481372177
0.0070770010352134
0.0078356368467211
0.0085793826729059
0.0093117831274867
0.0100325839594006
0.0107326982542872
0.0113977277651429
0.0120119908824563
0.0125604700297117
0.0130302151665091
0.0134105700999498
0.0136909820139408
0.0138558819890022
0.0138778537511825
0.0137126501649618
0.0132994093000888
0.0125678647309541
0.0114528741687536
0.0099119050428271
0.0079360846430063
0.0055514727719128
0.0028177360072731
-0.0001722779124975
-0.0032970015890896
-0.006417419295758
-0.0093928491696715
-0.0120959170162677
-0.0144224241375923
-0.0162975341081619
-0.01768016256392
-0.0185642354190349
-0.0189759321510791
-0.018968466669321
-0.0186142046004533
-0.0179916340857744
-0.017174158245325
-0.016229473054409
-0.0152231389656662
-0.0142178572714328
-0.0132682919502258
-0.0124132437631487
-0.0116685181856155
-0.0110245374962687
-0.0104503463953733
-0.0099033024162054
-0.0093406373634934
-0.0087272236123681
-0.0080373780801892
-0.0072548878379166
-0.0063730999827384
-0.0053923306986689
-0.0043182745575904
-0.003165136789903
-0.0019576796330511
-0.0007269175257533
0.0004989739973098
0.0017013137694448
0.0028698069509118
0.0039992402307689
0.0050880988128483
0.0061355158686637
0.0071378778666257
0.008088057860732
0.0089757600799202
0.0097887469455599
0.0105168092995882
0.0111568160355091
0.011711717583239
0.0121809802949428
0.0125508261844515
0.0127919288352131
0.0128633379936218
0.0127168502658605
0.0122994286939501
0.0115573173388838
0.0104447603225708
0.0089361974969506
0.0070382980629801
0.0047968844883143
0.0022954735904932
-0.0003531698603183
-0.0030172406695783
-0.0055557154119014
-0.007833145558834
-0.00973966345191
-0.0112044028937816
-0.0121973305940628
-0.0127247059717774
-0.0128216492012143
-0.0125451302155852
-0.0119678387418389
-0.0111705651506781
-0.0102349435910582
-0.0092385867610573
-0.0082510337233543
-0.0073289452120661
-0.0065113822929561
-0.0058150617405772
-0.0052305748686194
-0.0047277258709073
-0.0042710462585091
-0.0038319150917232
-0.0033903347793966
-0.0029306448996067
-0.0024369948077946
-0.0018943529576063
-0.0012934636324644
-0.0006329412572085
8.324487134814262e-05
0.0008507412858307
0.0016690930351614
0.0025424677878618
0.0034765829332172
0.0044754021801054
0.0055410987697541
0.0066723059862852
0.00785618647933
0.0090625137090682
0.0102468067780137
0.0113608613610267
0.0123657453805208
0.0132385874167084
0.0139697659760713
0.0145576335489749
0.015005406923592
0.0153176328167319
0.0154936127364635
0.0155196199193596
0.0153646813705563
0.0149824246764183
0.0143188619986176
0.0133219240233302
0.0119489412754774
0.0101766008883714
0.0080151986330747
0.0055183246731758
0.0027807569131255
-7.267645560204983e-05
-0.0029013894964009
-0.0055640628561377
-0.0079334694892168
-0.0099087730050086
-0.0114228585734963
-0.0124446246773004
-0.0129780508577823
-0.0130577068775892
-0.0127401398494839
-0.012098453938961
-0.0112231336534023
-0.0102172335609793
-0.0091812582686543
-0.0081976754590868
-0.0073219304904341
-0.0065798908472061
-0.005970534402877
-0.0054723294451832
-0.0050508612766861
-0.0046670688316226
-0.00428609829396
-0.0038829662371426
-0.0034419877920299
-0.0029525212012231
-0.0024059568531811
-0.0017981315031647
-0.0011346895480528
-0.00043130927952
0.0002914565557148
0.0010124840773642
0.0017134108347818
0.0023833429440855
0.0030207752715796
0.0036303754895925
0.0042207189835608
0.0048051523044705
0.0054002162069082
0.0060202162712812
0.0066730142571032
0.0073606977239251
0.0080825965851545
0.0088329389691352
0.0095918010920286
0.0103212408721446
0.0109723061323165
0.0114915147423744
0.0118199056014418
0.0118916369974613
0.011637007817626
0.0109888417646288
0.009893100708723
0.0083233602344989
0.0062924516387283
0.0038564456626772
0.0011138571426272
-0.001797579228878
-0.0047107227146625
-0.0074508981779217
-0.0098654329776763
-0.0118458978831768
-0.0133337788283824
-0.0143138514831662
-0.0148049071431159
-0.0148531440645456
-0.0145270945504307
-0.013911023736
-0.0130959311500191
-0.0121701695024967
-0.0112117957323789
-0.0102825900539755
-0.009424015879631
-0.0086563229560852
-0.0079804174602031
-0.0073827486485242
-0.0068437689915299
-0.0063466960564255
-0.0058822622522711
-0.005447813309729
-0.0050415159203112
-0.0046561979688704
-0.0042782663367688
-0.003891002619639
-0.0034776029642671
-0.0030218211468309
-0.002507891273126
-0.0019229035824537
-0.0012597552267834
-0.0005156561965122
0.0003119157627224
0.0012244366807863
0.0022154441103339
0.0032662437297403
0.0043493397533893
0.005433652549982
0.0064860084094107
0.0074694538488984
0.008341054432094
0.0090507976710796
0.0095419054850935
0.0097543224692344
0.0096338363364338
0.0091444188728928
0.0082769338041543
0.0070531158708035
0.005527954082936
0.0037856178823858
0.00192441791296
3.934284904971719e-05
-0.0017883089603856
-0.0034946878440678
-0.005033581983298
-0.0063732787966728
-0.0074912905693054
-0.0083712451159954
-0.0090041728690266
-0.0093905823305249
-0.0095411967486143
-0.0094774952158331
-0.0092286234721541
-0.0088221319019794
-0.0082756159827113
-0.0075979004614055
-0.0067982012405991
-0.0058929747901856
-0.0049049817025661
-0.0038584843277931
-0.002775096334517
-0.0016714399680495
-0.0005585001781582
0.00055683683604
0.0016687177121639
0.002770694438368
0.0038555213250219
0.0049130702391266
0.0059269880875945
0.0068756691180169
0.0077388822101056
0.0085008535534143
0.0091454992070794
0.0096546597778797
0.0100143952295184
0.0102225812152028
0.0102948890998959
0.0102664725854992
0.0101848458871245
0.0100974543020129
0.010039797052741
0.0100252460688352
0.0100381132215261
0.0100327208638191
0.0099385790526866
0.0096723400056362
0.0091568324714899
0.0083389626815915
0.0071974298916757
0.0057426234707236
0.0040156398899853
0.002087106462568
5.118001718074083e-05
-0.0019867201335728
-0.0039242794737219
-0.0056742914021015
-0.0071714832447469
-0.0083743054419755
-0.009264800697565
-0.0098481243476271
-0.0101509140804409
-0.0102152293547987
-0.0100871864706277
-0.0098099373281002
-0.0094264512881636
-0.0089815743267536
-0.0085154650732874
-0.0080530699342489
-0.0075982720591127
-0.0071362098678946
-0.0066397557966411
-0.0060755815356969
-0.0054091629572212
-0.004610956646502
-0.0036632330156862
-0.0025622677057981
-0.0013157655484974
5.975738167762756e-05
0.0015416666865348
0.0031031921971589
0.0047105238772928
0.0063184038735926
0.0078713055700063
0.0093095675110816
0.0105774942785501
0.01163300126791
0.0124545898288488
0.0130419582128524
0.0134130306541919
0.0135993473231792
0.0136399315670132
0.0135756265372037
0.0134441079571843
0.013274947181344
0.0130851631984114
0.0128715950995683
0.0125998221337795
0.0122007168829441
0.0115817440673708
0.0106489844620227
0.0093319397419691
0.007602094206959
0.0054816612973809
0.0030436392407864
0.000401847762987
-0.002306954935193
-0.0049413600936532
-0.0073709972202777
-0.009489445015788
-0.0112203974276781
-0.0125178610906004
-0.0133684398606419
-0.0137957716360688
-0.0138575639575719
-0.0136339170858263
-0.01321551669389
-0.0126939751207828
-0.012150757946074
-0.0116466907784342
-0.0112165845930576
-0.0108698504045605
-0.0105948280543088
-0.0103632630780339
-0.0101335309445858
-0.0098550394177436
-0.0094745066016912
-0.0089406594634056
-0.0082104820758104
-0.0072608664631843
-0.0060957358218729
-0.0047425786033272
-0.0032448507845401
-0.0016530354041606
-1.633132342249155e-05
0.001621764502488
0.0032264452893286
0.0047729234211146
0.0062434584833681
0.0076235821470618
0.0089004235342144
0.0100616766139864
0.0110959857702255
0.0119966818019747
0.0127633288502693
0.0133953876793384
0.0138856871053576
0.0142233213409781
0.0144024593755602
0.0144272483885288
0.0143098998814821
0.0140663050115108
0.013711541891098
0.0132544692605733
0.0126921301707625
0.0120054678991436
0.0111573450267314
0.0100969616323709
0.0087742134928703
0.0071578337810933
0.0052454266697168
0.0030627287924289
0.0006609335541725
-0.0018836534582078
-0.0044731772504746
-0.0069984165020287
-0.0093531943857669
-0.0114479688927531
-0.0132176596671342
-0.0146231278777122
-0.0156494490802288
-0.0163047052919864
-0.0166194345802068
-0.0166421271860599
-0.0164298377931118
-0.0160395242273807
-0.0155257452279329
-0.0149434907361865
-0.014348205178976
-0.0137890595942735
-0.0132994223386049
-0.0128900613635778
-0.0125482901930809
-0.0122413868084549
-0.011921564117074
-0.0115328524261713
-0.0110181607306003
-0.0103260511532425
-0.0094194766134023
-0.008282539434731
-0.0069200624711811
-0.005352858453989
-0.0036161364987492
-0.0017605478642508
0.0001527509884908
0.0020618417765945
0.0039112558588385
0.0056569874286651
0.0072692693211138
0.0087313558906316
0.0100361565127968
0.0111818481236696
0.0121681541204452
0.0129962097853422
0.0136703439056873
0.0141979893669486
0.0145893469452857
0.014858741313219
0.0150219295173883
0.0150881372392177
0.0150576559826731
0.0149286724627017
0.0147036537528038
0.0143887940794229
0.0139875318855047
0.0134921316057443
0.0128779159858822
0.0121027193963527
0.0111129349097609
0.0098567735403776
0.0083017004653811
0.0064489659853279
0.0043400921858847
0.0020545874722301
-0.0003021005541086
-0.002617900725454
-0.0047924034297466
-0.0067489361390471
-0.0084381867200136
-0.0098336255177855
-0.0109253711998462
-0.0117180477827787
-0.0122321248054504
-0.0125053245574235
-0.0125910434871912
-0.0125538576394319
-0.0124623775482177
-0.0123788714408874
-0.012347943149507
-0.0123878959566354
-0.0124895013868808
-0.0126239918172359
-0.0127518270164728
-0.0128250997513532
-0.0127893202006816
-0.0125909075140953
-0.0121866017580032
-0.011548526585102
-0.0106651335954666
-0.0095414826646447
-0.0081982733681797
-0.0066683213226497
-0.0049921916797757
-0.0032146470621228
-0.001381074078381
0.0004672877257689
0.0022949276026338
0.0040666041895747
0.0057419138029217
0.0072782607749104
0.0086390255019068
0.0097987242043018
0.0107441255822777
0.0114743541926145
0.011999006383121
0.0123334238305687
0.0124945901334285
0.0125016784295439
0.0123795578256249
0.0121582765132188
0.0118687450885772
0.0115420147776603
0.0112087968736886
0.010891705751419
0.0105958236381411
0.0103047508746385
0.0099816443398594
0.009573733434081
0.0090189082548022
0.0082545038312673
0.0072285877540707
0.0059117744676768
0.0043074702844023
0.0024564112536609
0.0004321262240409
-0.00167030794546
-0.0037472352851182
-0.005696811247617
-0.007429173681885
-0.0088802259415388
-0.0100214350968599
-0.0108587760478258
-0.0114256348460912
-0.0117738954722881
-0.011963571421802
-0.0120535548776388
-0.012095465324819
-0.0121295880526304
-0.0121814645826816
-0.0122589664533734
-0.0123525094240903
-0.0124395182356238
-0.0124868378043174
-0.0124485492706298
-0.0122699374333024
-0.011901531368494
-0.011311394162476
-0.0104895029217004
-0.0094473883509635
-0.0082141747698187
-0.0068294047378003
-0.0053354073315858
-0.003772746771574
-0.0021789462771266
-0.0005871722241863
0.0009749291930347
0.0024833281058818
0.0039149336516857
0.0052501973696053
0.0064813932403922
0.0076163513585925
0.0086690820753574
0.0096453074365854
0.0105357198044657
0.0113195525482296
0.0119738159701228
0.012481122277677
0.0128334639593958
0.0130344238132238
0.013099655508995
0.0130552891641855
0.0129349427297711
0.0127742504701018
0.0126042682677507
0.0124471830204129
0.0123143568634986
0.0122009329497814
0.0120748877525329
0.0118717681616544
0.0115039367228746
0.0108795529231429
0.0099243093281984
0.008599828928709
0.0069127222523093
0.0049131051637232
0.002686284482479
0.0003408575430512
-0.002007066970691
-0.0042511266656219
-0.0063059297390282
-0.0081090377643704
-0.0096184611320495
-0.010814057663083
-0.0117038004100322
-0.0123235825449228
-0.0127264494076371
-0.0129702147096395
-0.0131081519648432
-0.0131820933893322
-0.0132184922695159
-0.0132270008325576
-0.0132007133215665
-0.0131192207336425
-0.0129536325111985
-0.0126709667965769
-0.012239534407854
-0.0116353323683142
-0.0108436830341815
-0.0098586967214941
-0.0086885141208767
-0.0073607782833278
-0.0059191389009356
-0.0044140638783574
-0.0028936499729752
-0.0013968748971819
4.693691153079271e-05
0.0014130576746538
0.0026768590323626
0.0038132956251502
0.0047992514446377
0.0056156986393034
0.0062496750615537
0.006699426099658
0.0069809854030609
0.0071287341415882
0.0071873310953378
0.0072010681033134
0.0072071757167577
0.0072347307577729
0.0073066405020654
0.0074405577033758
0.0076478193514049
0.0079326480627059
0.0082918303087353
0.0087123233824968
0.0091667789965868
0.009610210545361
0.0099799036979675
0.0102005740627646
0.0101953381672501
0.0098968325182795
0.0092538725584745
0.0082379542291164
0.0068519366905093
0.0051337955519557
0.0031518028117716
0.0009965649805963
-0.0012269781436771
-0.0034100487828254
-0.0054529476910829
-0.0072757201269268
-0.0088239954784512
-0.0100708212703466
-0.0110142296180129
-0.0116704422980546
-0.0120654664933681
-0.0122297592461109
-0.0121982404962182
-0.012011045590043
-0.0117092197760939
-0.011326253414154
-0.0108817750588059
-0.0103814424946904
-0.0098199658095836
-0.0091841220855712
-0.0084568727761507
-0.0076228789985179
-0.0066730789840221
-0.0056052524596452
-0.004421804100275
-0.0031298398971557
-0.0017425727564841
-0.0002804938703775
0.0012240449432283
0.0027228500694036
0.0041558011434972
0.005460578482598
0.0065833264961838
0.0074872905388474
0.0081572011113166
0.0085995802655816
0.0088400300592184
0.0089180134236812
0.0088806487619876
0.0087774517014622
0.0086566116660833
0.0085627771914005
0.0085362717509269
0.0086106220260262
0.0088045857846736
0.0091135893017053
0.0095103932544589
0.0099538713693618
0.010395361110568
0.0107790501788258
0.0110406996682286
0.0111085325479507
0.0109092630445957
0.0103788347914814
0.0094740530475974
0.0081832082942128
0.006533115170896
0.0045899720862507
0.0024531045928597
0.0002394363982602
-0.0019380156882107
-0.0039873542264103
-0.0058444431051611
-0.0074702654965221
-0.008844424970448
-0.0099606476724147
-0.0108255306258797
-0.0114569244906306
-0.0118799209594726
-0.0121224299073219
-0.0122120836749672
-0.0121744088828563
-0.0120312571525573
-0.0117960134521126
-0.0114654647186398
-0.0110200513154268
-0.0104389023035764
-0.0097151910886168
-0.0088590513914823
-0.0078912833705544
-0.0068350685760378
-0.0057112090289592
-0.0045380303636193
-0.0033322048839181
-0.0021095522679388
-0.0008883252739906
