bvp
0.027442866936326
0.0270646475255489
0.0261662788689136
0.0247602574527263
0.0228733532130718
0.020542936399579
0.01782763376832
0.014818669296801
0.0116423917934298
0.0084553016349673
0.0054327719844877
0.0027516968548297
0.0005676094442605
-0.0010116631165146
-0.0019469587132334
-0.0022738231346011
-0.0020930850878357
-0.0015486134216189
-0.0007985662668943
4.912260919809341e-06
0.0007234122604131
0.0012411102652549
0.0014794557355344
0.0014078402891755
0.0010447464883327
0.0004506949335336
-0.0002849423326551
-0.0010607801377773
-0.0017807600088417
-0.0023671970702707
-0.0027653670404106
-0.0029419644270092
-0.0028828282374888
-0.0025906227529048
-0.0020817681215703
-0.0013848597882315
-0.0005393549799919
0.0004103200044482
0.0014234307454898
0.0024669398553669
0.0035134609788656
0.0045398739166557
0.0055290996097028
0.0064692823216319
0.0073489733040332
0.0081528667360544
0.0088588967919349
0.0094372145831584
0.0098540391772985
0.0100784124806523
0.0100864619016647
0.0098592992871999
0.009376335889101
0.0086126364767551
0.0075449794530868
0.0061617596074938
0.0044701499864459
0.0024992004036903
0.0002999929711222
-0.0020591793581843
-0.0045026075094938
-0.0069575617089867
-0.0093622477725148
-0.011669079773128
-0.013841769658029
-0.0158478859812021
-0.0176520440727472
-0.0192171521484851
-0.0205139480531215
-0.0215277895331382
-0.0222574025392532
-0.0227121338248252
-0.0229110978543758
-0.0228818114846944
-0.0226565971970558
-0.022267896682024
-0.0217457804828882
-0.0211171619594097
-0.0204036012291908
-0.0196186564862728
-0.0187670346349477
-0.0178450141102075
-0.0168413408100605
-0.015743026509881
-0.0145486183464527
-0.0132779497653245
-0.0119679579511284
-0.0106605440378189
-0.0093936687335371
-0.0081979678943753
-0.0070952409878373
-0.006098267622292
-0.0052131400443613
-0.0044425791129469
-0.0037869024090468
-0.0032421057112514
-0.0027985232882201
-0.0024412667844444
-0.0021524981129914
-0.0019177801441401
-0.0017342034261673
-0.0016132052987813
-0.0015769384335726
-0.0016516097821295
-0.0018592712003737
-0.0022113041486591
-0.0027052527293562
-0.003321997122839
-0.0040233731269836
-0.0047542597167193
-0.0054502189159393
-0.0060462024994194
-0.006483070552349
-0.006713836453855
-0.0067089130170643
-0.0064589479006826
-0.0059773097746074
-0.0052986238151788
-0.0044692824594676
-0.0035365945659577
-0.002542904112488
-0.0015220083296298
-0.0004962794482707
0.0005226442590355
0.0015306128188967
0.0025293235667049
0.0035254103131592
0.0045251329429447
0.0055259694345295
0.0065144905820488
0.0074723181314766
0.0083796568214893
0.0092127546668052
0.0099447462707757
0.0105536486953496
0.011029690504074
0.0113768773153424
0.0116112800315022
0.0117584150284528
0.0118494080379605
0.0119155459105968
0.0119829662144184
0.0120704779401421
0.0121900243684649
0.0123467203229665
0.0125385047867894
0.0127566391602158
0.0129838762804865
0.0131895244121551
0.0133299846202135
0.0133587336167693
0.0132376253604888
0.0129423532634973
0.0124628655612468
0.0118036605417728
0.0109855830669403
0.0100457305088639
0.0090326853096485
0.007998764514923
0.0069944681599736
0.0060658808797597
0.0052527138032019
0.0045875268988311
0.0040922667831182
0.0037697276566177
0.0035986159928143
0.0035391536075621
0.0035460810177028
0.0035808440297842
0.0036164191551506
0.0036351473536342
0.0036250136326998
0.0035784838255494
0.0034935842268168
0.00337436189875
0.0032290588133037
0.0030668401159346
0.0028968180995434
0.002732538152486
0.0025951447896659
0.0025063410867005
0.0024774158373475
0.0025062425993382
0.0025818196590989
0.0026888654101639
0.0028107818216085
0.002932738745585
0.003043899545446
0.0031380243599414
0.0032125622965395
0.0032647717744112
0.0032856799662113
0.0032562455162405
0.0031503555364906
0.0029444117099046
0.0026237764395773
0.0021801074035465
0.0016091750003397
0.0009157313033938
0.0001174733042716
-0.0007577911019325
-0.0016778465360403
-0.0026109237223863
-0.0035285651683807
-0.0044047879055142
-0.00521388836205
-0.0059317611157894
-0.0065402910113334
-0.0070308493450284
-0.007403508760035
-0.0076619363389909
-0.0078102825209498
-0.0078570609912276
-0.0078199785202741
-0.0077240699902176
-0.0075960550457239
-0.0074607422575354
-0.0073396610096096
-0.0072504989802837
-0.0072062630206346
-0.0072116255760192
-0.0072579039260745
-0.0073231570422649
-0.0073794485069811
-0.0074014826677739
-0.0073689254932105
-0.0072633931413292
-0.0070713488385081
-0.0067934715189039
-0.0064469058997929
-0.006058782339096
-0.005659865681082
-0.0052789486944675
-0.0049378862604498
-0.004650929942727
-0.0044258958660066
-0.0042637581937015
-0.0041596917435526
-0.0041074990294873
-0.0041045458056032
-0.0041542015969753
-0.0042637065052986
-0.0044380598701536
-0.0046772910282015
-0.0049808314070105
-0.0053506633266806
-0.0057882363907992
-0.0062898490577936
-0.0068439082242548
-0.007429763674736
-0.0080187441781163
-0.0085789524018764
-0.0090811979025602
-0.0095009170472621
-0.0098170125856995
-0.0100121088325977
-0.0100741349160671
-0.0099959913641214
-0.009773313999176
-0.0094059128314256
-0.0089044068008661
-0.0082941455766558
-0.0076115550473332
-0.0068970322608947
-0.0061887777410447
-0.0055170911364257
-0.004899107851088
-0.0043368265032768
-0.0038198363035917
-0.0033311699517071
-0.0028523602522909
-0.0023660182487219
-0.0018579696770757
-0.0013175443746149
-0.0007336486596614
-9.338883683085442e-05
0.0006102100014686
0.0013692213688045
0.0021609477698802
0.0029555731453001
0.0037242658436298
0.0044453800655901
0.0051085515879094
0.0057149198837578
0.0062742186710238
0.0068015241995453
0.0073144803754985
0.0078293643891811
0.0083539802581071
0.0088812103495001
0.0093903439119458
0.0098526999354362
0.0102326702326536
0.0104867937043309
0.0105673242360353
0.0104306563735008
0.0100483242422342
0.0094154896214604
0.0085525810718536
0.0075012622401118
0.0063173538073897
0.0050633754581213
0.0038030587602406
0.0025965252425521
0.0014953105710446
0.0005404413677752
-0.0002363184466958
-0.0008150008507072
-0.001195368822664
-0.0014006467536091
-0.001471858471632
-0.0014567980542778
-0.0013978793285787
-0.0013222084380686
-0.0012381197884678
-0.0011405143886804
-0.001020077150315
-0.0008684126660227
-0.0006784219294786
-0.0004437379539012
-0.0001580417156219
0.0001875832676887
0.0006079571321606
0.0011201812885701
0.0017316699959337
0.002430950757116
0.0031878584995865
0.003959837835282
0.004701551515609
0.0053755529224872
0.0059590833261609
0.006444614380598
0.006837329827249
0.0071521382778882
0.0074088503606617
0.0076263323426246
0.0078201768919825
0.0080048069357872
0.0081955417990684
0.0084037696942687
0.0086247073486447
0.0088303806260228
0.0089763319119811
0.0090148299932479
0.0089052682742476
0.0086195822805166
0.0081452056765556
0.0074873408302664
0.0066693443804979
0.0057299360632896
0.0047176154330372
0.0036840438842773
0.0026788508985191
0.0017474805936217
0.0009309414308518
0.0002606527414172
-0.0002535841194912
-0.0006281244568526
-0.0008949219482019
-0.0010881470516324
-0.0012371668126434
-0.0013650336768478
-0.0014888904988765
-0.001618931419216
-0.0017578052356839
-0.001903160708025
-0.0020509127061814
-0.0021959184668958
-0.0023302666377276
-0.0024412821512669
-0.0025104195810854
-0.0025164785329252
-0.0024448856711387
-0.0022958111949265
-0.0020840417128056
-0.0018321651732549
-0.0015638126060366
-0.0013004435459151
-0.0010585293639451
-0.0008462753612548
-0.0006637034239247
-0.0005059300456196
-0.0003666137345135
-0.00024099717848
-0.0001273795496672
-2.50812154263258e-05
6.953254342079163e-05
0.0001638028770685
0.0002635275013744
0.0003659336362034
0.0004562798421829
0.0005102397408336
0.0005004506092518
0.0004025299567729
0.0001991535536944
-0.0001175738871097
-0.0005471403710544
-0.0010824238415807
-0.0017074684146791
-0.0023944668937474
-0.0031075021252036
-0.00381048489362
-0.004469278268516
-0.0050513334572315
-0.0055334670469164
-0.0059108808636665
-0.0061951410025358
-0.0064049400389194
-0.006558718625456
-0.0066706053912639
-0.0067483433522284
-0.0067928940989077
-0.0067996722646057
-0.0067618861794471
-0.0066744461655616
-0.0065354369580745
-0.0063449768349528
-0.0061026941984891
-0.0058049890212714
-0.0054466454312205
-0.0050289649516344
-0.0045664347708225
-0.00408476870507
-0.0036127041094005
-0.0031728292815387
-0.0027755289338529
-0.002418503165245
-0.0020902811083942
-0.0017743196804076
-0.0014539663679897
-0.0011181070003658
-0.0007629883475601
-0.0003896402777172
-4.635949153453112e-07
0.0004044365487061
0.000827488489449
0.0012664620298892
0.0017078017117455
0.0021293514873832
0.0025087529793381
0.0028290196787565
0.0030792222823947
0.003253819886595
0.0033523894380778
0.0033780434168875
0.0033339622896164
0.0032206419855356
0.0030348664149641
0.0027707160916179
0.0024260913487523
0.0020116462837904
0.0015505672199651
0.0010672151111066
0.0005765048554167
8.342276851180941e-05
-0.0004096025368198
-0.0008955355151556
-0.0013603838160634
-0.0017845277907326
-0.0021451404318213
-0.0024200503248721
-0.002593831392005
-0.0026625185273587
-0.00263402168639
-0.0025265836156904
-0.0023642359301447
-0.0021663662046194
-0.0019415980204939
-0.0016943349037319
-0.0014318509493023
-0.0011625281767919
-0.0008911681361496
-0.0006154009606689
-0.0003235741751268
3.8690632209181786e-06
0.0003898282302543
0.0008559509878978
0.0014210767112672
0.0021007447503507
0.0029027161654084
0.0038207303732633
0.0048346435651183
0.005918201059103
0.0070440270937979
0.0081789921969175
0.0092800334095954
0.0103004807606339
0.0112021407112479
0.0119644897058606
0.0125860376283526
0.0130772236734628
0.0134494984522461
0.0137074859812855
0.0138492016121745
0.01387170702219
0.0137735707685351
0.0135512296110391
0.0131963221356272
0.0126981660723686
0.0120433615520596
0.0112102758139371
0.0101698003709316
0.0088963955640792
0.0073817973025143
0.0056454977020621
0.0037397015839815
0.0017457203939557
-0.0002386197447776
-0.0021128323860466
-0.0037806341424584
-0.0051510296761989
-0.0061396332457661
-0.0066745998337864
-0.0067085116170346
-0.0062316618859767
-0.0052826358005404
-0.0039540780708193
-0.0023825336247682
-0.0007170131430029
0.0009181387722492
0.0024522142484784
0.003891123458743
0.0053361570462584
0.0069854380562901
0.0091024078428745
0.0119532197713851
0.0157316531985998
0.0204984080046415
0.0261574033647775
0.0324732735753059
0.0391171723604202
0.045720636844635
0.0519231334328651
0.0574093163013458
0.0619354732334613
0.0653458088636398
0.0675780475139617
0.0686535388231277
0.0686500668525695
0.0676652193069458
0.0657847672700882
0.0630639791488647
0.0595220252871513
0.0551518276333808
0.0499452091753482
0.0439231768250465
0.0371574945747852
0.0297728329896926
0.0219279006123542
0.0137873962521553
0.0054973140358924
-0.0028317123651504
-0.0111299902200698
-0.0193608403205871
-0.0275022462010383
-0.0355248376727104
-0.043370570987463
-0.0509331151843071
-0.0580425336956977
-0.0644644200801849
-0.0699223950505256
-0.0741369202733039
-0.076865829527378
-0.0779429748654365
-0.0773162022233009
-0.0750736594200134
-0.0714434832334518
-0.0667668282985687
-0.0614545345306396
-0.0559378415346145
-0.0506219528615474
-0.0458487570285797
-0.0418719239532947
-0.0388437695801258
-0.0368127077817916
-0.0357316024601459
-0.0354761183261871
-0.0358680449426174
-0.0366981849074363
-0.0377517379820346
-0.0388387218117713
-0.0398201532661914
-0.0406203269958496
-0.0412246063351631
-0.0416680797934532
-0.0420208796858787
-0.0423696674406528
-0.0427945367991924
-0.0433480739593505
-0.0440449826419353
-0.0448624640703201
-0.0457473881542682
-0.0466299913823604
-0.0474387258291244
-0.0481089502573013
-0.0485922023653984
-0.0488709844648838
-0.0489673539996147
-0.0489354953169822
-0.048842042684555
-0.0487444922327995
-0.0486761927604675
-0.0486408919095993
-0.0486149154603481
-0.0485530793666839
-0.0483956262469291
-0.0480756126344203
-0.0475262515246868
-0.0466861873865127
-0.0455012954771518
-0.0439260378479957
-0.041930790990591
-0.0395124778151512
-0.0366984456777572
-0.0335421487689018
-0.0301117151975631
-0.0264725722372531
-0.0226759072393178
-0.0187592767179012
-0.0147505216300487
-0.0106705538928508
-0.0065380781888961
-0.0023755244910717
0.0017873868346214
0.0059152506291866
0.009973969310522
0.0139371566474437
0.0177825912833213
0.0214803554117679
0.0249886661767959
0.0282629951834678
0.0312656164169311
0.0339683070778846
0.036354798823595
0.0384260155260562
0.0402010232210159
0.0417106300592422
0.0429899394512176
0.0440745204687118
0.0449973903596401
0.0457830317318439
0.0464425608515739
0.046975415199995
0.0473712943494319
0.0476063936948776
0.0476429983973503
0.0474401488900184
0.0469686649739742
0.0462220013141632
0.0452223159372806
0.0440216101706028
0.0426963455975055
0.0413378551602363
0.0400419719517231
0.0388979017734527
0.037976648658514
0.037322673946619
0.0369527526199817
0.036860454827547
0.0370184630155563
0.0373763367533683
0.0378617718815803
0.0383910723030567
0.0388846732676029
0.0392794869840145
0.0395358130335807
0.0396401435136795
0.0396026670932769
0.0394500605762004
0.039217285811901
0.0389412529766559
0.0386558435857296
0.0383869037032127
0.0381508991122245
0.037959236651659
0.0378185994923114
0.0377226211130619
0.03764633461833
0.0375511310994625
0.0373956859111785
0.0371466614305973
0.0367853119969368
0.0363071672618389
0.0357149690389633
0.0350090488791465
0.0341814011335372
0.033214159309864
0.0320788919925689
0.030738053843379
0.0291527770459651
0.0272965114563703
0.0251653436571359
0.0227771829813718
0.020167214795947
0.0173876471817493
0.0145063120871782
0.0116011369973421
0.008755000308156
0.0060511827468872
0.0035675466060638
0.0013698972761631
-0.0004947613924741
-0.0020039957016706
-0.0031634531915187
-0.004006627947092
-0.0045884177088737
-0.0049735400825738
-0.0052279997617006
-0.0054169353097677
-0.0056018577888607
-0.0058331126347184
-0.006141317076981
-0.0065333042293787
-0.006993849761784
-0.0074906256049871
-0.0079810749739408
-0.0084200715646147
-0.0087661687284708
-0.0089867040514945
-0.009064077399671
-0.0090006487444043
-0.0088141364976763
-0.0085244085639715
-0.0081486320123076
-0.0077110165730118
-0.0072492975741624
-0.0068084979429841
-0.0064323591068387
-0.0061609544791281
-0.0060342848300933
-0.0060968650504946
-0.0063974605873227
-0.0069833891466259
-0.0078912368044257
-0.0091364318504929
-0.0107071576640009
-0.0125644095242023
-0.0146439904347062
-0.0168580897152423
-0.0191025733947753
-0.0212739408016204
-0.0232845060527324
-0.0250664055347442
-0.0265699215233325
-0.0277610383927822
-0.0286192968487739
-0.0291388407349586
-0.0293304063379764
-0.0292195603251457
-0.0288437139242887
-0.028249979019165
-0.0274896025657653
-0.0266090594232082
-0.0256437566131353
-0.0246145762503147
-0.023528017103672
-0.0223842598497867
-0.0211851596832275
-0.0199336018413305
-0.0186308324337005
-0.0172769874334335
-0.0158723555505275
-0.0144186811521649
-0.0129203312098979
-0.0113842580467462
-0.0098204780369997
-0.0082439761608839
-0.0066749583929777
-0.0051358826458454
-0.0036463947035372
-0.0022192120086401
-0.0008638578001409
0.00040162820369
0.0015415418893098
0.0025004297494888
0.0032049731817096
0.0035711559467017
0.0035195949021726
0.0029951888136565
0.0019820018205791
0.000508964061737
-0.0013509911950677
-0.0034880351740866
-0.0057696742005646
-0.0080570066347718
-0.0102169904857873
-0.012129446491599
-0.0136935357004404
-0.0148387886583805
-0.0155348470434546
-0.0157904531806707
-0.0156435146927833
-0.0151508171111345
-0.0143810622394084
-0.0134080806747078
-0.0123022440820932
-0.0111242532730102
-0.0099231339991092
-0.0087334159761667
-0.0075702876783907
-0.0064286366105079
-0.0052874232642352
-0.0041163228452205
-0.0028874659910798
-0.0015906710177659
-0.0002380823716521
0.0011455034837126
0.0025331829674541
0.0039001791737973
0.0052265026606619
0.0065004476346075
0.0077196583151817
0.0088888211175799
0.0100161153823137
0.0111089423298835
0.0121687799692153
0.0131858838722109
0.0141359642148017
0.0149794984608888
0.0156587604433298
0.0160938333719968
0.0161882322281599
0.0158460922539234
0.0149940624833107
0.0136021953076124
0.011698362417519
0.0093713840469717
0.0067610908299684
0.0040378309786319
0.001379414461553
-0.0010462570935487
-0.0030925814062356
-0.0046442653983831
-0.0056243734434247
-0.0059959217905998
-0.0057636918500065
-0.0049770679324865
-0.0037252223119139
-0.002123087644577
-0.0002953987568616
0.0016380753368139
0.0035763699561357
0.0054450659081339
0.0071952971629798
0.008801476098597
0.0102609125897288
0.0115889413282275
0.0128091983497142
0.0139462128281593
0.01502251252532
0.0160581730306148
0.0170683357864618
0.0180550552904605
0.0190020687878131
0.0198810640722513
0.0206624343991279
0.0213220305740833
0.0218431372195482
0.0222164839506149
0.0224413983523845
0.0225269272923469
0.022489558905363
0.0223472062498331
0.0221121851354837
0.0217858310788869
0.0213558301329612
0.0207957923412323
0.0200617462396621
0.0190862212330102
0.0177849642932415
0.0160808134824037
0.0139292934909462
0.0113334702327847
0.0083470745012164
0.005067772231996
0.0016226498410105
-0.001849059946835
-0.0052099609747529
-0.0083341300487518
-0.0111150760203599
-0.0134732685983181
-0.0153611488640308
-0.0167623981833457
-0.0176893807947635
-0.0181851014494895
-0.0183229371905326
-0.0181956700980663
-0.017899440601468
-0.0175211559981107
-0.0171302128583192
-0.016772462055087
-0.0164668206125497
-0.016206132248044
-0.015962615609169
-0.0156963914632797
-0.0153649374842643
-0.0149311739951372
-0.0143662337213754
-0.0136480247601866
-0.0127658173441886
-0.0117316236719489
-0.0105836726725101
-0.0093769170343875
-0.0081713125109672
-0.0070237633772194
-0.0059806052595376
-0.0050714425742626
-0.0043081166222691
-0.0036853682249784
-0.0031807487830519
-0.0027591111138463
-0.002381426282227
-0.0020114090293645
-0.0016187755391001
-0.0011824984103441
-0.0006989818066358
-0.0001937737688422
0.000275001861155
0.0006256764754652
0.0007658200338482
0.0006040232256054
6.400514394044876e-05
-0.0008983891457319
-0.0022823680192232
-0.0040394533425569
-0.0060798227787017
-0.0082853958010673
-0.0105259837582707
-0.012672921642661
-0.0146070253103971
-0.0162218250334262
-0.017431367188692
-0.0181873105466365
-0.0184900742024183
-0.0183830801397562
-0.017939168959856
-0.0172473527491092
-0.0163999162614345
-0.0154797434806823
-0.0145497471094131
-0.0136483181267976
-0.0127910859882831
-0.0119750145822763
-0.011183307506144
-0.0103902462869882
-0.0095627875998616
-0.008659603074193
-0.0076356255449354
-0.0064558833837509
-0.0051086964085698
-0.0036091064102947
-0.0019939995836466
-0.0003134888829663
0.0013773781247437
0.0030252053402364
0.0045845746062695
0.0060234502889215
0.0073256967589259
0.0084903286769986
0.0095274234190583
0.0104528339579701
0.0112866908311843
0.0120555507019162
0.0127887353301048
0.0135048348456621
0.014200072735548
0.014847282320261
0.0154008464887738
0.0158024337142705
0.0159867648035287
0.0158881470561027
0.0154494540765881
0.0146334869787096
0.0134327663108706
0.0118743488565087
0.0100197782739996
0.0079604890197515
0.0058099292218685
0.0036936022806912
0.0017345618689432
3.478070721030235e-05
-0.0013393851695582
-0.002360519953072
-0.0030348745640367
-0.0033942887093871
-0.0034872449468821
-0.0033709201961755
-0.0031042916234582
-0.0027406795416027
-0.0023235206026583
-0.0018868539482355
-0.0014549682382494
-0.0010404670611023
-0.0006436668918468
-0.0002534962841309
0.000147936574649
0.0005764957168139
0.0010399321326985
0.0015387249877676
0.0020686648786067
0.0026222439482808
0.0031910575926303
0.0037673681508749
0.0043427050113677
0.0049070320092141
0.0054508694447577
0.0059684524312615
0.006458634044975
0.0069223972968757
0.0073615591973066
0.0077814213000237
0.0081899063661694
0.0085888430476188
0.0089659402146935
0.0092957075685262
0.0095488242805004
0.0097016505897045
0.0097365658730268
0.0096364645287394
0.009381840005517
0.0089489016681909
0.0083080362528562
0.007427523843944
0.0062817856669425
0.0048601240850985
0.0031752628274261
0.0012707039713859
-0.0007794075645506
-0.0028829262591898
-0.0049473023973405
-0.0068901511840522
-0.0086415410041809
-0.0101438481360673
-0.0113537702709436
-0.0122462734580039
-0.0128165436908602
-0.013079484924674
-0.0130676105618476
-0.0128267165273427
-0.0124103147536516
-0.0118725597858428
-0.011259620077908
-0.0106028635054826
-0.009918425232172
-0.0092135742306709
-0.0084925964474678
-0.0077582150697708
-0.0070125134661793
-0.0062574730254709
-0.0054933652281761
-0.0047173211351037
-0.0039227800443768
-0.0031005670316517
-0.0022435691207647
-0.0013522950466722
-0.000437437382061
0.0004819985479116
0.0013862648047506
0.0022641757968813
0.0031136046163737
0.0039316276088356
0.0047069946303963
0.0054221842437982
0.0060596344992518
0.0066074593923985
0.0070628207176923
0.0074298977851867
0.0077139134518802
0.0079161236062645
0.0080297607928514
0.0080359056591987
0.0079031828790903
0.007593534886837
0.0070716077461838
0.0063153221271932
0.0053219478577375
0.0041064792312681
0.0026997753884643
0.0011498415842652
-0.00047825765796
-0.0021060388535261
-0.0036495449021458
-0.0050297388806939
-0.0061811627820134
-0.007057262584567
-0.0076338183134794
-0.0079116076231002
-0.0079161515459418
-0.0076925242319703
-0.0072961607947945
-0.0067820465192198
-0.0061979806050658
-0.0055872104130685
-0.004993790294975
-0.0044598104432225
-0.0040162964724004
-0.0036755166947841
-0.0034275148063898
-0.0032419529743492
-0.0030757230706512
-0.0028828983195126
-0.0026215987745672
-0.002257636282593
-0.0017689409432932
-0.0011495306389406
-0.0004077401245012
0.0004405148501973
0.0013742502778768
0.0023621907457709
0.0033605282660573
0.0043203458189964
0.005197356455028
0.0059580034576356
0.0065836892463266
0.0070733595639467
0.0074414336122572
0.0077114487066864
0.0079076811671257
0.008045052178204
0.0081190494820475
0.0081003615632653
0.0079395100474357
0.0075806621462106
0.0069738300517201
0.0060804984532296
0.0048806397244334
0.0033824308775365
0.0016276580281555
-0.0003090491518378
-0.0023264053743332
-0.0043079694733023
-0.0061379913240671
-0.0077192885801196
-0.0089870588853955
-0.0099113322794437
-0.0104895681142807
-0.0107398061081767
-0.010697491466999
-0.0104103935882449
-0.009934495203197
-0.0093355569988489
-0.0086873546242713
-0.0080598536878824
-0.0075042499229311
-0.0070427968166768
-0.0066666891798377
-0.0063421460799872
-0.0060209571383893
-0.005650813691318
-0.0051843142136931
-0.0045875636860728
-0.0038456167094409
-0.0029616588726639
-0.0019511026330292
-0.0008332426659762
0.0003729253076016
0.0016442269552499
0.0029484869446605
0.0042463359422981
0.0054954993538558
0.0066550308838486
0.0076907789334654
0.0085810357704758
0.0093203522264957
0.0099180424585938
0.0103910975158214
0.0107579641044139
0.0110334157943725
0.0112212374806404
0.0113102216273546
0.0112766167148947
0.0110867023468017
0.0106968898326158
0.0100593091920018
0.0091369189321994
0.0079187471419572
0.006425742059946
0.0047082686796784
0.0028407690115273
0.0009148048702627
-0.0009711186867207
-0.0027227643877267
-0.0042581334710121
-0.005512180738151
-0.0064415005035698
-0.0070275864563882
-0.0072753350250422
-0.0072118658572435
-0.0068889181129634
-0.0063796075992286
-0.0057642408646643
-0.0051138354465365
-0.0044803768396377
-0.0038937120698392
-0.003362993709743
-0.0028823199681937
-0.0024374288041144
-0.0020105058792978
-0.0015831482596695
-0.0011381383519619
-0.0006620429921895
-0.0001466374378651
0.0004150927998125
0.0010309333447366
0.0017021556850522
0.0024169534444808
0.0031536275055259
0.0038875555619597
0.0045957984402775
0.0052590835839509
0.0058614816516637
0.0063910540193319
0.0068435156717896
0.0072239879518747
0.0075451820157468
0.0078255468979477
0.0080857835710048
0.0083431974053382
0.0086073605343699
0.0088730417191982
0.0091085787862539
0.009250127710402
0.009208969771862
0.0088891275227069
0.0082085393369197
0.0071175843477249
0.0056114243343472
0.0037333231884986
0.0015681750373914
-0.0007710001664236
-0.0031586873810738
-0.0054706986993551
-0.0075965309515595
-0.0094488523900508
-0.0109654683619737
-0.0121082682162523
-0.0128674712032079
-0.0132659301161766
-0.0133544681593775
-0.0131995445117354
-0.0128700016066432
-0.0124283051118254
-0.0119255082681775
-0.0113970255479216
-0.0108610074967145
-0.0103195970878005
-0.0097601441666483
-0.0091580506414175
-0.0084843998774886
-0.0077143823727965
-0.0068314438685774
-0.0058303056284785
-0.0047217630781233
-0.0035333852283656
-0.0023022345267236
-0.0010652358178049
0.0001464320812374
0.0013081128709018
0.0024007870815694
0.0034115025773644
0.0043341456912457
0.0051685478538274
0.0059189954772591
0.0065942374058067
0.0072083016857504
0.0077803032472729
0.0083336420357227
0.0088919186964631
0.0094691850244998
0.0100607052445411
0.0106385294348001
0.0111504523083567
0.0115233957767486
0.0116724735125899
0.011514276266098
0.0109818391501903
0.0100382938981056
0.0086867595091462
0.0069735664874315
0.0049827503971755
0.0028251551557332
0.0006268803845159
-0.0014817281626164
-0.0033794038463383
-0.0049726846627891
-0.0062113888561725
-0.0070893405936658
-0.0076344078406691
-0.0078968070447444
-0.0079378187656402
-0.0078192334622144
-0.0075943414121866
-0.007302691694349
-0.00697141001001
-0.0066208625212311
-0.0062676249071955
-0.005921620875597
-0.0055806711316108
-0.005227574147284
-0.0048355017788708
-0.0043810615316033
-0.0038544591516256
-0.0032603787258267
-0.0026132059283554
-0.0019314945675432
-0.0012344061397016
-0.0005395181942731
0.0001409810502082
0.0008038028609007
0.0014532462228089
0.0020965216681361
0.0027389416936784
0.0033806266728788
0.0040187630802392
0.0046548331156373
0.0052958922460675
0.0059452527202665
0.0065945019014179
0.007225583307445
0.007816357538104
0.0083426376804709
0.0087775895372033
0.0090900808572769
0.0092424508184194
0.0091896941885352
0.0088827582076191
0.0082777412608265
0.0073477048426866
0.0060893627814948
0.0045243757776916
0.0027023334987461
0.0007014821167103
-0.0013824780471622
-0.0034529971890151
-0.0054224114865064
-0.007214390207082
-0.0087641738355159
-0.0100199310109019
-0.0109463548287749
-0.0115287601947784
-0.0117742111906409
-0.0117091266438364
-0.0113763147965073
-0.0108318477869033
-0.0101394979283213
-0.009361159056425
-0.0085452683269977
-0.0077218487858772
-0.006908169016242
-0.0061149057000875
-0.0053452095016837
-0.0045926547609269
-0.003844283754006
-0.0030867757741361
-0.0023108527529984
-0.0015126506332308
-0.0006944427732378
0.0001354573760181
0.0009644909296184
0.0017773089930415
0.0025572176091372
0.0032907612621784
0.0039740279316902
0.004612295422703
0.005211136303842
0.0057699251919984
0.0062833176925778
0.0067460611462593
0.0071588046848773
0.0075320852920413
0.0078829983249306
0.0082254903391003
0.0085601154714822
0.0088667636737227
0.0091027822345495
0.009207859635353
0.0091131096705794
0.0087529746815562
0.0080805551260709
0.0070790657773613
0.0057620010338723
0.0041684648022055
0.0023607390467077
0.0004219624679535
-0.0015492409002035
-0.0034485720098018
-0.005178190767765
-0.0066566322930157
-0.0078253075480461
-0.008652551099658
-0.009134548716247
-0.0092929825186729
-0.0091706179082393
-0.0088222222402691
-0.0083001349121332
-0.0076461555436253
-0.006897184997797
-0.0060934703797101
-0.0052786492742598
-0.0044934996403753
-0.0037693905178457
-0.0031250109896063
-0.0025664833374321
-0.0020885437261313
-0.001676264218986
-0.0013101105578243
-0.0009726537391543
-0.0006515476852655
-0.0003390726633369
-2.9498711228370667e-05
0.0002853772602975
0.0006142621859908
0.0009551763068884
0.0012904778122901
0.0015963152982294
0.0018557980656623
0.0020664306357502
0.0022411006502807
0.0024058402050286
0.002595294965431
0.0028446095529943
0.003180410247296
0.003613288514316
0.0041314996778965
0.0046972832642495
0.005249133799225
0.0057123256847262
0.0060099363327026
0.0060663255862891
0.0058129499666392
0.0052049974910914
0.0042392327450215
0.0029613815713673
0.0014597806148231
-0.000151237938553
-0.0017504761926829
-0.0032256068661808
-0.0044830357655882
-0.0054504061117768
-0.006077135913074
-0.0063397926278412
-0.006243793759495
-0.0058149960823357
-0.005095490720123
-0.0041484334506094
-0.0030556991696357
-0.0019029574468731
-0.0007638055831193
0.0003086384385824
0.0012844675220549
0.002156991045922
0.0029389741830527
0.0036561149172484
0.0043395641259849
0.0050182836130261
0.0057143401354551
0.0064420546405017
0.0072093652561306
0.0080202752724289
0.0088736750185489
0.0097555192187428
0.0106328884139657
0.011458670720458
0.0121831176802515
0.0127650164067745
0.0131791112944483
0.0134197026491165
0.0135019216686487
0.0134585797786712
0.0133307501673698
0.0131571684032678
0.0129671152681112
0.0127756837755441
0.012582054361701
0.0123722590506076
0.0121196638792753
0.0117779560387134
0.0112760476768016
0.0105252098292112
0.0094366781413555
0.0079425983130931
0.00601417850703
0.0036716377362608
0.0009826617315411
-0.0019484921358525
-0.0049939104355871
-0.0080134766176342
-0.0108688110485672
-0.0134393768385052
-0.0156323835253715
-0.0173834394663572
-0.0186585336923599
-0.0194622129201889
-0.0198392327874898
-0.0198634527623653
-0.0196225363761186
-0.0192050635814666
-0.0186905600130558
-0.0181408282369375
-0.0175933837890625
-0.0170613545924425
-0.0165399629622697
-0.0160144679248332
-0.0154659170657396
-0.0148736611008644
-0.0142156481742858
-0.0134681705385446
-0.0126084461808204
-0.0116228396072983
-0.0105139520019292
-0.0092996219173073
-0.008007233031094
-0.0066670011729002
-0.0053059845231473
-0.0039462386630475
-0.0026061658281832
-0.0013007301604375
-3.999582258984447e-05
0.0011715014697983
0.0023339195176959
0.0034503806382417
0.0045263567008078
0.005572082940489
0.0066004055552184
0.0076144011691212
0.0085966205224394
0.0095100402832031
0.0103039210662245
0.0109168840572237
0.011279622092843
0.0113216238096356
0.0109814601019024
0.0102180624380707
0.0090216333046555
0.0074213636107742
0.0054859961383044
0.0033174294512718
0.0010411965195089
-0.0012046738993376
-0.0032849332783371
-0.0050860764458775
-0.0065320096909999
-0.0075890962034463
-0.0082604428753256
-0.008575445972383
-0.0085800783708691
-0.0083306962624192
-0.0078887771815061
-0.0073143071494996
-0.0066623454913496
-0.0059804422780871
-0.0053014028817415
-0.0046382434666156
-0.0039848363958299
-0.0033173116389662
-0.0026016763877123
-0.0018122775945812
-0.0009472579695284
-2.757110632956028e-05
0.0009166656527668
0.0018599077593535
0.0027865143492817
0.0036884488072246
0.0045606698840856
0.0053976960480213
0.0061923125758767
0.0069365701638162
0.0076241744682192
0.0082529224455356
0.0088265677914023
0.0093548530712723
0.0098492121323943
0.0103143099695444
0.010742399841547
0.0111161321401596
0.0114146517589688
0.011615396477282
0.0116908336058259
0.0116046192124485
0.011312311515212
0.0107665387913584
0.0099240466952323
0.0087560601532459
0.0072600101120769
0.005465508904308
0.0034349374473094
0.0012620503548532
-0.0009379257680848
-0.0030481091234833
-0.0049661062657833
-0.006610213778913
-0.0079223196953535
-0.0088712265715003
-0.0094539979472756
-0.0096927182748913
-0.0096285305917263
-0.0093160467222332
-0.0088177770376205
-0.0081981178373098
-0.0075179394334554
-0.0068293185904622
-0.0061679296195507
-0.0055453483946621
-0.0049514537677168
-0.0043689841404557
-0.0037862295284867
-0.0031985533423721
-0.0026051918976008
-0.0020063021220266
-0.0013986964477226
-0.0007748369243927
-0.0001276192488148
0.0005460500251501
0.0012446870096027
0.0019603171385824
0.002676259027794
0.003369300160557
0.00401830393821
0.0046147294342517
0.0051633617840707
0.0056699574925005
0.0061299121007323
0.0065281051211059
0.0068430504761636
0.0070466697216033
0.0071013276465237
0.0069596166722476
0.0065672043710947
0.0058689583092927
0.0048213694244623
0.0034078788012266
0.0016486104577779
-0.000398248550482
-0.002640318358317
-0.0049585802480578
-0.0072225481271743
-0.009312673471868
-0.0111365988850593
-0.0126303751021623
-0.0137526802718639
-0.0144812380895018
-0.0148120680823922
-0.0147609189152717
-0.0143655156716704
-0.0136827416718006
-0.0127789583057165
-0.0117200706154108
-0.0105653349310159
-0.0093640387058258
-0.0081531014293432
-0.006952604278922
-0.0057635903358459
-0.0045753209851682
-0.0033767390996217
-0.0021633622236549
-0.0009375349618494
0.0002960329875349
0.0015349402092397
0.0027806537691503
0.0040369667112827
0.0053071090951561
0.0065908012911677
0.0078819263726472
0.0091688595712184
0.0104384906589984
0.0116814542561769
0.0128935873508453
0.0140694603323936
0.0151935359463095
0.0162401683628559
0.0171797964721918
0.0179805383086204
0.018605588003993
0.0190109740942716
0.0191436540335416
0.0189426019787788
0.0183460526168346
0.0173039678484201
0.015792392194271
0.0138229159638285
0.0114444801583886
0.0087414402514696
0.00582828046754
0.0028361596632748
-0.0001077976776286
-0.0028965268284082
-0.0054466417059302
-0.007695191539824
-0.0095967650413513
-0.0111234886571764
-0.0122671388089656
-0.0130400974303483
-0.0134731093421578
-0.0136104905977845
-0.0135038299486041
-0.0132058169692754
-0.0127644473686814
-0.0122161712497472
-0.0115804597735404
-0.0108622889965772
-0.0100629776716232
-0.0091901654377579
-0.0082595208659768
-0.0072890813462436
-0.0062923589721322
-0.0052755195647478
-0.004238171968609
-0.0031761324498802
-0.0020858398638665
-0.0009674199391156
0.0001759837614372
0.0013394224224612
0.0025137837510555
0.0036828066222369
0.0048261666670441
0.0059242378920316
0.0069564646109938
0.0079000294208526
0.0087351715192198
0.0094512570649385
0.0100488411262631
0.0105384150519967
0.0109361913055181
0.0112562263384461
0.0115009201690554
0.0116537483409047
0.0116763645783066
0.0115111898630857
0.0110911298543214
0.0103558106347918
0.0092681506648659
0.0078226113691926
0.0060422983951866
0.0039725662209093
0.001679197885096
-0.0007513272576034
-0.003215474076569
-0.0056014582514762
-0.0078016836196184
-0.0097255110740661
-0.0113085526973009
-0.0125172436237335
-0.0133490907028317
-0.0138289052993059
-0.0140014551579952
-0.0139209395274519
-0.0136390943080186
-0.013199059292674
-0.0126393232494592
-0.0119981281459331
-0.0113104954361915
-0.0106037259101867
-0.0098940478637814
-0.0091829029843211
-0.0084569621831178
-0.0076940152794122
-0.0068714031949639
-0.0059725805185735
-0.0049904691986739
-0.0039294674061238
-0.002803549868986
-0.001627117395401
-0.0004057660116814
0.0008612787351012
0.002167975064367
0.0034915767610073
0.0047954176552593
0.0060406164266169
0.0071968343108892
0.0082464087754488
0.0091838808730244
0.0100143738090991
0.0107509428635239
0.0114094158634543
0.0120014138519763
0.0125284111127257
0.0129771754145622
0.0133168278262019
0.0134995942935347
0.013462470844388
0.0131286373361945
0.0124172773212194
0.0112645355984568
0.009643429890275
0.0075726471841335
0.0051156524568796
0.0023747510276734
-0.0005188845098018
-0.0034194183535873
-0.0061824186705052
-0.0086800120770931
-0.0108123905956745
-0.0125131728127598
-0.013748375698924
-0.0145105011761188
-0.014814986847341
-0.0147042255848646
-0.0142487501725554
-0.0135371061041951
-0.0126614011824131
-0.0117054358124732
-0.0107359886169433
-0.0097974613308906
-0.008910589851439
-0.0080746291205286
-0.0072722975164651
-0.006477884016931
-0.00566600356251
-0.0048157633282244
-0.0039089377969503
-0.0029267100617289
-0.0018530705710873
-0.0006854272214695
0.0005594649119302
0.0018504832405596
0.0031508645042777
0.004424225538969
0.0056377667933702
0.0067637609317898
0.0077806878834962
0.0086753563955426
0.0094460155814886
0.0101046059280633
0.0106745362281799
0.0111846774816513
0.0116651961579918
0.012144161388278
0.0126393716782331
0.0131491795182228
0.0136499553918838
0.0141001446172595
0.0144447274506092
0.0146153103560209
0.0145301213487982
0.0141019560396671
0.0132536496967077
0.011935188435018
0.0101376241073012
0.0078983008861541
0.0052961623296141
0.002442589495331
-0.0005282685160636
-0.0034695756621658
-0.0062357210554182
-0.0087022725492715
-0.0107840280979871
-0.0124403499066829
-0.0136679038405418
-0.0144894728437066
-0.014944308437407
-0.0150813395157456
-0.0149561744183301
-0.0146289030089974
-0.0141585739329457
-0.013595787808299
-0.0129771642386913
-0.0123238991945981
-0.0116424653679132
-0.010924007743597
-0.0101475194096565
-0.0092911766842007
-0.0083428099751472
-0.007301980163902
-0.0061773075722157
-0.0049835471436381
-0.0037391656078398
-0.0024636653251945
-0.0011743999784812
0.0001149037561845
0.0013918790500611
0.0026417500339448
0.0038464092649519
0.0049877259880304
0.0060538533143699
0.0070451572537422
0.0079711824655532
0.0088375685736536
0.0096381995826959
0.0103606265038251
0.0109955556690692
0.0115423742681741
0.0120091121643781
0.0124073475599288
0.0127445822581648
0.0130165787413716
0.0132008483633399
0.0132527016103267
0.013106845319271
0.0126874027773737
0.0119247222319245
0.0107717039063572
0.0092120692133903
0.0072613591328263
0.0049674184992909
0.0024102772586047
-0.0003031427040696
-0.0030490183271467
-0.0056984475813806
-0.008129421621561
-0.0102382665500044
-0.0119504872709512
-0.0132288020104169
-0.0140738924965262
-0.0145168863236904
-0.0146089792251586
-0.0144119998440146
-0.0139890434220433
-0.0133992647752165
-0.0127003695815801
-0.0119500737637281
-0.0111973313614726
-0.0104699712246656
-0.0097722392529249
-0.0090912980958819
-0.0084022125229239
-0.0076714791357517
-0.0068653686903417
-0.0059592146426439
-0.0049403337761759
-0.0038074885960668
