bvp
0.018849678337574
0.0265255719423294
0.034011572599411
0.0412680692970752
0.0482623465359211
0.0549716651439666
0.0613860227167606
0.0675098598003387
0.073366068303585
0.0789996534585952
0.0844722017645835
0.0898441076278686
0.0951494574546814
0.1003739759325981
0.1054456308484077
0.1102369651198387
0.1145708262920379
0.1182346567511558
0.1210240200161933
0.1228104829788208
0.1235956847667694
0.1235251128673553
0.1228540986776351
0.1218635737895965
0.1207550764083862
0.1195826679468154
0.1182538196444511
0.1165881976485252
0.1143987402319908
0.1115578934550285
0.1080325245857238
0.1038873642683029
0.0992641821503639
0.0943558588624
0.0893923938274383
0.0846344754099845
0.0803563073277473
0.0768043398857116
0.0741451382637023
0.0724346488714218
0.0716175138950347
0.0715396329760551
0.07196606695652
0.0726072192192077
0.0731539726257324
0.0733184218406677
0.0728738978505134
0.0716846138238906
0.069718100130558
0.0670434385538101
0.0638206750154495
0.0602810457348823
0.0566996410489082
0.0533621422946453
0.0505186766386032
0.0483247376978397
0.0467905588448047
0.0457622744143009
0.0449423864483833
0.0439434759318828
0.0423569492995739
0.0398174189031124
0.0360572263598442
0.030949018895626
0.0245268922299146
0.0169791355729103
0.0086152087897062
-0.0001835171133279
-0.0090168910101056
-0.0175126455724239
-0.0253609120845794
-0.0323347821831703
-0.0382976606488227
-0.0431998819112777
-0.0470667034387588
-0.04998130351305
-0.0520700104534626
-0.0534927770495414
-0.0544312857091426
-0.0550685636699199
-0.0555663518607616
-0.0560490898787975
-0.0565953627228736
-0.0572350695729255
-0.0579532608389854
-0.058699645102024
-0.0594004765152931
-0.0599715001881122
-0.0603303611278533
-0.06040620803833
-0.060146115720272
-0.0595195293426513
-0.0585230328142643
-0.0571841970086097
-0.0555586665868759
-0.0537187531590461
-0.0517390817403793
-0.0496853701770305
-0.047608733177185
-0.045545894652605
-0.0435248240828514
-0.0415732152760028
-0.039727360010147
-0.038040779531002
-0.036588866263628
-0.0354637950658798
-0.034758061170578
-0.0345413908362388
-0.0348438918590545
-0.0356536544859409
-0.0369198434054851
-0.0385523028671741
-0.0404230915009975
-0.0423768013715744
-0.0442471578717231
-0.0458733513951301
-0.0471135899424552
-0.0478572249412536
-0.0480340681970119
-0.0476173311471939
-0.0466212779283523
-0.04509799182415
-0.043132297694683
-0.0408289059996604
-0.0382969118654727
-0.0356421247124671
-0.0329624898731708
-0.0303390193730592
-0.0278255678713321
-0.0254426058381795
-0.0231771823018789
-0.0209883116185665
-0.0188159197568893
-0.0165929645299911
-0.0142578687518835
-0.0117626152932643
-0.0090757068246603
-0.0061825383454561
-0.0030842684209346
0.0002049505710601
0.0036584418267011
0.0072329174727201
0.0108671048656106
0.0144873093813657
0.0180135536938905
0.0213630571961402
0.0244527868926525
0.0272010564804077
0.0295286010950803
0.0313603840768337
0.03262959420681
0.033285018056631
0.0333014465868473
0.032692227512598
0.0315206013619899
0.0299025680869817
0.0279929302632808
0.0259578563272953
0.0239515472203493
0.0221051722764968
0.0205221623182296
0.0192760303616523
0.0184098780155181
0.017936946824193
0.0178419295698404
0.0180838610976934
0.0186027325689792
0.0193282179534435
0.0201875828206539
0.0211135782301425
0.0220524612814188
0.0229697581380605
0.0238499082624912
0.024688396602869
0.0254839733242988
0.0262376740574836
0.0269548501819372
0.0276454146951437
0.0283213574439287
0.028992349281907
0.0296625923365354
0.030331352725625
0.0309955514967441
0.0316512808203697
0.0322930105030536
0.0329109840095043
0.0334903374314308
0.0340154618024826
0.0344742350280284
0.0348548740148544
0.0351385362446308
0.035292699933052
0.0352652668952941
0.0349815860390663
0.0343487113714218
0.033266507089138
0.0316420085728168
0.0294050984084606
0.0265250299125909
0.0230227746069431
0.0189732238650321
0.0145009746775031
0.0097739081829786
0.0049896026030182
0.0003521391190588
-0.0039533050730824
-0.0077790785580873
-0.0110226459801197
-0.0136254234239459
-0.0155687537044286
-0.0168706830590963
-0.0175841115415096
-0.0177936851978302
-0.0176079217344522
-0.0171472933143377
-0.0165305193513631
-0.0158609524369239
-0.015216439962387
-0.0146442353725433
-0.0141597557812929
-0.0137521885335445
-0.0133980782702565
-0.0130707910284399
-0.012738243676722
-0.0123589914292097
-0.011885873042047
-0.011274205520749
-0.0104889571666717
-0.0095111969858407
-0.0083448104560375
-0.0070212082937359
-0.0055981520563364
-0.0041495999321341
-0.0027498137205839
-0.0014581941068172
-0.0003094933927059
0.000686552375555
0.0015364196151494
0.0022517014294862
0.0028422195464372
0.0033119451254606
0.0036522597074508
0.0038331262767314
0.0037974324077367
0.0034626945853233
0.0027314908802509
0.0015080422163009
-0.0002817921340465
-0.0026696864515542
-0.0056298989802598
-0.0090748239308595
-0.0128594003617763
-0.0167953036725521
-0.0206767134368419
-0.0243088118731975
-0.0275273770093917
-0.0302074663341045
-0.0322655849158763
-0.0336593426764011
-0.0343861430883407
-0.0344807244837284
-0.0340104699134826
-0.0330682769417762
-0.031763669103384
-0.0302124377340078
-0.028525223955512
-0.0267947632819414
-0.0250833928585052
-0.0234189759939908
-0.0218026302754879
-0.0202189721167087
-0.0186427794396877
-0.0170443747192621
-0.0153949707746505
-0.0136716347187757
-0.0118613056838512
-0.0099635142832994
-0.0079919137060642
-0.005972777493298
-0.0039395811036229
-0.0019276142120361
2.8420239686965942e-05
0.0018977634608745
0.0036601684987545
0.0053085833787918
0.0068436209112405
0.0082666408270597
0.0095773609355092
0.0107735013589262
0.0118481013923883
0.0127836726605892
0.0135445855557918
0.0140706179663538
0.0142784304916858
0.0140750026330351
0.0133776878938078
0.0121331885457038
0.0103326449170708
0.0080231428146362
0.0053123030811548
0.0023566102609038
-0.0006659310311079
-0.003581971861422
-0.0062377979047596
-0.0085082147270441
-0.0103034377098083
-0.0115726497024297
-0.0123041309416294
-0.0125230718404054
-0.0122872618958354
-0.011680407449603
-0.0108033567667007
-0.0097633656114339
-0.0086611425504088
-0.0075758313760161
-0.0065514110028743
-0.0055946852080523
-0.0046881102025508
-0.0038032892625778
-0.0029046875424683
-0.001949374214746
-0.0008910110918805
0.0003116511506959
0.0016865136567503
0.0032440638169646
0.00497781438753
0.0068655665963888
0.008869263343513
0.0109359053894877
0.0130027569830417
0.0150063727051019
0.0168901216238737
0.0186048839241266
0.0201062615960836
0.0213577598333358
0.0223399959504604
0.0230557136237621
0.0235251635313034
0.0237755849957466
0.0238289982080459
0.0236882213503122
0.0233256351202726
0.0226820223033428
0.0216747783124446
0.0202131122350692
0.0182194989174604
0.0156525708734989
0.0125259924679994
0.008916838094592
0.0049587721005082
0.0008256775327026
-0.0032874508760869
-0.0071849673986434
-0.0106887379661202
-0.0136519912630319
-0.0159705895930528
-0.0175903048366308
-0.0185067672282457
-0.0187588259577751
-0.0184197891503572
-0.0175886377692222
-0.0163796618580818
-0.014909004792571
-0.0132813639938831
-0.0115841776132583
-0.0098889926448464
-0.0082519836723804
-0.0067111644893884
-0.005283617414534
-0.0039671706035733
-0.0027483906596899
-0.0016112504526972
-0.0005405124975368
0.000477798632346
0.0014553219079971
0.002400703728199
0.0033197412267327
0.0042157624848186
0.0050919479690492
0.0059545496478676
0.0068096756003797
0.0076543325558304
0.0084738573059439
0.0092483209446072
0.0099601615220308
0.0105993468314409
0.0111664878204464
0.0116738379001617
0.0121426098048686
0.0125965205952525
0.0130537161603569
0.013517465442419
0.0139643102884292
0.0143335331231355
0.0145293520763516
0.0144395101815462
0.0139564052224159
0.0129902176558971
0.0114808436483144
0.0094141187146306
0.0068348078057169
0.0038474472239613
0.0006020311266183
-0.0027308617718517
-0.0059841927140951
-0.0090107666328549
-0.0116924699395895
-0.0139439534395933
-0.0157145261764526
-0.0169906169176101
-0.0177921876311302
-0.0181606784462928
-0.0181500352919101
-0.0178274624049663
-0.0172728784382343
-0.0165685638785362
-0.015785627067089
-0.0149748073890805
-0.0141629371792078
-0.0133531540632247
-0.012527260929346
-0.0116515345871448
-0.0106863258406519
-0.0095953112468123
-0.0083510391414165
-0.0069386148825287
-0.0053587015718221
-0.0036279829218983
-0.0017786514945328
0.0001410688273608
0.0020689330995082
0.0039368877187371
0.0056830160319805
0.0072601465508341
0.0086375484243035
0.0097996238619089
0.0107444170862436
0.0114798750728368
0.0120191890746355
0.0123800924047827
0.012586897239089
0.0126693453639745
0.0126594714820384
0.0125895347446203
0.0124830044806003
0.0123353758826851
0.0121011510491371
0.0116981994360685
0.011023199185729
0.0099730342626571
0.0084688961505889
0.0064757717773318
0.0040128384716808
0.001153910998255
-0.0019804579205811
-0.0052354121580719
-0.0084384148940444
-0.0114187067374587
-0.0140216872096061
-0.0161168724298477
-0.0176089219748973
-0.0184527859091758
-0.0186621360480785
-0.0183052886277437
-0.0174910947680473
-0.0163500756025314
-0.0150160454213619
-0.0136118363589048
-0.0122404051944613
-0.0109786093235015
-0.0098718730732798
-0.0089326100423932
-0.0081437472254037
-0.00746605778113
-0.0068470067344605
-0.0062277619726955
-0.0055504310876131
-0.004769857507199
-0.0038637921679764
-0.0028333156369626
-0.0016968871932476
-0.0004831185797229
0.0007766664493829
0.0020540566183626
0.0033274581655859
0.0045846104621887
0.0058208014816045
0.0070341266691684
0.0082219913601875
0.0093792881816625
0.0105000585317611
0.011583037674427
0.0126321362331509
0.0136467721313238
0.0146119650453329
0.0154991885647177
0.0162762086838483
0.0169154107570648
0.017394158989191
0.0176894273608922
0.0177705436944961
0.0175920240581035
0.0170901417732238
0.016187947243452
0.0148100042715668
0.0129028856754302
0.0104553001001477
0.0075120008550584
0.0041730711236596
0.000577884260565
-0.0031114453449845
-0.0067200576886534
-0.0100723411887884
-0.0130084510892629
-0.0153998555615544
-0.0171610489487648
-0.0182557888329029
-0.0186962336301803
-0.0185362379997968
-0.0178615190088748
-0.0167794451117515
-0.0154091482982039
-0.0138684483245015
-0.0122585259377956
-0.0106554292142391
-0.0091122379526495
-0.0076648727990686
-0.0063343006186187
-0.0051255514845252
-0.0040284153074026
-0.0030216672457754
-0.002078772522509
-0.0011736953165382
-0.0002864142879843
0.0005938899703323
0.0014688220107927
0.0023317658342421
0.0031695382203906
0.0039674285799264
0.0047165942378342
0.0054160170257091
0.0060659907758235
0.006662268191576
0.0071983486413955
0.0076709957793354
0.0080829728394746
0.0084434915333986
0.0087663177400827
0.0090660154819488
0.0093552209436893
0.0096429865807294
0.0099340230226516
0.0102279847487807
0.0105150416493415
0.0107699315994977
0.0109493397176265
0.0109898298978805
0.0108075998723506
0.0103096570819616
0.0094160148873925
0.0080819437280297
0.006311135366559
0.0041563999839127
0.0017124445876106
-0.0008943736320361
-0.0035205641761422
-0.0060234223492443
-0.008276711218059
-0.010180558077991
-0.011667582206428
-0.0127065014094114
-0.0132993943989276
-0.0134765533730387
-0.0132964765653014
-0.0128430724143981
-0.0122129237279295
-0.011498880572617
-0.0107752848416566
-0.0100888516753911
-0.0094581386074423
-0.0088775772601366
-0.0083213411271572
-0.0077478294260799
-0.0071073612198233
-0.0063514001667499
-0.005439581349492
-0.004344493150711
-0.003055602312088
-0.0015836406964808
3.563892096281052e-05
0.0017440165393054
0.0034709798637777
0.0051459167152643
0.0067072818055748
0.0081071481108665
0.0093118268996477
0.0102999098598957
0.0110605079680681
0.011593759059906
0.011911641806364
0.0120366718620061
0.0119992420077323
0.0118355993181467
0.0115865301340818
0.0112930480390787
0.010985666885972
0.0106724891811609
0.0103341974318027
0.0099263787269592
0.0093866502866148
0.0086445631459355
0.0076323323883116
0.0062972120940685
0.0046160989440977
0.0026078876107931
0.0003374654334038
-0.0020900841336697
-0.0045419582165777
-0.0068718702532351
-0.0089339986443519
-0.0106019051745533
-0.0117914527654647
-0.0124731063842773
-0.0126680694520473
-0.0124379266053438
-0.011873735114932
-0.0110835023224353
-0.0101787419989705
-0.0092630926519632
-0.0084234932437539
-0.0077240159735083
-0.0072035999037325
-0.0068757627159357
-0.0067279394716024
-0.0067214565351605
-0.0067938612774014
-0.0068683666177093
-0.0068728560581803
-0.0067566824145615
-0.006493235938251
-0.0060726506635546
-0.0054948041215538
-0.0047669173218309
-0.0039043417200446
-0.0029296651482582
-0.0018673371523618
-0.000738060567528
0.0004420606419444
0.0016584414988756
0.002895068610087
0.0041360994800925
0.0053711733780801
0.0065957969054579
0.0078030764125287
0.008975357748568
0.0100847743451595
0.0111002996563911
0.0119926622137427
0.0127330403774976
0.0132871754467487
0.013610728085041
0.0136505383998155
0.0133501049131155
0.012656919658184
0.011532430537045
0.0099638383835554
0.007974661886692
0.0056316368281841
0.0030428420286625
0.000343017745763
-0.0023257406428456
-0.004828275181353
-0.00704703386873
-0.0088902553543448
-0.0102955559268593
-0.0112304305657744
-0.0116926105692982
-0.0117113441228866
-0.011347422376275
-0.0106882397085428
-0.0098374271765351
-0.0089005501940846
-0.0079687871038913
-0.0071055321022868
-0.0063428119756281
-0.0056888968683779
-0.0051376479677855
-0.004670490976423
-0.0042565888725221
-0.003859328571707
-0.0034439680166542
-0.0029809200204908
-0.0024482598528265
-0.0018346505239605
-0.0011398228816688
-0.0003730463795363
0.0004477682523429
0.0012964475899934
0.0021433536894619
0.0029662116430699
0.0037552630528807
0.0045040510594844
0.0051995851099491
0.0058254753239452
0.0063703078776597
0.0068317418918013
0.0072162598371505
0.007536033168435
0.0078054815530776
0.008037750609219
0.0082380399107933
0.0083955731242895
0.0084782103076577
0.0084318500012159
0.0081888446584343
0.0076844622381031
0.0068698688410222
0.005715952720493
0.0042171264067292
0.0024008143227547
0.0003353604115545
-0.001870144624263
-0.0040749055333435
-0.0061227879486978
-0.0078616421669721
-0.0091617852449417
-0.0099318325519561
-0.0101297367364168
-0.0097666354849934
-0.0089024510234594
-0.0076343901455402
-0.0060810893774032
-0.0043686120770871
-0.0026222872547805
-0.0009569213725626
0.0005387971177697
0.0018140859901905
0.0028572040610015
0.0036880918778479
0.0043459273874759
0.0048758178018033
0.0053192018531262
0.0057091806083917
0.0060689919628202
0.0064120646566152
0.0067446194589138
0.0070712626911699
0.0074010863900184
0.0077498387545347
0.0081346193328499
0.0085645793005824
0.009034464135766
0.00952426251024
0.0100059527903795
0.0104546109214425
0.0108569394797086
0.0112118832767009
0.011525273323059
0.0118056386709213
0.01206293143332
0.0123052923008799
0.012532752007246
0.0127335982397198
0.0128846336156129
0.0129456343129277
0.0128467949107289
0.0124860340729355
0.0117447804659605
0.0105122663080692
0.0087089715525507
0.0063065001741051
0.0033403653651475
-8.919881656765938e-05
-0.003829585853964
-0.0076965671032667
-0.0114962831139564
-0.0150445885956287
-0.0181836802512407
-0.0207928419113159
-0.0227910056710243
-0.0241393633186817
-0.0248485077172517
-0.0249792598187923
-0.0246298946440219
-0.0239170491695404
-0.0229592584073543
-0.0218635722994804
-0.0207140669226646
-0.0195658858865499
-0.018446234986186
-0.0173576287925243
-0.0162804722785949
-0.0151776392012834
-0.0140035767108201
-0.0127147417515516
-0.0112754385918378
-0.0096625480800867
-0.0078762043267488
-0.005948768928647
-0.0039410782046616
-0.0019286628812551
1.3348646461963654e-05
0.0018219319172203
0.0034517305903136
0.0048732236027717
0.0060703409835696
0.0070435027591884
0.00781225040555
0.0084127942100167
0.0088941045105457
0.0093155177310109
0.0097432062029838
0.0102394502609968
0.0108454599976539
0.011567423120141
0.0123710464686155
0.0131825394928455
0.0138947982341051
0.0143796578049659
0.0145082008093595
0.0141767701134085
0.0133277373388409
0.011958310380578
0.0101209823042154
0.0079178353771567
0.0054875146597623
0.0029891899321228
0.0005881474353373
-0.0015635227318853
-0.0033520231954753
-0.0047159558162093
-0.0056426068767905
-0.0061585698276758
-0.0063230143859982
-0.0062204422429203
-0.0059480122290551
-0.005601217970252
-0.0052653192542493
-0.0050099585205316
-0.0048823738470673
-0.0049029807560145
-0.0050649996846914
-0.0053331460803747
-0.0056422585621476
-0.0059066778048872
-0.0060420222580432
-0.005984142422676
-0.0056956615298986
-0.0051643108017742
-0.0043974304571747
-0.0034151920117437
-0.0022467658855021
-0.0009295125491917
0.0004937006160616
0.0019793927203863
0.0034869748633354
0.0049804584123194
0.0064285364933311
0.0078045190311968
0.0090885199606418
0.0102663431316614
0.0113218389451503
0.0122326230630278
0.0129739046096801
0.0135221732780337
0.0138524277135729
0.0139303402975201
0.0137054594233632
0.0131130786612629
0.012086316011846
0.0105726402252912
0.0085503654554486
0.0060423328541219
0.003122697584331
-8.377910126000643e-05
-0.0034093356225639
-0.0066611533984541
-0.0096489582210779
-0.0122118964791297
-0.0142333405092358
-0.0156419780105352
-0.0164077784866094
-0.0165406614542007
-0.0160905625671148
-0.0151431020349264
-0.0138095188885927
-0.0122147388756275
-0.0104856118559837
-0.008739554323256
-0.0070741465315222
-0.0055563952773809
-0.0042143953032791
-0.00304054049775
-0.0020074795465916
-0.001084400108084
-0.0002439140807837
0.0005371989682316
0.0012769280001521
0.0019859091844409
0.0026671704836189
0.0033186860382556
0.0039361137896776
0.0045149093493819
0.0050532966852188
0.0055536678992211
0.0060200029984116
0.006457747425884
0.0068794782273471
0.007304519880563
0.007747714407742
0.0082106124609708
0.0086806192994117
0.0091297114267945
0.0095099173486232
0.0097515266388654
0.0097679933533072
0.0094676613807678
0.0087707629427313
0.0076261227950453
0.0060235485434532
0.0040015135891735
0.001646741409786
-0.0009148534736596
-0.0035317172296345
-0.0060453661717474
-0.0083138598129153
-0.0102306557819247
-0.0117322318255901
-0.012797730974853
-0.0134444162249565
-0.0137186702340841
-0.0136846490204334
-0.0134151270613074
-0.0129853626713156
-0.0124673321843147
-0.0119219962507486
-0.011392468586564
-0.0109014315530657
-0.0104492902755737
-0.0100119784474372
-0.0095452088862657
-0.008997468277812
-0.0083228033035993
-0.0074857738800346
-0.0064620915800333
-0.0052394364029169
-0.0038183010183274
-0.0022124471142888
-0.0004479787312448
0.0014386903494596
0.0034030782990157
0.0053964331746101
0.0073717320337891
0.0092892460525035
0.0111197093501687
0.0128462798893451
0.0144625958055257
0.0159641802310943
0.0173394028097391
0.0185663681477308
0.0196136273443698
0.0204390417784452
0.0209856051951646
0.0211777854710817
0.0209231302142143
0.0201237741857767
0.0186962876468896
0.0165925920009613
0.0138169890269637
0.0104365088045597
0.0065822731703519
0.002440080512315
-0.0017713614506646
-0.0058310437016189
-0.0095445467159152
-0.0127616329118609
-0.0153804300352931
-0.0173430107533931
-0.0186303034424781
-0.0192598793655633
-0.019282916560769
-0.0187770128250122
-0.0178367514163255
-0.0165652632713317
-0.0150662194937467
-0.0134347910061478
-0.0117477066814899
-0.0100533477962017
-0.0083694513887166
-0.0066949776373803
-0.0050245039165019
-0.003353476524353
-0.0016807182691991
-1.208484172821045e-05
0.0016390886157751
0.0032539013773202
0.0048097549006342
0.0062828292138874
0.0076501388102769
0.0088892886415123
0.0099795088171958
0.0109075307846069
0.0116736479103565
0.012293747626245
0.0127964541316032
0.0132141169160604
0.0135734938085079
0.0138944052159786
0.0141933755949139
0.0144854942336678
0.0147840045392513
0.0150990411639213
0.0154353324323892
0.0157876536250114
0.0161329917609691
0.0164215303957462
0.0165712796151638
0.0164712611585855
0.0159964561462402
0.0150312324985861
0.0134901516139507
0.011330584064126
0.0085642356425523
0.0052686668932437
0.0015862975269556
-0.0022945208474993
-0.0061667263507843
-0.0098298341035842
-0.0131097082048654
-0.0158723164349794
-0.0180320665240287
-0.0195562876760959
-0.0204642638564109
-0.0208167824894189
-0.0206993520259857
-0.0202085487544536
-0.0194464847445487
-0.0185185857117176
-0.0175254307687282
-0.0165489390492439
-0.0156418494880199
-0.0148229617625474
-0.0140771027654409
-0.0133614270016551
-0.0126159992069005
-0.0117745865136384
-0.0107741579413414
-0.009563279338181
-0.0081098936498165
-0.0064070080406963
-0.0044728936627507
-0.0023452225141227
-7.557191565865651e-05
0.002271061995998
0.0046182181686162
0.0068868338130414
0.0090060271322727
0.0109198838472366
0.0125894788652658
0.0139923421666026
0.0151217691600322
0.0159857030957937
0.0166036840528249
0.0170033294707536
0.0172178335487842
0.0172831621021032
0.0172353871166706
0.0171094257384538
0.0169349275529384
0.0167262256145477
0.016474176198244
0.0161466654390096
0.015692763030529
0.0150453764945268
0.0141242686659097
0.0128440419211983
0.0111283771693706
0.0089264819398522
0.0062278257682919
0.0030720010399818
-0.0004500532522797
-0.0042030550539493
-0.0080182272940874
-0.0117075964808464
-0.0150882322341203
-0.0180127080529928
-0.0203858353197574
-0.0221618898212909
-0.0233370885252952
-0.0239439271390438
-0.0240442045032978
-0.0237209480255842
-0.0230704806745052
-0.0221946854144334
-0.0211922228336334
-0.0201479122042655
-0.0191239118576049
-0.0181564018130302
-0.0172555334866046
-0.0164064839482307
-0.0155756119638681
-0.0147238969802856
-0.0138183832168579
-0.012833721935749
-0.0117498766630887
-0.0105523075908422
-0.0092339571565389
-0.0077972863800823
-0.0062541486695408
-0.0046219816431403
-0.0029180920682847
-0.0011575653916224
0.0006432357477024
0.0024640788324177
0.0042836852371692
0.0060847178101539
0.0078538274392485
0.0095735695213079
0.0112156514078378
0.0127455461770296
0.0141328172758221
0.0153575632721185
0.0164119116961956
0.0172982066869735
0.018024992197752
0.0186031330376863
0.0190445240586996
0.019361300393939
0.0195610355585813
0.0196388624608516
0.0195701457560062
0.0193066503852605
0.0187771245837211
0.0178912281990051
0.0165493935346603
0.0146635379642248
0.0121852662414312
0.0091287065297365
0.0055781342089176
0.0016786833293735
-0.0023845159448683
-0.0064079267904162
-0.0101878177374601
-0.0135399168357253
-0.0163199566304683
-0.0184366777539253
-0.0198521297425031
-0.0205733124166727
-0.0206446666270494
-0.0201459527015686
-0.0191894806921482
-0.0179102681577205
-0.0164500884711742
-0.0149395894259214
-0.0134821459650993
-0.0121442209929227
-0.0109562641009688
-0.0099199675023555
-0.0090149994939565
-0.0082054687663912
-0.0074472450651228
-0.0066942307166755
-0.0059029324911534
-0.0050353049300611
-0.0040622912347316
-0.0029717283323407
-0.0017751705599948
-0.0005051153711974
0.0007959475042298
0.0020884703844785
0.0033454778604209
0.0045539909042418
0.0057093165814876
0.0068105347454547
0.0078613143414258
0.0088713336735963
0.0098534086719155
0.0108188139274716
0.0117776710540056
0.0127437785267829
0.0137336198240518
0.014756035991013
0.015802813693881
0.0168476719409227
0.0178510025143623
0.0187661033123731
0.0195425115525722
0.0201241765171289
0.0204457323998212
0.0204301606863737
0.019990000873804
0.0190363638103008
0.0174973160028457
0.0153388138860464
0.0125804934650659
0.0093040009960532
0.0056493235751986
0.0017944579012691
-0.0020727301016449
-0.0057762134820222
-0.0091646928340196
-0.0121200755238533
-0.0145619418472051
-0.0164477843791246
-0.0177718326449394
-0.018563374876976
-0.0188811868429183
-0.0188017394393682
-0.0184058845043182
-0.0177708622068166
-0.0169654600322246
-0.0160433761775493
-0.0150408605113625
-0.0139830913394689
-0.0128902439028024
-0.0117765981703996
-0.0106464158743619
-0.0094935856759548
-0.0083069568499922
-0.0070755206979811
-0.0057907900772988
-0.0044495845213532
-0.0030572118703275
-0.0016285493038594
-0.0001860969059634
0.0012441403232514
0.0026385178789496
0.0039816019125282
0.0052647027187049
0.0064762365072965
0.0075964927673339
0.0086022829636931
0.009473942220211
0.0101998625323176
0.0107781393453478
0.0112160900607705
0.011530240997672
0.0117472205311059
0.0119018768891692
0.0120302336290478
0.0121616013348102
0.0123152323067188
0.0125010572373867
0.0127202859148383
0.0129602067172527
0.0131822116672992
0.0133123882114887
0.0132445525377988
0.0128560466691851
0.0120300035923719
0.0106769492849707
0.0087523125112056
0.0062693911604583
0.0033052610233426
-4.852190613746643e-06
-0.0034852987155318
-0.0069443322718143
-0.0101988110691308
-0.013093726709485
-0.0155128026381134
-0.0173839479684829
-0.0186839178204536
-0.0194380544126033
-0.0197112634778022
-0.0195937901735305
-0.0191875137388706
-0.0185949485749006
-0.0179086923599243
-0.0172011014074087
-0.0165179818868637
-0.0158780198544263
-0.0152768827974796
-0.0146925207227468
-0.0140880588442087
-0.0134140038862824
-0.0126143572852015
-0.0116395382210612
-0.0104621853679418
-0.0090850871056318
-0.0075366171076893
-0.0058600665070116
-0.0041036130860447
-0.0023118271492421
-0.0005199052393436
0.0012464510509744
0.0029672221280634
0.0046240240335464
0.0061977840960025
0.0076687466353178
0.0090173222124576
0.0102272350341081
0.0112933404743671
0.0122248250991106
0.0130353607237339
0.0137307280674576
0.0143060330301523
0.0147514399141073
0.0150608578696846
0.0152376368641853
0.0152933001518249
0.0152426157146692
0.0150974141433835
0.0148557601496577
0.0144892036914825
0.0139388842508196
0.0131267011165618
0.0119770187884569
0.0104394266381859
0.0085043888539075
0.0062069846317172
0.0036222119815647
0.0008582130540162
-0.0019533466547727
-0.004671785980463
-0.0071633057668805
-0.0093135116621851
-0.0110356491059064
-0.0122760031372308
-0.0130166141316294
-0.0132748931646347
-0.0131009928882122
-0.0125730587169528
-0.0117882061749696
-0.0108490008860826
-0.0098525248467922
-0.0088865989819169
-0.0080255400389432
-0.0073206224478781
-0.006792003288865
-0.0064271837472915
-0.0061841607093811
-0.0059982994571328
-0.0057931710034608
-0.0054926793090999
-0.0050324918702244
-0.0043690558522939
-0.0034829890355467
-0.0023782413918524
-0.00107954419218
0.0003744105342775
0.0019390804227441
0.003566027386114
0.0052035693079233
0.0068026361986994
0.0083220209926366
0.0097298957407474
0.0110050085932016
0.0121368691325187
0.0131237059831619
0.01397006213665
0.0146848866716027
0.015279565937817
0.0157657824456691
0.0161537043750286
0.0164519287645816
0.0166689790785312
0.0168101731687784
0.0168675109744071
0.0168116185814142
0.016591565683484
0.0161382183432579
0.0153678394854068
0.0141898356378078
0.0125231156125664
0.0103158643469214
0.0075599723495543
0.0042993435636162
0.0006327000446617
-0.0032926811836659
-0.0072971354238688
-0.0111883971840143
-0.014779282733798
-0.0179062467068433
-0.0204496327787637
-0.0223451815545558
-0.0235803686082363
-0.0241831354796886
-0.0242117941379547
-0.0237465035170316
-0.0228810757398605
-0.0217161737382411
-0.020353227853775
-0.0188879296183586
-0.017404593527317
-0.0159710794687271
-0.0146332457661628
-0.0134102115407586
-0.012291844934225
-0.0112427603453397
-0.0102150505408644
-0.0091611007228493
-0.0080393711104989
-0.0068167056888341
-0.0054710116237401
-0.0039931386709213
-0.0023865206167101
-0.0006665519904345
0.0011386140249669
0.0029878986533731
0.0048309825360774
0.0066160829737782
0.008297667838633
0.0098426360636949
0.0112365139648318
0.0124829616397619
0.0135925523936748
0.0145729687064886
0.0154289780184626
0.0161657612770795
0.0167905911803245
0.017315037548542
0.017757399007678
0.0181406736373901
0.018484866246581
0.0187981259077787
0.0190704762935638
0.0192684605717659
0.0193308964371681
0.0191733296960592
0.0187019575387239
0.0178243461996316
0.0164542756974697
0.0145230647176504
0.011997926980257
0.0088956877589225
0.0052868355996906
0.0012911558151245
-0.002934995573014
-0.0072172037325799
-0.0113784838467836
-0.0152486991137266
-0.0186743736267089
-0.0215304791927337
-0.0237309318035841
-0.0252363942563533
-0.0260550528764724
-0.0262363981455564
-0.0258649624884128
-0.0250525567680597
-0.0239238943904638
-0.0225999820977449
-0.021183855831623
-0.0197491832077503
-0.0183335170149803
-0.0169377364218235
-0.0155329667031764
-0.0140739856287837
-0.0125127919018268
-0.0108085945248603
-0.008935559540987
-0.0068868738599121
-0.0046732896007597
-0.0023208213970065
0.0001284261234104
0.0026171633508056
0.0050799013115465
0.0074525554664433
0.0096807107329368
0.0117255058139562
0.0135656157508492
0.015194708481431
0.0166166350245475
0.017840102314949
0.0188734531402587
0.0197227746248245
0.0203943364322185
0.0208974219858646
0.0212461426854133
0.0214576981961727
0.0215455573052167
0.0215149503201246
0.0213626939803361
0.0210760757327079
0.0206305738538503
0.019986180588603
0.0190848931670188
0.0178589504212141
0.0162494927644729
0.0142245208844542
0.0117907728999853
0.0089987907558679
0.0059404205530881
0.0027415081858634
-0.0004491065628826
-0.0034785578027367
-0.0062138820067048
-0.0085588134825229
-0.0104579478502273
-0.011892095208168
-0.0128706358373165
-0.0134253371506929
-0.0136079518124461
-0.0134897343814373
-0.0131574943661689
-0.0127048809081316
-0.0122231394052505
-0.0117931067943573
-0.0114762913435697
-0.0113043375313282
-0.011271633207798
-0.0113394930958747
-0.0114517332985997
-0.0115499403327703
-0.0115810567513108
-0.0115000586956739
-0.0112713081762194
-0.0108690680935978
-0.0102778505533933
-0.0094932783395051
-0.0085224322974681
-0.0073821982368826
-0.0060962946154177
-0.0046933377161622
-0.0032057876233011
-0.0016676073428243
-0.0001094634644687
0.0014444938860833
0.0029730522073805
0.0044525070115923
0.0058563370257616
0.0071580922231078
0.0083351824432611
0.0093721412122249
0.0102567849680781
0.0109682809561491
0.0114668570458889
0.0116908708587288
0.0115614086389541
0.0109960045665502
0.0099279545247554
0.0083260210230946
0.0062133627943694
0.0036761707160621
0.0008531687781214
-0.002085022162646
-0.0049559865146875
-0.0075834123417735
-0.0098120775073766
-0.0115201994776725
-0.0126314293593168
-0.0131246037781238
-0.013034027069807
-0.0124387545511126
-0.0114480536431074
-0.0101869273930788
-0.0087812831625342
-0.0073441178537905
-0.005963475909084
-0.0046951519325375
-0.0035648425109684
-0.0025757781695574
-0.0017145653255283
-0.000954971765168
-0.0002627117792144
0.0003974087303504
0.0010547104757279
0.001729741343297
0.0024341028183698
0.0031698064412921
0.0039268992841243
0.0046823574230074
0.005404470488429
0.0060620186850428
0.0066332258284091
0.00710707064718
0.0074755856767296
0.0077286553569138
0.0078587243333458
0.0078690033406019
0.0077791605144739
0.0076258685439825
0.0074559208005666
0.0073155821301043
0.0072403065860271
0.0072437198832631
0.0073082032613456
0.0073823453858494
0.0073847486637532
0.0072138281539082
0.0067660911008715
0.0059566856361925
0.0047332239337265
0.0030848591122776
0.0010493120644241
-0.0012870588107034
-0.0037994319573044
-0.0063428878784179
-0.0087737366557121
-0.0109673663973808
-0.0128287486732006
-0.0142961293458938
-0.015342186205089
-0.0159744210541248
-0.0162304826080799
-0.0161662865430116
-0.0158422105014324
-0.0153168020769953
-0.0146504323929548
-0.0139071308076381
-0.0131449289619922
-0.0124020362272858
-0.0116907283663749
-0.0109997019171714
-0.0102988164871931
-0.0095448326319456
-0.0086892116814851
-0.0076860911212861
-0.0064991572871804
-0.0051068584434688
-0.0035051079466938
-0.0017075203359127
0.0002557830885052
0.0023379675112664
0.0044756438583135
0.006595850456506
0.0086269695311784
0.0105056716129183
0.0121810231357812
0.0136205647140741
0.0148160196840763
0.0157826300710439
0.0165517497807741
0.017160527408123
0.0176419503986835
0.01801747828722
0.0182931255549192
0.0184590574353933
0.0184903293848037
0.018344197422266
0.0179553497582674
0.0172380954027175
0.016100313514471
0.0144647229462862
0.0122913718223571
0.0095956418663263
0.0064557688310742
0.0030073006637394
-0.000574851874262
-0.0041017094627022
-0.0073932744562625
-0.0102946702390909
-0.0126856295391917
-0.0144819803535938
-0.0156330484896898
-0.0161251071840524
-0.0159908309578895
-0.0153113799169659
-0.0142041631042957
-0.0128053147345781
-0.0112556330859661
-0.0096865966916084
-0.0082040354609489
-0.0068754963576793
-0.0057259709574282
-0.0047425059601664
-0.0038866070099174
-0.0031099254265427
-0.0023666159249842
-0.0016183317638933
-0.0008332557044923
1.3011973351240158e-05
0.0009293048642575
0.0019021364860236
0.0028999601490795
0.00388525868766
0.0048265717923641
0.0057050255127251
0.0065146447159349
0.0072598815895617
0.0079535748809576
0.0086160264909267
0.0092733511701226
0.0099523244425654
0.0106734251603484
0.0114493900910019
0.0122887874022126
0.0131923872977495
0.0141405956819653
0.0150853246450424
0.015951870009303
0.016644624993205
0.0170542001724243
0.0170683618634939
0.0165861938148736
0.0155332572758197
0.0138765638694167
0.0116360476240515
0.0088870702311396
0.0057530412450432
0.0023920219391584
-0.0010202905395999
-0.0043089417740702
-0.0073185637593269
-0.009931219741702
-0.0120762716978788
-0.0137296915054321
-0.0149074112996459
-0.0156551916152238
-0.0160360857844352
-0.0161192025989294
-0.0159728489816188
-0.015659749507904
-0.0152315180748701
-0.0147248255088925
-0.0141610736027359
-0.013546367175877
-0.0128696002066135
-0.0121025675907731
-0.0112074995413422
-0.0101507930085062
-0.0089165084064006
-0.0075134462676942
-0.0059718191623687
-0.0043343622237443
-0.0026494115591049
-0.0009648876730352
0.0006771053886041
0.0022423032205551
0.0037039725575596
0.0050415256991982
0.006239365786314
0.0072876149788498
0.0081842262297868
0.0089368987828493
0.0095599731430411
0.0100653450936079
0.0104578398168087
0.0107396272942423
0.0109154479578137
0.0109952008351683
0.0109962401911616
0.0109418667852878
0.0108517240732908
0.0107275824993848
0.0105415228754282
0.0102325305342674
0.0097147785127162
0.0088962465524673
0.0077031049877405
0.0061019309796392
0.0041095945052802
0.001788321416825
-0.0007654945366084
-0.003432314377278
-0.0060812239535152
-0.0085821896791458
-0.0108173163607716
-0.0126910833641886
-0.0141370370984077
-0.0151190077885985
-0.0156311392784118
-0.0156993046402931
-0.0153786232694983
-0.0147458128631114
-0.0138901676982641
-0.0129025802016258
-0.0118667315691709
-0.0108578316867351
-0.0099405068904161
-0.0091590853407979
-0.0085276076570153
-0.0080274688079953
-0.0076139462180435
-0.0072271609678864
-0.006802063435316
-0.0062779774889349
-0.0056086396798491
-0.0047688703052699
-0.0037554465234279
-0.0025843065232038
-0.0012847709003835
0.0001092362217605
0.0015638195909559
0.0030417654197663
0.0045008137822151
0.0058993557468056
0.0072023249231278
0.008381925523281
0.0094179511070251
0.0103019699454307
0.0110408933833241
0.0116555094718933
0.0121758626773953
0.0126352673396468
0.0130626428872346
0.0134745836257934
0.0138698555529117
0.0142272412776947
0.0145025849342346
0.0146221658214926
0.0144821116700768
0.0139648094773292
0.012967437505722
0.0114287603646516
0.0093455743044614
0.0067785517312586
0.0038484316319227
0.0007215118966996
-0.0024130002129822
-0.005368014331907
-0.007981271483004
-0.0101315081119537
-0.0117450132966041
-0.0127947628498077
-0.0132983215153217
-0.0133155882358551
-0.0129412319511175
-0.012291369959712
-0.01148790307343
-0.0106410039588809
-0.0098334476351737
-0.0091140791773796
-0.008500232361257
-0.0079826405271887
-0.0075308820232748
-0.0071016680449247
-0.0066492222249507
-0.0061335428617894
-0.0055245743133127
-0.0048032207414507
-0.0039628525264561
-0.0030141684692353
-0.0019867182709276
-0.0009216388571076
0.0001383957715006
0.0011574330274015
0.0021124309860169
0.0029955273494124
0.0038133098278194
0.0045842938125133
0.0053321770392358
0.0060766572132706
0.0068271136842668
0.007581939920783
0.008334326557815
0.0090802824124693
0.0098199723288416
0.0105493031442165
0.0112507874146103
0.0118954330682754
0.0124541027471423
0.0129039054736495
0.0132224522531032
0.0133775249123573
0.0133205968886613
0.0129870837554335
0.0123038226738572
0.0112012103199958
0.0096267107874155
0.007559158373624
0.0050210743211209
0.0020841602236032
-0.0011364165693521
-0.0045004119165241
-0.0078641138970851
-0.0110928080976009
-0.0140639524906873
-0.016668252646923
-0.0188129562884569
-0.0204287879168987
-0.0214780904352664
-0.0219580847769975
-0.0218980573117733
-0.0213553570210933
-0.0204110238701105
-0.0191615056246519
-0.0177061147987842
-0.0161336995661258
-0.014514971524477
-0.012904287315905
-0.0113437110558152
-0.0098605779930949
-0.0084620499983429
-0.0071357679553329
-0.005856919568032
-0.0045948922634124
-0.0033179761376231
-0.0019992014858871
-0.0006228070706129
0.0008112622890621
0.0022863890044391
0.0037725029978901
0.0052337609231472
0.0066391103900969
0.0079680560156703
0.0092057045549154
0.0103344777598977
0.0113321151584386
0.0121767101809382
0.0128548629581928
0.0133682405576109
0.0137353306636214
0.0139876678586006
0.0141626810654997
0.0142966359853744
0.0144200846552848
0.0145562049001455
0.0147192757576704
0.0149117521941661
0.015121404081583
0.0153154963627457
0.0154303191229701
0.015367042273283
0.015003765001893
0.0142189348116517
0.0129178687930107
0.0110572064295411
0.0086582247167825
0.0058050220832228
0.002634241245687
-0.0006809609476476
-0.0039538219571113
-0.007009407505393
-0.009705732576549
-0.0119439791887998
-0.0136663541197776
-0.0148520525544881
-0.0155193302780389
-0.0157269686460495
-0.0155674908310174
