bvp
0.0237837601453065
0.0216970331966877
0.0189006868749856
0.0153918405994772
0.0112462723627686
0.0066112466156482
0.0016814917325973
-0.0033294432796537
-0.0082139680162072
-0.0127894710749387
-0.016909684985876
-0.0204532518982887
-0.0232849717140197
-0.0252245310693979
-0.0260594934225082
-0.0256011597812175
-0.0237573739141225
-0.0205918103456497
-0.0163457281887531
-0.0114201186224818
-0.0063330940902233
-0.0016596985515207
0.0020441133528947
0.0043186303228139
0.0048610130324959
0.003562205703929
0.0005188107024878
-0.0039799408987164
-0.0094889504835009
-0.0154607342556118
-0.0213005803525447
-0.0264122318476438
-0.0302381236106157
-0.0323059819638729
-0.0322822295129299
-0.0300193522125482
-0.0255900118499994
-0.0193046778440475
-0.0116945747286081
-0.0034411158412694
0.004736054688692
0.0121935904026031
0.0184480771422386
0.0232195388525724
0.026440143585205
0.0282334964722394
0.0288698952645063
0.0287034921348094
0.0281012598425149
0.0273814294487237
0.0267750825732946
0.0264118630439043
0.0263219252228736
0.0264475401490926
0.0266656745225191
0.0268191397190094
0.0267451778054237
0.0262963995337486
0.0253555960953235
0.0238447599112987
0.0217310227453708
0.0190306659787893
0.0158076137304306
0.0121656768023967
0.0082355048507452
0.0041580712422728
7.266737520694733e-05
-0.0038858195766806
-0.007590071298182
-0.0109319854527711
-0.0138346459716558
-0.0162571854889392
-0.0181949138641357
-0.0196753460913896
-0.0207508336752653
-0.0214923936873674
-0.0219831112772226
-0.0223058741539716
-0.0225303210318088
-0.02270626462996
-0.022860987111926
-0.0229962766170501
-0.0230859704315662
-0.0230771824717521
-0.0229015238583087
-0.0224970653653144
-0.0218280255794525
-0.0208900943398475
-0.0197050031274557
-0.0183144509792327
-0.0167753584682941
-0.0151543263345956
-0.0135219451040029
-0.0119458036497235
-0.0104818362742662
-0.0091697080060839
-0.0080341808497905
-0.0070860623382031
-0.0063178846612572
-0.0056981611996889
-0.0051753111183643
-0.0046934629790484
-0.0042066690512001
-0.0036842820700258
-0.0031140947248786
-0.0025085140950977
-0.001912108855322
-0.0014045013813301
-0.0010933375451713
-0.00109743187204
-0.0015224377857521
-0.0024338203947991
-0.0038364473730325
-0.0056668580509722
-0.0077968444675207
-0.0100472420454025
-0.0122137265279889
-0.0140993231907486
-0.0155404172837734
-0.0164193306118249
-0.0166660211980342
-0.0162555482238531
-0.0152063760906457
-0.0135781439021229
-0.0114672193303704
-0.0090007605031132
-0.0063272044062614
-0.0036003720015287
-0.0009596673771739
0.001486032269895
0.0036678547039628
0.0055619534105062
0.007186496630311
0.0085890125483274
0.0098308101296424
0.0109738688915967
0.0120732858777046
0.0131746996194124
0.0143114309757947
0.0154998833313584
0.016737125813961
0.0180041305720806
0.0192731786519289
0.0205133147537708
0.0216919817030429
0.0227775778621435
0.0237452704459428
0.024582415819168
0.0252871606498956
0.0258609857410192
0.0263054631650447
0.0266257096081972
0.0268328227102756
0.0269422642886638
0.0269699543714523
0.026924991980195
0.0267972033470869
0.0265438798815011
0.0260848421603441
0.0253108236938714
0.0241020694375038
0.0223500188440084
0.0199792571365833
0.0169703401625156
0.0133747979998588
0.0093117905780673
0.0049515492282807
0.0004959715297445
-0.0038415105082094
-0.0078565971925854
-0.0113718844950199
-0.0142502430826425
-0.0164056755602359
-0.0178096946328878
-0.018489645794034
-0.0185203291475772
-0.0180126316845417
-0.0171011481434106
-0.0159285571426153
-0.0146264098584651
-0.013302038423717
-0.0120375342667102
-0.0108908619731664
-0.009891677647829
-0.0090368948876857
-0.0082919504493474
-0.0076002851128578
-0.006898246705532
-0.0061282133683562
-0.005246115848422
-0.0042246067896485
-0.0030545650515705
-0.0017458694055676
-0.0003265565028414
0.0011611393420025
0.0026688964571803
0.0041502229869365
0.0055624330416321
0.0068667978048324
0.0080336742103099
0.0090480763465166
0.0099085150286555
0.0106223691254854
0.0112017393112182
0.011655050329864
0.0119726797565817
0.0121144633740186
0.0120053272694349
0.0115401614457368
0.0106002511456608
0.0090813376009464
0.0069228033535182
0.0041243890300393
0.0007495479658246
-0.0030778115615248
-0.0071833385154604
-0.0113611305132508
-0.015396324917674
-0.019085394218564
-0.0222527310252189
-0.0247625447809696
-0.0265258401632308
-0.0275059361010789
-0.0277227442711591
-0.027249488979578
-0.0262013562023639
-0.0247196890413761
-0.0229526851326227
-0.0210392698645591
-0.0190999507904052
-0.0172287486493587
-0.0154857356101274
-0.0138943884521722
-0.0124432798475027
-0.0110905952751636
-0.0097728334367275
-0.0084175746887922
-0.006956844124943
-0.0053386245854198
-0.0035344765055924
-0.001542146783322
0.0006146216765046
0.0028905204962939
0.0052295140922069
0.0075727868825197
0.0098572615534067
0.0120147168636322
0.0139805171638727
0.0157080553472042
0.0171797722578048
0.0184078309684991
0.0194238908588886
0.0202646255493164
0.0209589302539825
0.0215147025883197
0.0219043437391519
0.0220567099750041
0.0218605957925319
0.0211798790842294
0.0198808275163173
0.0178624484688043
0.0150768281891942
0.0115403737872838
0.0073394868522882
0.0026272640097886
-0.0023884908296167
-0.0074645364657044
-0.0123497983440756
-0.0168140437453985
-0.0206650178879499
-0.0237560216337442
-0.0259938575327396
-0.0273428801447153
-0.0278193224221467
-0.0274818670004606
-0.0264229960739612
-0.0247623454779386
-0.0226416364312171
-0.0202149786055088
-0.0176324993371963
-0.0150228617712855
-0.01247991155833
-0.0100573878735303
-0.0077713560312986
-0.0056073032319545
-0.0035306103527545
-0.0014978591352701
0.0005332641303539
0.0025956155732274
0.0047084828838706
0.0068796863779425
0.0091083059087395
0.0113802570849657
0.0136600527912378
0.0158916898071765
0.0180110838264226
0.0199591200798749
0.0216895472258329
0.0231743194162845
0.0244069974869489
0.0254006590694189
0.0261812731623649
0.026782464236021
0.0272425971925258
0.0276012979447841
0.0278948321938514
0.0281519033014774
0.0283902343362569
0.0286064390093088
0.0287541355937719
0.0287259742617607
0.0283596813678741
0.0274659898132085
0.025863604620099
0.0234123598784208
0.0200408082455396
0.0157652609050273
0.0106971347704529
0.005034343805164
-0.0009625451639294
-0.0070015299133956
-0.0127919409424066
-0.018073596060276
-0.0226357467472553
-0.0263292640447616
-0.0290779117494821
-0.0308807455003261
-0.0317993760108947
-0.0319394394755363
-0.031434491276741
-0.0304313041269779
-0.0290763527154922
-0.0275039486587047
-0.0258256457746028
-0.0241232216358184
-0.0224470514804124
-0.020817145705223
-0.0192238204181194
-0.0176306832581758
-0.0159841962158679
-0.0142292715609073
-0.0123244253918528
-0.0102501800283789
-0.0080117229372262
-0.005637336988002
-0.003171136137098
-0.0006639530183747
0.0018316096393391
0.0042634345591068
0.0065840655006468
0.0087561663240194
0.010755343362689
0.0125690381973981
0.0141945742070674
0.0156395565718412
0.0169227682054042
0.0180693697184324
0.0190990976989269
0.0200167130678892
0.0208128150552511
0.0214730538427829
0.0219888091087341
0.0223628766834735
0.0226089600473642
0.02274876460433
0.0228083990514278
0.0228126011788845
0.0227768868207931
0.0226997788995504
0.0225562751293182
0.0222928449511528
0.0218237526714801
0.0210281461477279
0.019754022359848
0.017838928848505
0.0151444775983691
0.0115913236513733
0.007184412330389
0.0020233020186424
-0.0037044789642095
-0.0097455391660332
-0.0158124826848506
-0.0216179955750703
-0.0269046500325202
-0.0314658619463443
-0.0351570174098014
-0.0378967896103858
-0.0396605432033538
-0.0404745265841484
-0.0404148995876312
-0.0396031253039836
-0.038192793726921
-0.0363523513078689
-0.0342474766075611
-0.0320250540971756
-0.0298003107309341
-0.0276487134397029
-0.0256038308143615
-0.0236588157713413
-0.0217723585665226
-0.0198836028575897
-0.017930518835783
-0.0158614162355661
-0.0136385466903448
-0.0112407933920621
-0.0086702238768339
-0.0059572556056082
-0.0031571926083415
-0.0003405385650694
0.0024170479737222
0.0050452374853193
0.007490212097764
0.0097209829837083
0.0117282634600996
0.0135200014337897
0.0151166208088397
0.0165454875677824
0.0178350005298852
0.0190112497657537
0.0200978890061378
0.021114295348525
0.0220688804984092
0.0229531973600387
0.0237439088523387
0.0244122669100761
0.0249347370117902
0.0252993535250425
0.0255079045891761
0.0255745388567447
0.0255202688276767
0.025365563109517
0.0251224301755428
0.0247860662639141
0.0243266001343727
0.0236831549555063
0.022764004766941
0.0214509535580873
0.0196073614060878
0.0170989595353603
0.0138281462714076
0.0097672762349247
0.0049780150875449
-0.0003869328647851
-0.006100146099925
-0.0118908574804663
-0.0174805521965026
-0.022612914443016
-0.0270758029073476
-0.0307145118713378
-0.0334369987249374
-0.0352134257555007
-0.0360702164471149
-0.0360827036201953
-0.035369649529457
-0.0340830907225608
-0.0323915444314479
-0.0304621439427137
-0.02844232134521
-0.0264427997171878
-0.0245281644165515
-0.0227184891700744
-0.0209998041391372
-0.0193358063697814
-0.0176761467009782
-0.0159648135304451
-0.0141496928408741
-0.0121873635798692
-0.0100442683324217
-0.0077044502831995
-0.0051821223460137
-0.0025244988501071
0.0001987358555197
0.0029101341497153
0.0055366130545735
0.0080181183293461
0.0103125404566526
0.0123961586505174
0.0142609002068638
0.0159110277891159
0.0173611640930175
0.0186351835727691
0.0197636634111404
0.0207788776606321
0.0217102281749248
0.0225808694958686
0.0234017390757799
0.0241663716733455
0.0248539242893457
0.0254385806620121
0.0258976109325885
0.0262153204530477
0.0263860691338777
0.0264164563268423
0.0263232812285423
0.0261277183890342
0.0258474368602037
0.0254862047731876
0.0250231530517339
0.0244057811796665
0.0235482156276702
0.022334324195981
0.0206262320280075
0.0182834453880786
0.0151945883408188
0.0113123757764697
0.0066785020753741
0.0014284420758485
-0.0042241569608449
-0.0100145861506462
-0.0156603790819644
-0.0208961740136146
-0.0254998877644538
-0.029306411743164
-0.0322138927876949
-0.0341842211782932
-0.0352367423474788
-0.0354402065277099
-0.0349066406488418
-0.0337831303477287
-0.0322375111281871
-0.0304378699511289
-0.0285321436822414
-0.0266357436776161
-0.0248257331550121
-0.0231377091258764
-0.0215678717941045
-0.020081665366888
-0.0186245031654834
-0.017131870612502
-0.015541324391961
-0.0138030787929892
-0.0118830054998397
-0.0097649553790688
-0.0074583422392606
-0.005001111421734
-0.0024515716359019
0.0001240037381649
0.002660296158865
0.0050975554622709
0.0073853624053299
0.0094869770109653
0.0113815609365701
0.0130625730380415
0.0145348813384771
0.0158140137791633
0.0169266201555728
0.0179077163338661
0.0187946483492851
0.0196197405457496
0.0204020626842975
0.0211434457451105
0.021831601858139
0.022445298731327
0.0229598060250282
0.023354148492217
0.0236163381487131
0.0237433724105358
0.0237399414181709
0.0236172135919332
0.0233880802989006
0.0230607893317937
0.0226320549845695
0.0220769047737121
0.0213399715721607
0.0203318018466234
0.0189305767416954
0.0169979128986597
0.0144112966954708
0.0110996793955564
0.0070684626698493
0.0024082912132143
-0.0027114516124129
-0.0080599021166563
-0.0133709572255611
-0.0183755923062562
-0.0228333100676536
-0.0265576858073472
-0.0294305104762315
-0.0314014256000518
-0.0324797295033931
-0.0327277705073356
-0.0322561301290988
-0.0312128290534019
-0.0297656636685132
-0.0280841179192066
-0.0263222083449363
-0.0246022548526525
-0.0230034980922937
-0.0215579029172658
-0.020252775400877
-0.0190400462597608
-0.0178508274257183
-0.0166105534881353
-0.0152498902752995
-0.0137109281495213
-0.0119520863518118
-0.0099545819684863
-0.0077293645590543
-0.0053197131492197
-0.0027959351427853
-0.000243472866714
0.0022525796666741
0.0046217432245612
0.0068149855360388
0.0088050225749611
0.0105846850201487
0.012162959203124
0.0135587789118289
0.0147951636463403
0.0158949941396713
0.0168800316751003
0.0177729502320289
0.0185961239039897
0.0193634908646345
0.0200741998851299
0.020715806633234
0.0212715603411197
0.0217252466827631
0.022063735872507
0.022278256714344
0.0223661568015813
0.0223339535295963
0.022196615114808
0.0219681039452552
0.0216459259390831
0.0211978293955326
0.0205568894743919
0.0196269638836383
0.0182953365147113
0.0164485238492488
0.0139931067824363
0.0108817256987094
0.0071363435126841
0.0028580599464476
-0.0017809774726629
-0.0065585481934249
-0.011229608207941
-0.0155546646565198
-0.0193246006965637
-0.0223796665668487
-0.0246221590787172
-0.0260233208537101
-0.0266216285526752
-0.0265089739114046
-0.0258131735026836
-0.024687485769391
-0.0233001373708248
-0.0218145083636045
-0.0203673429787158
-0.0190545096993446
-0.0179247502237558
-0.0169799234718084
-0.0161811467260122
-0.0154601344838738
-0.0147337960079312
-0.0139187863096594
-0.0129431607201695
-0.0117531474679708
-0.0103159714490175
-0.0086212083697319
-0.0066828369162976
-0.0045428434386849
-0.0022708438336849
4.632025957107544e-05
0.0023206369951367
0.0044757528230547
0.0064538437873125
0.0082187661901116
0.0097563322633504
0.0110710365697741
0.0121808741241693
0.0131129045039415
0.0138994622975587
0.0145734632387757
0.0151652041822671
0.0157039612531662
0.0162178818136453
0.0167245902121067
0.0172189958393573
0.0176664721220731
0.0179994702339172
0.0181165188550949
0.0178903527557849
0.0171868838369846
0.0158866997808218
0.0139059610664844
0.011217962950468
0.0078681772574782
0.0039756088517606
-0.0002768477424979
-0.0046582999639213
-0.0089115183800458
-0.0127822831273078
-0.0160540379583835
-0.0185757130384445
-0.0202715918421745
-0.021135626360774
-0.0212203580886125
-0.0206258054822683
-0.0194872468709945
-0.0179609507322311
-0.0162085797637701
-0.0143816675990819
-0.0126072950661182
-0.0109752900898456
-0.0095309801399707
-0.0082769114524126
-0.0071795806288719
-0.0061799678951501
-0.005209223832935
-0.0042031677439808
-0.0031101033091545
-0.0018946705386042
-0.0005403254181146
0.0009513953700661
0.0025646765716373
0.0042726756073534
0.0060394401662051
0.0078226886689662
0.0095783248543739
0.011265036650002
0.0128473471850156
0.014298802241683
0.0156057365238666
0.0167649891227483
0.0177730284631252
0.0186158418655395
0.0192660614848136
0.019683027639985
0.0198111943900585
0.0195793360471725
0.0189044624567031
0.0177005939185619
0.0158923994749784
0.0134337646886706
0.0103278830647468
0.0066409651190042
0.0025019568856805
-0.0019089251291006
-0.0063747921958565
-0.0106625780463218
-0.0145540814846754
-0.017876336351037
-0.0205163825303316
-0.0224204994738101
-0.0235877092927694
-0.0240627769380807
-0.0239268541336059
-0.0232841745018959
-0.0222475677728652
-0.0209270808845758
-0.0194223709404468
-0.0178164057433605
-0.0161695200949907
-0.0145146343857049
-0.0128560019657015
-0.0111764324828982
-0.0094515113160014
-0.0076616397127509
-0.0057976888492703
-0.0038624294102191
-0.0018701003864407
0.0001550139859318
0.0021829511970281
0.0041851326823234
0.0061389654874801
0.0080291461199522
0.0098483096808195
0.01159543171525
0.013271315023303
0.0148761989548802
0.0164125636219978
0.0178862698376178
0.0192992035299539
0.0206420570611953
0.0218963660299778
0.0230387225747108
0.0240412484854459
0.0248710997402668
0.0254867114126682
0.0258291251957416
0.025814726948738
0.0253355614840984
0.0242706146091222
0.0225058738142251
0.0199571345001459
0.0165955126285552
0.012470276094973
0.0077122673392295
0.0025151688605546
-0.0028893889393657
-0.0082530993968248
-0.013330802321434
-0.0179005041718482
-0.0217803101986646
-0.0248380638659
-0.0269944369792938
-0.0282233543694019
-0.0285496897995471
-0.0280423928052186
-0.0268047861754894
-0.0249660201370716
-0.0226733963936567
-0.0200813841074705
-0.0173399485647678
-0.0145881455391645
-0.0119485780596733
-0.0095162950456142
-0.0073466394096612
-0.0054497914388775
-0.0037926249206066
-0.0023054368793964
-0.0008939355611801
0.0005433056503534
0.0020954832434654
0.00382468290627
0.0057589211501181
0.0078915683552622
0.0101868622004985
0.0125906877219676
0.0150380358099937
0.0174523200839757
0.019747044891119
0.0218374505639076
0.0236538797616958
0.025149542838335
0.0263059306889772
0.027135856449604
0.0276768859475851
0.0279780365526676
0.0280903130769729
0.0280601903796196
0.0279185082763433
0.0276653561741113
0.0272584129124879
0.0266122482717037
0.0256067160516977
0.0240979343652725
0.0219380445778369
0.0190088152885437
0.0152560006827116
0.0107101183384656
0.0054884646087884
-0.0002206126227974
-0.0061835856176912
-0.0121499579399824
-0.0178793333470821
-0.0231628939509391
-0.0278352089226245
-0.0317767411470413
-0.0349086262285709
-0.0371841639280319
-0.0385868810117244
-0.0391370877623558
-0.0388963632285594
-0.0379620008170604
-0.0364538580179214
-0.0344999209046363
-0.0322232916951179
-0.0297309830784797
-0.0271056611090898
-0.0244021154940128
-0.0216503180563449
-0.0188627019524574
-0.0160407945513725
-0.0131811778992414
-0.0102806771174073
-0.0073386915028095
-0.0043615414761006
-0.0013714591041207
0.001589614432305
0.0044665085151791
0.0072010746225714
0.0097423056140542
0.0120552098378539
0.0141245201230049
0.0159527957439422
0.0175567585974931
0.0189632289111614
0.0202046278864145
0.0213154461234807
0.0223300755023956
0.0232818629592657
0.0242020320147275
0.0251146014779806
0.0260281078517436
0.0269316043704748
0.0277989190071821
0.028597991913557
0.0292987674474716
0.0298732779920101
0.0302879847586154
0.0304932948201894
0.0304135866463184
0.0299421418458223
0.0289458744227886
0.0272796601057052
0.0248088333755731
0.0214393399655818
0.0171481724828481
0.0120013672858476
0.0061521250754594
-0.0001781955361366
-0.0067264242097735
-0.0132143665105104
-0.0193742848932743
-0.0249697305262088
-0.0298101734369993
-0.0337623134255409
-0.0367588475346565
-0.0388036258518695
-0.0399708002805709
-0.0403918251395225
-0.0402294248342514
-0.0396481901407241
-0.0387906730175018
-0.0377633497118949
-0.0366334393620491
-0.0354301370680332
-0.0341451615095138
-0.0327372476458549
-0.0311440769582986
-0.0292980447411537
-0.027140524238348
-0.0246323607861995
-0.0217628851532936
-0.0185577943921089
-0.0150830438360571
-0.0114422524347901
-0.0077662318944931
-0.0041942326352
-0.0008501870906911
0.0021740770898759
0.0048219403252005
0.0070701804943382
0.0089287795126438
0.0104399090632796
0.0116718281060457
0.0127072315663099
0.0136319855228066
0.0145271308720111
0.0154617186635732
0.0164875052869319
0.0176358371973037
0.0189135819673538
0.0203021112829446
0.0217650681734085
0.0232590679079294
0.0247388258576393
0.0261575914919376
0.0274681653827428
0.0286260824650526
0.0295932963490486
0.0303401425480842
0.0308431349694728
0.0310769826173782
0.0310035943984985
0.030564097687602
0.0296781100332736
0.0282503236085176
0.0261844210326671
0.0234043151140213
0.0198793597519397
0.0156465657055377
0.0108177848160266
0.005564983934164
9.533669799566268e-05
-0.005370469763875
-0.0106159010902047
-0.0154445096850395
-0.0196935050189495
-0.023242438212037
-0.026016067713499
-0.0279852263629436
-0.0291674453765153
-0.0296235755085945
-0.0294504575431346
-0.0287726856768131
-0.0277298055589199
-0.0264577493071556
-0.0250754952430725
-0.0236823111772537
-0.0223550423979759
-0.0211389660835266
-0.0200393758714199
-0.0190234221518039
-0.0180334448814392
-0.017003659158945
-0.0158724505454301
-0.0145910717546939
-0.0131317423656582
-0.0114919487386941
-0.0096924994140863
-0.0077734403312206
-0.0057876585051417
-0.0037894551642239
-0.0018257030751556
6.478140130639076e-05
0.0018501577433198
0.0035075373016297
0.0050262622535228
0.0064086355268955
0.0076664546504616
0.0088166510686278
0.009878359735012
0.0108707537874579
0.0118109118193387
0.0127110872417688
0.0135759823024272
0.0144018847495317
0.0151795847341418
0.0159007180482149
0.0165602322667837
0.0171509683132171
0.0176608189940452
0.0180782601237297
0.018396308645606
0.0186086557805538
0.0187015980482101
0.0186451226472854
0.0183842182159423
0.0178336836397647
0.0168836396187543
0.0154189681634306
0.0133457938209176
0.0106162196025252
0.0072486791759729
0.0033415369689464
-0.0009328592568635
-0.0053591160103678
-0.0097141005098819
-0.0137880444526672
-0.0173962898552417
-0.0203918106853961
-0.0226784236729145
-0.0242181979119777
-0.0250301714986562
-0.0251829754561185
-0.024784417822957
-0.0239690989255905
-0.0228834301233291
-0.0216673891991376
-0.0204345285892486
-0.0192567761987447
-0.0181631743907928
-0.0171509589999914
-0.0161969922482967
-0.015264743939042
-0.0143096204847097
-0.013283803127706
-0.0121416235342621
-0.01084665954113
-0.0093791205435991
-0.0077406070195138
-0.0059543289244174
-0.004060345236212
-0.0021072651725262
-0.0001450966810807
0.0017785622039809
0.003622533287853
0.005353782325983
0.0069422498345375
0.0083581693470478
0.0095787849277257
0.0105957742780447
0.0114179598167538
0.012071143835783
0.0125944595783948
0.0130332102999091
0.0134308440610766
0.0138209797441959
0.0142198894172906
0.0146215641871094
0.0149943092837929
0.0152776567265391
0.0153828673064708
0.0151967080309987
0.0145886344835162
0.0134286899119615
0.0116170477122068
0.0091140838339924
0.0059583317488431
0.0022674957290291
-0.0017734887078404
-0.0059334142133593
-0.0099638598039746
-0.0136300567537546
-0.0167347434908151
-0.0191336162388324
-0.0207427944988012
-0.0215368587523698
-0.0215414073318243
-0.0208272207528352
-0.0195075757801532
-0.0177316348999738
-0.0156673938035964
-0.013478672131896
-0.0113056469708681
-0.0092525007203221
-0.0073804459534585
-0.0057055735960602
-0.0042035980150103
-0.0028214398771524
-0.0014903489500284
-0.0001370087265968
0.0013047913089394
0.0028831148520112
0.0046226480044424
0.0065218610689044
0.0085489340126514
0.0106432242318987
0.0127265248447656
0.0147195430472493
0.0165558643639087
0.0181877631694078
0.0195858292281627
0.0207384191453456
0.02165113016963
0.0223425403237342
0.0228378642350435
0.0231656543910503
0.0233575142920017
0.023447273299098
0.0234683882445096
0.0234469454735517
0.0233881007879972
0.0232618115842342
0.0229954775422811
0.022476889193058
0.0215683691203594
0.0201291758567094
0.0180411357432603
0.0152332047000527
0.0117010092362761
0.0075172786600887
0.0028294438961893
-0.0021558888256549
-0.007197605445981
-0.0120486542582511
-0.0164835546165704
-0.0203213263303041
-0.0234398450702428
-0.0257773976773023
-0.0273252204060554
-0.0281192157417535
-0.0282314270734787
-0.0277575273066759
-0.0268023498356342
-0.025470346212387
-0.0238633938133716
-0.0220796465873718
-0.0202066246420145
-0.0183103941380977
-0.0164275225251913
-0.0145633099600672
-0.0126966964453458
-0.0107915606349706
-0.0088119432330131
-0.0067348233424127
-0.0045555676333606
-0.0022866241633892
4.701362922787666e-05
0.0024112993851304
0.0047653103247284
0.0070650954730808
0.009268638677895
0.0113398982211947
0.0132511518895626
0.0149840470403432
0.0165301952511072
0.0178911816328763
0.0190782733261585
0.0201096031814813
0.0210030153393745
0.0217692740261554
0.022409476339817
0.0229174867272377
0.0232859849929809
0.0235107596963644
0.023592697456479
0.0235405638813972
0.0233720205724239
0.0231099501252174
0.0227770414203405
0.0223924182355403
0.0219698324799537
0.0215157512575387
0.0210255533456802
0.0204724743962287
0.0197909157723188
0.0188684090971946
0.0175562817603349
0.0156960152089595
0.0131527734920382
0.0098471036180853
0.0057773273438215
0.0010275626555085
-0.0042395461350679
-0.0098025295883417
-0.0154089638963341
-0.0208065994083881
-0.0257719364017248
-0.0301282480359077
-0.0337500125169754
-0.0365631878376007
-0.0385469123721122
-0.0397304445505142
-0.0401840656995773
-0.0400075241923332
-0.039315890520811
-0.0382257178425788
-0.0368459485471248
-0.0352720245718956
-0.0335798040032386
-0.0318208634853363
-0.0300217885524034
-0.0281866770237684
-0.0263024028390645
-0.0243457183241844
-0.022288916632533
-0.0201064199209213
-0.0177853479981422
-0.0153332557529211
-0.0127765042707324
-0.0101525513455271
-0.0075040385127067
-0.0048766625113785
-0.0023148627951741
0.0001455745659768
0.0024806493893265
0.004675893113017
0.0067248940467834
0.0086288815364241
0.0103942267596721
0.0120315412059426
0.0135577023029327
0.0149925090372562
0.0163497626781463
0.0176328662782907
0.0188358183950185
0.0199455358088016
0.0209459979087114
0.0218236073851585
0.0225713811814785
0.0231901239603757
0.023686446249485
0.0240702517330646
0.0243532843887805
0.0245469883084297
0.0246592108160257
0.0246935859322547
0.0246517490595579
0.0245280060917139
0.0242904014885425
0.0238621477037668
0.0231206715106964
0.0219162665307521
0.0201029796153306
0.0175722856074571
0.0142800835892558
0.0102611612528562
0.0056299292482435
0.0005681747570633
-0.0046980851329863
-0.0099273426458239
-0.0148887615650892
-0.0193802136927843
-0.0232398137450218
-0.0263565499335527
-0.0286795180290937
-0.0302169919013977
-0.0310245491564273
-0.0311914980411529
-0.0308280475437641
-0.0300514362752437
-0.0289741531014442
-0.0276950858533382
-0.0262929089367389
-0.0248236246407032
-0.0233211144804954
-0.021798150613904
-0.0202486831694841
-0.0186525508761405
-0.0169805735349655
-0.0151999508962035
-0.0132841318845748
-0.0112226717174053
-0.009023355320096
-0.0067091356031596
-0.0043139066547155
-0.0018784189596772
0.0005526011809706
0.0029337829910218
0.0052237813360989
0.0073885573074221
0.0094026196748018
0.0112499184906482
0.0129253724589943
0.0144367795437574
0.0158046036958694
0.0170557014644145
0.0182113256305456
0.0192802045494318
0.0202637817710638
0.0211643613874912
0.0219869799911975
0.0227368492633104
0.0234161596745252
0.0240220036357641
0.0245475172996521
0.024984611198306
0.0253246799111366
0.0255593825131654
0.0256832968443632
0.0256973095238208
0.0256120953708887
0.0254458133131265
0.0252125952392816
0.024912990629673
0.0245334021747112
0.0240451283752918
0.0233979858458042
0.0225150696933269
0.0212938785552978
0.0196164213120937
0.0173699706792831
0.0144730601459741
0.0108971754088997
0.0066792471334338
0.0019249385222792
-0.0031966101378202
-0.0084674842655658
-0.0136472424492239
-0.0185072552412748
-0.0228607226163148
-0.0265784412622451
-0.0295900963246822
-0.0318751484155654
-0.0334496721625328
-0.0343570262193679
-0.0346644632518291
-0.0344594493508338
-0.033841535449028
-0.0329118743538856
-0.0317630320787429
-0.030472295358777
-0.0290985479950904
-0.0276786666363477
-0.0262275040149688
-0.0247457306832075
-0.023227384313941
-0.0216599907726049
-0.0200221054255962
-0.0182871036231517
-0.0164325255900621
-0.0144468396902084
-0.0123319877311587
-0.0101043479517102
-0.0077927112579345
-0.0054324059747159
-0.0030605681240558
-0.0007154080085456
0.0015664359088987
0.0037562006618827
0.0058332518674433
0.0077772857621312
0.0095657408237457
0.0111812092363834
0.0126181822270154
0.0138822458684444
0.0149849411100149
0.0159400179982185
0.0167634543031454
0.0174742266535758
0.0180912390351295
0.018628466874361
0.0190943274646997
0.0194938797503709
0.0198308248072862
0.0201109088957309
0.0203430633991956
0.0205340292304754
0.0206830706447362
0.0207823272794485
0.0208189748227596
0.0207770653069019
0.0206408705562353
0.0203947257250547
0.0200125202536582
0.0194436218589544
0.0186084881424903
0.0174064226448535
0.0157302822917699
0.0134871425107121
0.0106245707720518
0.0071535343304276
0.0031551793217658
-0.0012311735190451
-0.0058288136497139
-0.010443422012031
-0.0148808350786566
-0.018963199108839
-0.0225412063300609
-0.0255029220134019
-0.0277800802141428
-0.0293491072952747
-0.0302276238799095
-0.0304696951061487
-0.0301585178822278
-0.0293956734240055
-0.0282892230898141
-0.0269417874515056
-0.0254424698650836
-0.0238664709031581
-0.02227683365345
-0.0207217130810022
-0.0192278269678354
-0.0177942775189876
-0.0163925774395465
-0.0149751212447881
-0.0134874330833554
-0.0118801519274711
-0.0101194828748703
-0.0081935673952102
-0.0061130751855671
-0.0039075571112334
-0.0016187853179872
0.0007088747806847
0.0030342061072587
0.0053142705000936
0.0074985041283071
0.009534022770822
0.0113780330866575
0.0130066545680165
0.0144172608852386
0.0156260505318641
0.0166613478213548
0.0175550766289234
0.0183369889855384
0.0190327763557434
0.0196628086268901
0.0202401839196681
0.0207717753946781
0.0212627705186605
0.0217171721160411
0.0221308767795562
0.022486450150609
0.0227578822523355
0.0229211561381816
0.0229612942785024
0.0228717066347599
0.0226480942219495
0.022280566394329
0.0217450596392154
0.020994646474719
0.0199569296091794
0.0185436122119426
0.0166680011898279
0.0142650781199336
0.0113137084990739
0.0078519657254219
0.0039748824201524
-0.0001790979877114
-0.0044430568814277
-0.0086375698447227
-0.0125874653458595
-0.0161374695599079
-0.0191645510494709
-0.0215843804180622
-0.0233544781804084
-0.0244755782186985
-0.0249880105257034
-0.0249653160572052
-0.0245080310851335
-0.0237329844385385
-0.0227556563913822
-0.0216747038066387
-0.0205679722130298
-0.0194939635694026
-0.0184893254190683
-0.0175649840384721
-0.0167059078812599
-0.0158756859600543
-0.0150259602814912
-0.0141067430377006
-0.0130742080509662
-0.0118974205106496
-0.0105630522593855
-0.009075054898858
-0.0074509908445179
-0.0057174107059836
-0.0039045759476721
-0.0020442632958292
-0.0001729629002511
0.0016655782237648
0.0034245622809976
0.0050633633509278
0.0065552997402846
0.0078890556469559
0.0090651642531156
0.0100937411189079
0.0109951961785554
0.0117979496717453
0.0125313885509967
0.0132207898423075
0.0138862933963537
0.0145423654466867
0.0151962134987115
0.0158405043184757
0.0164383836090564
0.0169123448431491
0.0171474255621433
0.0170078221708536
0.0163618996739387
0.0151087511330842
0.0131998537108302
0.0106529835611581
0.0075558684766292
0.0040577985346317
0.000352376839146
-0.0033446189481765
-0.0068200924433767
-0.0098859006538987
-0.0123924780637025
-0.0142378956079483
-0.0153798051178455
-0.0158426165580749
-0.0157088413834571
-0.0150989582762122
-0.0141503671184182
-0.0130013627931475
-0.0117796501144766
-0.0105912927538156
-0.0095106037333607
-0.0085749868303537
-0.0077849766239523
-0.0071090669371187
-0.0064947209320962
-0.0058801132254302
-0.0051994170062243
-0.0043886005878448
-0.0033993925899267
-0.0022126310504972
-0.0008406047709286
0.0006819209083914
0.0023109023459255
0.0040008630603551
0.0057065272703766
0.007383937947452
0.0089916940778493
0.0104917613789439
0.0118519132956862
0.0130493277683854
0.0140728112310171
0.0149243809282779
0.0156215000897645
0.0161940529942512
0.0166728496551513
0.0170787665992975
0.0174196064472198
0.0176924839615821
0.0178858395665884
0.017975814640522
0.0179171785712242
0.0176348257809877
0.0170249696820974
0.0159705840051174
0.01436423137784
0.0121298879384994
0.0092428550124168
0.0057468083687126
0.0017608471680432
-0.0025321987923234
-0.0069147078320384
-0.0111675597727298
-0.0150972595438361
-0.0185519475489854
-0.0214263908565044
-0.0236603133380413
-0.0252329800277948
-0.0261581055819988
-0.0264808423817157
-0.0262718386948108
-0.0256181359291076
-0.0246163718402385
-0.0233666189014911
-0.0219612140208482
-0.0204728487879037
-0.018950967118144
-0.0174266155809164
-0.01591756939888
-0.0144282858818769
-0.012948203831911
-0.0114540662616491
-0.0099171325564384
-0.0083108339458704
-0.00661381194368
-0.0048103011213243
-0.0028941933996975
-0.0008758585900068
0.0012162388302385
0.0033416477963328
0.0054581346921622
0.0075307330116629
0.0095326276496052
0.0114384479820728
0.0132201015949249
0.0148493684828281
0.0163035802543163
0.0175707377493381
0.0186519753187894
0.0195618420839309
0.0203266367316246
0.0209781900048255
0.0215444378554821
0.0220417492091655
0.0224676914513111
0.0227925516664981
0.0229554586112499
0.0228665098547935
0.0224110148847103
0.0214599464088678
0.0198919512331485
0.0176210552453994
0.01462082285434
0.0109395189210772
0.0067015513777732
0.0020935419015586
-0.002658924087882
-0.0073168259114027
-0.0116547299548983
-0.0154869109392166
-0.0186832770705223
-0.0211703907698392
-0.0229231361299753
-0.0239537712186574
-0.0243041552603244
-0.0240456312894821
-0.0232800208032131
-0.0221316013485193
-0.0207328721880912
-0.0192106813192367
-0.0176728386431932
-0.0161960087716579
-0.0148189347237348
-0.0135427704080939
-0.0123368790373206
-0.0111497649922966
-0.0099232979118824
-0.0086033288389444
-0.0071439472958445
-0.0055102608166635
-0.003685719333589
-0.0016821073368191
0.0004586791619658
0.0026738848537206
0.0048919566906988
0.0070431921631097
0.0090686418116092
0.0109256664291024
0.0125909931957721
0.0140613922849297
0.0153486281633377
0.0164706707000732
0.0174457356333732
0.0182911753654479
0.019025394693017
0.0196702219545841
0.0202487781643867
0.0207776632159948
0.0212614499032497
0.021693792194128
0.022060964256525
0.022345021367073
0.0225228108465671
0.0225569251924753
0.02238405123353
0.0219108611345291
0.0210205819457769
0.0195884592831134
0.0175058394670486
0.0147079676389694
0.0111963301897048
0.0070506418123841
0.0024254536256194
-0.0024724039249122
-0.0074157156050205
-0.012184047140181
-0.016582166776061
-0.0204506907612085
-0.0236708782613277
-0.0261668339371681
-0.027906946837902
-0.028903828933835
-0.0292112715542316
-0.0289176851511001
-0.0281355008482933
-0.026987561956048
-0.0255929809063673
-0.0240536797791719
-0.0224468614906072
-0.0208286233246326
-0.019241003319621
-0.01771080493927
-0.0162415876984596
-0.0148101244121789
-0.0133737502619624
-0.0118841584771871
-0.010299582965672
-0.0085907028988003
-0.0067411055788397
-0.0047466214746236
-0.0026163845323026
-0.0003749099560081
0.001940251328051
0.0042864712886512
0.0066204853355884
0.0088957697153091
0.0110609922558069
0.0130652692168951
0.014868140220642
0.0164479315280914
0.0178024880588054
0.0189429819583892
0.0198878720402717
0.0206605941057205
0.0212874598801136
0.021794794127345
0.0222077351063489
0.0225483234971761
0.0228326078504323
0.0230713672935962
0.0232702922075986
0.0234227944165468
0.0234999861568212
0.0234436634927988
0.0231639947742223
0.0225442610681056
0.0214528944343328
0.0197622813284397
0.0173727665096521
0.0142356809228658
0.0103699918836355
0.0058704717084765
0.0009034611284732
-0.0043117213062942
-0.0095296334475278
-0.0145056191831827
-0.01902118884027
-0.022906806319952
-0.0260546617209911
-0.0284184701740741
-0.0300058908760547
-0.0308681223541498
-0.0310885533690452
-0.030771953985095
-0.0300339311361312
-0.0289895981550216
-0.0277430303394794
-0.0263798721134662
-0.0249637775123119
-0.0235358159989118
-0.0221138298511505
-0.0206905491650104
-0.0192372892051935
-0.0177172124385833
-0.0160995088517665
-0.0143660027533769
-0.0125106368213891
-0.0105371000245213
-0.0084589030593633
-0.0062998197972774
-0.0040908697992563
-0.0018658477347344
0.0003418219275772
0.0025007771328091
0.0045818011276423
0.0065584862604737
0.0084107983857393
0.0101289032027125
0.0117128454148769
0.0131667265668511
0.014490595087409
0.015677124261856
0.0167179759591817
0.0176132060587406
0.0183721594512462
0.0190084297209978
0.0195395499467849
0.0199886467307806
0.0203801840543746
0.0207329597324132
0.0210567731410264
0.021352706477046
0.0216143075376749
0.0218287650495767
0.0219734050333499
0.022003311663866
0.0218387432396411
0.0213638022541999
0.0204386003315448
0.0189223606139421
0.0167014002799987
0.0137145891785621
0.0099726412445306
0.0055673457682132
0.0006657307967543
-0.004510985687375
-0.0097164092585444
-0.014705242589116
-0.019253509119153
-0.0231765620410442
-0.0263444129377603
-0.0286894142627716
-0.0302046779543161
-0.0309370663017034
-0.0309770833700895
-0.0304439477622509
-0.0294686742126941
-0.0281801875680685
-0.026694618165493
-0.0251076184213161
-0.023490410298109
-0.0218885019421577
-0.0203214008361101
-0.0187838599085807
-0.0172495171427726
-0.0156758949160575
-0.0140140438452363
-0.012224169448018
-0.0102875744923949
-0.0082090990617871
-0.006013642065227
-0.0037398808635771
-0.0014335960149765
0.000857644714415
0.0030898181721568
0.0052281683310866
0.0072492007166147
0.0091375252231955
0.0108824437484145
0.0124771911650896
0.0139210931956768
0.0152226630598306
0.0163966063410043
0.0174547173082828
0.0184004679322242
0.019231466576457
0.0199459344148635
0.0205474365502595
0.0210442692041397
0.0214460901916027
0.0217620655894279
0.0219999365508556
0.0221635084599256
0.0222485214471817
0.0222375467419624
0.0220938883721828
0.0217566229403018
0.0211419779807329
0.0201508961617946
0.0186783093959093
0.0166277214884758
0.0139357093721628
0.0105982031673192
0.0066858958452939
0.0023430231958627
-0.0022288688924163
-0.0067964019253849
-0.0111228078603744
-0.0149944135919213
-0.0182413347065448
-0.0207500010728836
-0.0224668886512517
-0.0233948230743408
-0.0235860031098127
-0.0231377314776182
-0.0221891552209854
-0.0209075901657342
-0.019463013857603
-0.0180033966898918
-0.0166380889713764
-0.0154278725385665
-0.0143818948417902
-0.0134641388431191
-0.0126084862276911
-0.0117365289479494
-0.0107719060033559
-0.0096492376178503
-0.0083214398473501
-0.0067656012251973
-0.0049814460799098
-0.0029876320622861
-0.0008258309680968
0.0014365834649652
0.0037167307455092
0.005932149477303
0.008012481033802
0.0099050719290971
0.0115760378539562
0.0130097540095448
0.0142077580094337
0.0151850562542676
0.0159642789512872
0.0165718887001276
0.0170384403318166
0.0174005813896656
0.0177010130137205
0.0179826412349939
0.0182766914367675
0.0185892470180988
0.0188913941383361
0.0191158801317214
0.019158512353897
0.0188833810389041
0.0181359332054853
0.0167656056582927
0.0146535467356443
0.0117396060377359
0.0080444533377885
