bvp
-0.0087170228362083
-0.0106797385960817
-0.0123539892956614
-0.013705899938941
-0.0147254075855016
-0.0154262538999319
-0.0158394649624824
-0.0160021614283323
-0.0159525964409112
-0.015734639018774
-0.0154003743082284
-0.0150044681504368
-0.0145948510617017
-0.0142038473859429
-0.0138423237949609
-0.0135003356263041
-0.0131545588374137
-0.0127783790230751
-0.0123506654053926
-0.0118596851825714
-0.0113003719598054
-0.0106714814901351
-0.0099769448861479
-0.0092253303155303
-0.008428918197751
-0.0076078511774539
-0.0067915460094809
-0.0060121002607047
-0.0052961451001465
-0.004659648053348
-0.0041055083274841
-0.0036235568113625
-0.0031931949779391
-0.0027877893298864
-0.0023806178942322
-0.0019543897360563
-0.0015113437548279
-0.0010779146105051
-0.0007021045312285
-0.0004443190991878
-0.0003668013960123
-0.0005267513915896
-0.0009696260094642
-0.0017188368365168
-0.0027654878795146
-0.0040642283856868
-0.0055372593924403
-0.0070834765210747
-0.0085905231535434
-0.0099492035806179
-0.0110679734498262
-0.0118841901421546
-0.0123700080439448
-0.0125326002016663
-0.012408135458827
-0.0120501946657896
-0.011519681662321
-0.0108820395544171
-0.0102056078612804
-0.0095541030168533
-0.0089758895337581
-0.0084954388439655
-0.0081093134358525
-0.0077885533683001
-0.0074884793721139
-0.0071613984182477
-0.0067667174153029
-0.0062771295197308
-0.0056804018095135
-0.0049772025085985
-0.0041780653409659
-0.0033029369078576
-0.0023857187479734
-0.0014802888035774
-0.0006575575098395
9.6750445663929e-06
0.0004642098210752
0.0006743487901985
0.00063584651798
0.000370176974684
-7.895892485976219e-05
-0.0006508622318506
-0.0012759717646986
-0.0018850745400413
-0.0024148391094058
-0.0028108544647693
-0.0030309711582958
-0.0030496134422719
-0.0028675203211605
-0.0025253519415855
-0.002107563894242
-0.0017294759163632
-0.0015144480857998
-0.0015689803985878
-0.0019594857003539
-0.0026946349535137
-0.0037197235506027
-0.004928009584546
-0.0061821043491363
-0.0073335384950041
-0.0082404697313904
-0.0087873227894306
-0.008900137618184
-0.008552087470889
-0.0077659673988819
-0.0066157947294414
-0.0052165030501782
-0.0037005045451223
-0.0021928935311734
-0.000792316161096
0.0004411214031279
0.0014889938756823
0.0023679104633629
0.003117511048913
0.003788786008954
0.0044337585568428
0.0050970488227903
0.0058102998882532
0.0065903412178158
0.0074426271021366
0.0083634918555617
0.0093353660777211
0.0103257270529866
0.0112975658848881
0.0122213773429393
0.0130786737427115
0.0138589367270469
0.0145567255094647
0.0151703041046857
0.0156994350254535
0.0161438696086406
0.0165049117058515
0.016787115484476
0.0169985331594944
0.017154261469841
0.0172809455543756
0.0174085982143878
0.017549879848957
0.0176868475973606
0.0177738945931196
0.0177480019629001
0.0175397116690874
0.0170846991240978
0.016335504129529
0.01526983641088
0.013893243856728
0.0122377760708332
0.0103585459291934
0.0083273518830537
0.0062232669442892
0.0041259941644966
0.0021141732577234
0.0002601591404527
-0.0013819755986332
-0.0027853269129991
-0.0039498237892985
-0.004897488746792
-0.0056674610823392
-0.0063089886680245
-0.0068722097203135
-0.0074007026851177
-0.0079263811931014
-0.008465502411127
-0.0090178549289703
-0.0095691010355949
-0.0100935567170381
-0.0105559136718511
-0.010912493802607
-0.0111185647547245
-0.0111441016197204
-0.010985167697072
-0.0106617147102952
-0.0102070644497871
-0.0096573187038302
-0.0090452264994382
-0.0083979777991771
-0.0077364393509924
-0.0070746801793575
-0.0064192791469395
-0.0057686297222971
-0.0051142061129212
-0.004445256665349
-0.0037520765326917
-0.0030235773883759
-0.0022482732310891
-0.0014262576587498
-0.0005807819543406
0.0002407255815342
0.0009710718877613
0.0015305993147194
0.0018401397392153
0.0018361672991886
0.001483965315856
0.0007864309009164
-0.0002155647380277
-0.0014500411925837
-0.0028222810942679
-0.0042239762842655
-0.0055439728312194
-0.0066795600578188
-0.0075503285042941
-0.0081122256815433
-0.0083610378205776
-0.0083228982985019
-0.0080425571650266
-0.0075774523429572
-0.0069932043552398
-0.0063539119437336
-0.0057121915742754
-0.0051049976609647
-0.0045512681826949
-0.0040497230365872
-0.0035809983965009
-0.0031142537482082
-0.0026141228154301
-0.0020455550402402
-0.0013800107408314
-0.000605042790994
0.000271123368293
0.0012248929124325
0.0022242381237447
0.0032322912011295
0.0042123920284211
0.0051349471323192
0.0059811668470501
0.0067439787089824
0.0074275350198149
0.0080434828996658
0.0086053777486085
0.0091253165155649
0.0096138482913374
0.0100798401981592
0.0105233928188681
0.0109212426468729
0.0112189203500747
0.0113409478217363
0.0112101910635828
0.0107639972120523
0.009966941550374
0.008819917216897
0.0073602893389761
0.0056549049913883
0.0037921585608273
0.001873247209005
1.3729295460507274e-06
-0.0017291696276515
-0.0032414419110864
-0.0044798459857702
-0.0054138898849487
-0.0060448925942182
-0.006405028514564
-0.0065445560030639
-0.0065192901529371
-0.006384031381458
-0.0061874976381659
-0.0059666708111763
-0.0057441643439233
-0.0055311224423348
-0.0053307171911001
-0.0051376372575759
-0.0049377935938537
-0.0047126370482146
-0.0044426443055272
-0.0041056284680962
-0.0036788766738027
-0.0031499555334448
-0.0025243889540433
-0.001823088619858
-0.0010751928202807
-0.0003108140081167
0.0004450650885701
0.0011752415448427
0.0018692342564463
0.0025221197865903
0.0031341740395873
0.0037096268497407
0.0042553441599011
0.0047784950584173
0.0052811801433563
0.0057551590725779
0.0061773564666509
0.0065036532469093
0.0066687404178082
0.0065992902964353
0.0062317391857504
0.0055254008620977
0.0044718496501445
0.0030997698195278
0.0014712902484461
-0.0003285944112576
-0.0022032666020095
-0.0040532271377742
-0.005784748122096
-0.0073188156820833
-0.0085958102717995
-0.0095736486837267
-0.0102271027863025
-0.0105549078434705
-0.0105850584805011
-0.0103688444942235
-0.0099684409797191
-0.0094455340877175
-0.008853537030518
-0.0082334531471133
-0.0076125403866171
-0.0070039629936218
-0.0064066774211823
-0.0058076097629964
-0.0051863570697605
-0.00452023698017
-0.003787990193814
-0.0029710792005062
-0.0020563914440572
-0.0010428084060549
5.505140870809555e-05
0.0012092813849449
0.0023845443502068
0.0035459341015666
0.0046653244644403
0.005723156966269
0.0067067826166749
0.0076076881960034
0.008421310223639
0.0091488119214773
0.0097956079989671
0.0103672770783305
0.0108684487640857
0.0113048562780022
0.0116796847432851
0.0119805289432406
0.0121693341061472
0.012186387553811
0.0119647625833749
0.0114455986768007
0.010589811950922
0.009388267993927
0.0078693125396966
0.0060979938134551
0.0041657290421426
0.0021763984113931
0.0002362837549299
-0.0015520728193223
-0.0030971085652709
-0.0043263593688607
-0.0051944321021437
-0.005691030062735
-0.0058426577597856
-0.005704351235181
-0.0053475573658943
-0.0048486171290278
-0.0042778537608683
-0.003691887948662
-0.0031312764622271
-0.0026210993528366
-0.0021725790575146
-0.0017849074210971
-0.0014464748091995
-0.0011363320518285
-0.0008249038364738
-0.000473607564345
-4.076678305864334e-05
0.0005027444567531
0.0011605990584939
0.0019132271409034
0.0027297071646898
0.0035757028963416
0.004415248055011
0.0052138520404696
0.0059442073106765
0.0065893083810806
0.0071421582251787
0.0076044960878789
0.0079839993268251
0.0082905460149049
0.0085371378809213
0.0087460149079561
0.0089473510161042
0.0091640315949916
0.0093968892470002
0.0096226083114743
0.009799369610846
0.0098725063726305
0.0097795370966196
0.0094572473317384
0.0088503174483776
0.0079191010445356
0.0066464003175497
0.0050431312993168
0.003150513395667
0.0010369666852056
-0.0012075738050043
-0.0034773726947605
-0.005662802606821
-0.0076697170734405
-0.0094318194314837
-0.0109099987894296
-0.0120881926268339
-0.0129691958427429
-0.01356918271631
-0.0139129562303423
-0.0140295084565877
-0.0139486733824014
-0.0137010272592306
-0.0133180301636457
-0.0128303561359643
-0.0122667532414197
-0.0116509944200515
-0.010994222946465
-0.0102923195809125
-0.0095350109040737
-0.00871610827744
-0.0078358780592679
-0.0068998550996184
-0.0059205489233136
-0.004919234663248
-0.0039199348539114
-0.0029398296028375
-0.0019877173472195
-0.0010683401487767
-0.0001836058218032
0.0006678504869341
0.001489074435085
0.0022841286845505
0.0030596966389566
0.0038232279475778
0.0045746527612209
0.0053007146343588
0.0059791998937726
0.0065863640047609
0.0071017006412148
0.0075122658163309
0.0078156292438507
0.008017991669476
0.0081280982121825
0.0081500271335244
0.0080775860697031
0.0078917173668742
0.0075604538433253
0.0070433099754154
0.0063029043376445
0.0053153769113123
0.0040718675591051
0.0025792187079787
0.0008651125244796
-0.001017858274281
-0.0029917808715254
-0.0049577392637729
-0.0068075717426836
-0.0084397960454225
-0.0097725139930844
-0.0107510238885879
-0.0113517697900533
-0.0115832751616835
-0.0114823337644338
-0.0111042307689785
-0.0105109354481101
-0.0097657572478055
-0.0089355111122131
-0.0080883176997303
-0.0072824843227863
-0.0065572336316108
-0.0059307347983121
-0.0054013128392398
-0.0049500148743391
-0.0045452159829437
-0.0041495710611343
-0.003727841656655
-0.0032512317411601
-0.0026974342763423
-0.0020512377377599
-0.0013065822422504
-0.0004663305589929
0.000457212969195
0.0014373010490089
0.0024316774215549
0.00339190592058
0.0042760171927511
0.0050554201006889
0.00571477599442
0.0062511013820767
0.006675278302282
0.0070103527978062
0.0072842123918235
0.0075226286426186
0.0077469511888921
0.0079742055386304
0.0082171475514769
0.008483488112688
0.0087702888995409
0.0090539753437042
0.0092860283330082
0.0093999346718192
0.0093252211809158
0.0090015148743987
0.0083893928676843
0.0074789924547076
0.0062942444346845
0.0048896232619881
0.0033415122888982
0.001737694023177
0.0001664143055677
-0.0012929777149111
-0.002573980949819
-0.0036214245483279
-0.0043934495188295
-0.0048731183633208
-0.0050788149237632
-0.0050618811510503
-0.0048945266753435
-0.004654202144593
-0.0044097141362726
-0.0042136833071708
-0.0040991972200572
-0.0040776235982775
-0.0041384939104318
-0.0042529772035777
-0.0043813977390527
-0.0044813589192926
-0.0045116590335965
-0.0044341376051306
-0.004219613969326
-0.0038557955995202
-0.0033497540280222
-0.0027248538099229
-0.002015815814957
-0.0012622505892068
-0.0005022869445383
0.0002310015261173
0.0009116467554122
0.0015218178741633
0.002049664966762
0.0024865793529897
0.0028287693858146
0.0030809773597866
0.0032580343540757
0.0033847126178443
0.0034912368282675
0.0036019519902765
0.0037258365191519
0.0038558193482458
0.0039722537621855
0.0040460457094013
0.0040412219241261
0.0039164433255791
0.0036262834910303
0.0031253860797733
0.0023763175122439
0.0013587241992354
7.727975025773048e-05
-0.0014340619090944
-0.003112172242254
-0.004868293646723
-0.0065983524546027
-0.0082002431154251
-0.0095880385488271
-0.0106981107965111
-0.011491710320115
-0.0119560826569795
-0.0121035361662507
-0.0119682028889656
-0.0116000268608331
-0.011057898402214
-0.0104042142629623
-0.0096986480057239
-0.0089895892888307
-0.0083082402125
-0.0076679363846778
-0.0070643546059727
-0.0064788307063281
-0.0058899451978504
-0.0052847173064947
-0.0046584717929363
-0.0040075806900858
-0.0033250912092626
-0.0026009357534348
-0.0018245799001306
-0.0009894920513033
-9.594159200787544e-05
0.000850104028359
0.0018384784925729
0.0028547565452754
0.0038808223325759
0.004898143466562
0.0058929226361215
0.0068567600101232
0.0077791167423129
0.0086408015340566
0.009417176246643
0.0100858993828296
0.0106301661580801
0.0110358111560344
0.011288097128272
0.011373134329915
0.0112802889198064
0.0109999049454927
0.0105191217735409
0.0098223723471164
0.0088979238644242
0.0077496357262134
0.0064095649868249
0.0049384534358978
0.0034104366786777
0.0018974461127072
0.0004637946840375
-0.0008345392998307
-0.0019525461830198
-0.0028593910392373
-0.0035387729294598
-0.0039883367717266
-0.0042193094268441
-0.00425406685099
-0.0041228178888559
-0.0038611700292676
-0.0035081533715128
-0.0031021509785205
-0.0026722424663603
-0.0022336367983371
-0.0017957498785108
-0.0013709729537367
-0.0009716753847897
-0.0006033410318195
-0.0002639270387589
5.326932296156883e-05
0.0003590390551835
0.0006696316413581
0.0010051492135971
0.001384146977216
0.001819210126996
0.0023148625623434
0.0028666276484727
0.0034633348695933
0.0040931045077741
0.0047451462596654
0.0054032048210501
0.006040783599019
0.0066257985308766
0.0071300989948213
0.007536148186773
0.0078380722552537
0.0080392025411129
0.0081458268687129
0.0081583429127931
0.008065678179264
0.0078440438956022
0.0074589885771274
0.0068722558207809
0.006053393241018
0.0049931700341403
0.003709542332217
0.0022398652508854
0.0006301484536379
-0.0010666518937796
-0.0027875045780092
-0.0044606765732169
-0.0060131037607789
-0.0073797106742858
-0.0085102515295147
-0.0093718022108078
-0.0099501274526119
-0.0102521842345595
-0.0103056244552135
-0.0101523362100124
-0.0098384357988834
-0.0094041395932435
-0.0088797491043806
-0.0082924254238605
-0.0076738819479942
-0.007057006470859
-0.0064659062772989
-0.0059095192700624
-0.0053810887038707
-0.0048622516915202
-0.0043293386697769
-0.0037586421240121
-0.0031303747091442
-0.0024323228280991
-0.0016627879813313
-0.0008313215803354
4.473328590393066e-05
0.0009469678625464
0.0018582564080134
0.0027567551005631
0.0036111413501203
0.0043861158192157
0.0050543411634862
0.0056049134582281
0.0060428883880376
0.006383819039911
0.0066496301442384
0.0068643386475741
0.0070454874075949
0.007194825913757
0.0072948560118675
0.0073101371526718
0.0071916645392775
0.0068887444213032
0.006363193038851
0.0055943839251995
0.0045780846849083
0.0033274688757956
0.0018760103266686
0.0002794889151118
-0.0013849061215296
-0.0030254141893237
-0.0045491494238376
-0.005876513198018
-0.0069491248577833
-0.0077306907624006
-0.0082058822736144
-0.0083809504285454
-0.0082825943827629
-0.0079509448260068
-0.0074342461302876
-0.0067905345931649
-0.0060865762643516
-0.0053877308964729
-0.0047454014420509
-0.0041895285248756
-0.0037275729700922
-0.0033487314358353
-0.0030287767294794
-0.0027320976369082
-0.0024170519318431
-0.0020462397951632
-0.0015934365801513
-0.0010452915448695
-0.0003996831364929
0.0003395748790353
0.0011659068986773
0.0020648529753088
0.0030072527006268
0.0039500095881521
0.0048449686728417
0.0056513892486691
0.0063448403961956
0.0069186612963676
0.0073808245360851
0.0077491281554102
0.0080450419336557
0.0082857711240649
0.0084756668657064
0.0086012696847319
0.0086342357099056
0.008539592847228
0.0082800947129726
0.0078150192275643
0.0071028755046427
0.0061120092868804
0.0048329373821616
0.00328613165766
0.0015240733046084
-0.0003718007355928
-0.0022996740881353
-0.0041503044776618
-0.0058204382658004
-0.0072239991277456
-0.0083019910380244
-0.0090292207896709
-0.009411746636033
-0.0094764837995171
-0.0092645613476634
-0.0088335033506155
-0.0082573527470231
-0.0076163094490766
-0.0069821393117308
-0.0064070192165672
-0.0059169032610952
-0.0055093467235565
-0.0051580891013145
-0.0048242155462503
-0.0044667273759841
-0.0040473416447639
-0.0035346085205674
-0.0029112093616276
-0.0021768575534224
-0.001341926632449
-0.0004224451258778
0.0005563218146562
0.0015583243221044
0.0025439853779971
0.0034787687472999
0.004337509162724
0.0051055066287517
0.0057771317660808
0.0063530332408845
0.0068387910723686
0.0072439163923263
0.0075766388326883
0.0078344708308577
0.0079970443621277
0.0080287912860512
0.007889243774116
0.0075390376150608
0.0069398758932948
0.0060600424185395
0.0048887371085584
0.0034483484923839
0.0017953909700736
1.244223676621914e-05
-0.0018026469042524
-0.0035479092039167
-0.0051278509199619
-0.0064622815698385
-0.0074923173524439
-0.0081841181963682
-0.008530437014997
-0.0085476338863372
-0.0082701835781335
-0.0077477227896451
-0.0070436848327517
-0.00623076595366
-0.0053824409842491
-0.004563664086163
-0.0038220228161662
-0.0031812600791454
-0.0026410049758851
-0.0021810834296047
-0.001768416725099
-0.0013668043538928
-0.0009438232518732
-0.0004714587703347
7.334630936384201e-05
0.0007067350670695
0.0014382982626557
0.0022682182025164
0.0031789136119186
0.0041328882798552
0.0050808116793632
0.0059715872630476
0.0067601543851196
0.0074141081422567
0.0079199932515621
0.0082869436591863
0.0085432035848498
0.0087256878614425
0.0088675739243626
0.0089880190789699
0.0090865194797515
0.0091439811512827
0.0091273020952939
0.0089892782270908
0.0086661567911505
0.0080851465463638
0.0071836179122328
0.0059297448024153
0.004334726370871
0.0024528494104743
0.0003716387436725
-0.0018017097609117
-0.0039515001699328
-0.0059633306227624
-0.0077362349256873
-0.0091935219243168
-0.010287556797266
-0.0109987128525972
-0.011330647394061
-0.0113074211403727
-0.0109758051112294
-0.0104057900607585
-0.0096830893307924
-0.0088961757719516
-0.0081216339021921
-0.0074112461879849
-0.0067857168614864
-0.0062380316667258
-0.0057431817986071
-0.0052667548879981
-0.0047697275876998
-0.0042139240540564
-0.0035699054133147
-0.0028211988974362
-0.0019615902565419
-0.0009930576197803
6.945803761482239e-05
0.0011936612427234
0.0023346471134573
0.0034450204111635
0.0044827461242675
0.0054162070155143
0.0062276162207126
0.0069137411192059
0.0074844514019787
0.0079600848257541
0.0083671174943447
0.0087322145700454
0.0090766418725252
0.0094140246510505
0.0097527829930186
0.0100969159975647
0.0104371346533298
0.0107383858412504
0.0109364939853549
0.0109470700845122
0.0106815490871667
0.0100642535835504
0.0090471748262643
0.0076205814257264
0.0058172149583697
0.003709373762831
0.0014007012359797
-0.0009849510388448
-0.003316631540656
-0.0054694851860404
-0.0073356926441192
-0.0088352831080555
-0.0099267782643437
-0.010611105710268
-0.0109261283650994
-0.010934779420495
-0.0107118245214223
-0.0103338724002242
-0.0098711606115102
-0.0093787172809243
-0.0088910069316625
-0.0084221195429563
-0.007968557998538
-0.0075148125179111
-0.0070402850396931
-0.0065221339464187
-0.0059351045638322
-0.0052562220953404
-0.0044755521230399
-0.0036025061272084
-0.0026619196869432
-0.0016853739507496
-0.0007028861436992
0.0002617993159219
0.0011914734495803
0.0020753089338541
0.0029093429911881
0.0036950861103832
0.004437050782144
0.0051404568366706
0.0058092270046472
0.0064465785399079
0.0070597906596958
0.0076620737090706
0.0082628885284066
0.0088565926998853
0.0094240205362439
0.009940892457962
0.0103821782395243
0.0107211917638778
0.0109250349923968
0.010950855910778
0.0107470722869038
0.0102593684569001
0.0094398446381092
0.0082580149173736
0.0067117139697074
0.0048356563784182
0.002705396618694
0.000428480328992
-0.0018799030221998
-0.004118354525417
-0.0062040807679295
-0.0080694975331425
-0.0096607785671949
-0.0109394658356904
-0.0118840783834457
-0.012490632943809
-0.0127731328830122
-0.0127634322270751
-0.012509454973042
-0.012070408090949
-0.0115079376846551
-0.0108754280954599
-0.0102095687761902
-0.0095297843217849
-0.0088466992601752
-0.0081692989915609
-0.0075032641179859
-0.0068456153385341
-0.0061823413707315
-0.0054913968779146
-0.0047486047260463
-0.0039329077117145
-0.0030306503176689
-0.0020377163309603
-0.0009598423494026
0.0001864379737526
0.0013747985940426
0.0025753257796168
0.003762615378946
0.004917237907648
0.0060185589827597
0.0070400959812104
0.0079538496211171
0.0087387394160032
0.0093878358602523
0.0099095348268747
0.0103222038596868
0.0106484852731227
0.0109119461849331
0.0111334640532732
0.0113276988267898
0.0115027604624629
0.0116626853123307
0.0118089076131582
0.0119379553943872
0.0120333945378661
0.012054200284183
0.0119313206523656
0.0115797780454158
0.0109187634661793
0.0098904799669981
0.0084754005074501
0.0067017530091106
0.0046435776166617
0.00240697292611
0.0001132632605731
-0.0021150172688066
-0.0041661970317363
-0.0059490092098712
-0.0073967673815786
-0.0084671741351485
-0.0091445297002792
-0.009446632117033
-0.0094270315021276
-0.0091657591983675
-0.0087538734078407
-0.0082787964493036
-0.007813430391252
-0.0074103875085711
-0.0071005504578351
-0.0068939821794629
-0.0067818108946084
-0.0067389188334345
-0.006727285683155
-0.0067002577707171
-0.0066078687086701
-0.0064027123153209
-0.0060501536354422
-0.0055417250841856
-0.004899728577584
-0.0041689756326377
-0.0034024468623101
-0.0026469975709915
-0.0019346661865711
-0.0012824619188904
-0.0006960690952837
-0.0001717414706945
0.000302240718156
0.0007407627999782
0.0011551538482308
0.0015502739697694
0.0019294442608952
0.0023019188083708
0.0026815682649612
0.0030761971138417
0.0034800092689692
0.003876821603626
0.0042464057914912
0.0045641222968697
0.0047972262836992
0.0049050007946789
0.0048405970446765
0.0045530851930379
0.0039951084181666
0.0031356425024569
0.0019693979993462
0.0005196924321353
-0.0011613415554165
-0.002994640963152
-0.0048841754905879
-0.0067346999421715
-0.0084643615409731
-0.0100055821239948
-0.0113027459010481
-0.0123131079599261
-0.0130095109343528
-0.0133841130882501
-0.0134509224444627
-0.0132429338991642
-0.0128058139234781
-0.012192815542221
-0.0114600425586104
-0.0106597319245338
-0.0098319668322801
-0.0089974896982312
-0.008158734999597
-0.0073104025796055
-0.0064482106827199
-0.0055709080770611
-0.0046808086335659
-0.0037832404486835
-0.0028830526862293
-0.0019810632802546
-0.0010735797695815
-0.000155268702656
0.0007768867071717
0.0017209994839504
0.0026691774837672
0.0036084780003875
0.0045262039639055
0.0054176989942789
0.0062863244675099
0.0071323672309517
0.0079448912292718
0.0087049202993512
0.0093925110995769
0.0099922213703393
0.0104977525770664
0.0109148751944303
0.011260176077485
0.0115539636462926
0.0118091767653822
0.012021105736494
0.012161424383521
0.0121798310428857
0.0120151853188872
0.0116120092570781
0.0109323589131236
0.0099563710391521
0.0086790854111313
0.0071150199510157
0.0053074746392667
0.0033311091829091
0.001284655299969
-0.0007211407646536
-0.0025770459324121
-0.0041891019791364
-0.0054894187487661
-0.0064414967782795
-0.0070402477867901
-0.0073080263100564
-0.0072859083302319
-0.0070217000320553
-0.0065647326409816
-0.0059704780578613
-0.0053021986968815
-0.0046230787411332
-0.0039855763316154
-0.0034228679724037
-0.0029446117114275
-0.0025387564674019
-0.0021763863041996
-0.0018175980076193
-0.001418690662831
-0.0009399580303579
-0.0003543950151652
0.0003462813328951
0.0011541992425918
0.0020538065582513
0.0030263604130595
0.0040462897159159
0.0050766011700034
0.0060708462260663
0.0069813849404454
0.0077700344845652
0.0084166284650564
0.0089210588485002
0.0092987976968288
0.0095757804811
0.0097842225804924
0.0099560255184769
0.0101168602705001
0.0102846389636397
0.010469788685441
0.0106732789427042
0.0108788181096315
0.0110430316999554
0.0110941370949149
0.0109422449022531
0.0104963555932044
0.0096820779144763
0.008456377312541
0.0068174889311194
0.0048069111071527
0.0025033853016793
1.2614764273166656e-05
-0.0025450438261032
-0.005047695711255
-0.0073838895186781
-0.0094605889171361
-0.0112058892846107
-0.0125712351873517
-0.0135368686169385
-0.0141154266893863
-0.01434838026762
-0.0142969414591789
-0.014030635356903
-0.0136150736361742
-0.0131015880033373
-0.0125224068760871
-0.011893231421709
-0.0112197920680046
-0.0105025544762611
-0.0097385132685303
-0.0089225303381681
-0.0080485474318265
-0.0071105025708675
-0.0061068478971719
-0.0050478596240282
-0.003956944681704
-0.002866551047191
-0.0018141429172828
-0.000835218001157
4.581687971949577e-05
0.0008200815645977
0.0014926955336704
0.0020785278175026
0.0025976707693189
0.0030706904362887
0.00351417879574
0.003938868176192
0.004352081567049
0.0047642430290579
0.0051914784125983
0.0056475470773875
0.006134167779237
0.0066401497460901
0.0071462919004261
0.0076285111717879
0.0080568753182888
0.0083935102447867
0.008592746220529
0.0086026731878519
0.0083672907203435
0.0078333634883165
0.0069615128450095
0.0057347295805811
0.0041635758243501
0.0022897985763847
0.0001843315549194
-0.0020616464316844
-0.0043477239087224
-0.0065737320110201
-0.0086464760825037
-0.0104845650494098
-0.0120229898020625
-0.0132170934230089
-0.014045501127839
-0.0145115442574024
-0.0146413091570138
-0.0144779961556196
-0.0140756284818053
-0.013493868522346
-0.0127904703840613
-0.0120101515203714
-0.0111805712804198
-0.0103205535560846
-0.0094462055712938
-0.0085674738511443
-0.0076841968111693
-0.0067870845086872
-0.0058619920164346
-0.0048941373825073
-0.0038707649800926
-0.0027840596158057
-0.0016337390989065
-0.0004273112863302
0.0008202164899557
0.0020867604762315
0.0033474592491984
0.0045816483907401
0.0057740355841815
0.0069088726304471
0.0079671163111925
0.0089305164292454
0.0097867175936698
0.010532253421843
0.0111745912581682
0.0117314057424664
0.0122240185737609
0.0126687549054622
0.0130730187520384
0.0134345032274723
0.0137383323162794
0.0139549849554896
0.014044476673007
0.0139642925933003
0.0136719420552253
0.0131212323904037
0.0122647415846586
0.011067553423345
0.0095218513160943
0.0076537835411727
0.0055232970044016
0.0032187812030315
0.0008471435285173
-0.0014781984500586
-0.0036491639912128
-0.0055735101923346
-0.0071820993907749
-0.0084319114685058
-0.0093053290620446
-0.0098073361441493
-0.0099647268652915
-0.0098270568996667
-0.0094622997567057
-0.0089462781324982
-0.0083517488092184
-0.0077402861788868
-0.0071564181707799
-0.0066226264461874
-0.0061370064504444
-0.0056772604584693
-0.005209588445723
-0.0046984003856778
-0.0041149924509227
-0.003442854154855
-0.0026770047843456
-0.001818626653403
-0.0008728348184376
0.0001457156613469
0.0012082697357982
0.0022764881141483
0.0033120410516858
0.0042847502045333
0.0051752645522356
0.005972221493721
0.0066685834899544
0.0072608906775712
0.0077507188543677
0.0081458380445837
0.0084605626761913
0.0087159080430865
0.0089384410530328
0.0091568836942315
0.0093954168260097
0.0096632177010178
0.0099472990259528
0.0102156866341829
0.0104256831109523
0.0105274813249707
0.0104632172733545
0.0101693421602249
0.0095836743712425
0.0086535876616835
0.0073455153033137
0.0056550009176135
0.0036137562710791
0.0012909753713756
-0.0012110159732401
-0.0037650351878255
-0.0062352144159376
-0.0085016572847962
-0.0104792211204767
-0.0121189393103122
-0.013398615643382
-0.0143153145909309
-0.0148829817771911
-0.0151295661926269
-0.0150919677689671
-0.0148135926574468
-0.0143432514742016
-0.0137304374948143
-0.0130207128822803
-0.0122546907514333
-0.0114641590043902
-0.0106628015637397
-0.0098433336243033
-0.0089889978989958
-0.0080885235220193
-0.0071413619443774
-0.006153741851449
-0.005133893340826
-0.0040896022692322
-0.0030257778707891
-0.0019438307499513
-0.0008455496281385
0.0002630073577165
0.0013721575960516
0.0024706246331334
0.0035456435289233
0.0045843762345612
0.0055775693617761
0.0065187662839889
0.0073981592431664
0.0082001369446516
0.0089079104363918
0.0095094013959169
0.0100003024563193
0.0103842113167047
0.0106703918427228
0.010870355181396
0.0109935253858566
0.0110411588102579
0.0109999720007181
0.0108393123373389
0.0105140870437026
0.0099739115685224
0.0091772070154547
0.0081013590097427
0.0067423242144286
0.005111907608807
0.0032406547106802
0.0011823661625385
-0.0009863418526947
-0.0031728863250464
-0.0052786068990826
-0.0072079291567206
-0.0088753970339894
-0.0102118840441107
-0.0111713409423828
-0.0117351850494742
-0.0119120981544256
-0.0117342351004481
-0.011250052601099
-0.0105187855660915
-0.0096115069463849
-0.0086104478687047
-0.0075988355092704
-0.0066466205753386
-0.0057990532368421
-0.0050717932172119
-0.0044540204107761
-0.0039157229475677
-0.0034157205373048
-0.0029099462553858
-0.0023583078291267
-0.0017301158513873
-0.0010086682159453
-0.0001907015684992
0.0007197763770818
0.0017133089713752
0.0027690271381288
0.0038521061651408
0.0049210442230105
0.0059373974800109
0.0068708695471286
0.0077006239444017
0.0084154559299349
0.0090146753937006
0.0095099667087197
0.0099242553114891
0.0102852527052164
0.0106176082044839
0.0109377242624759
0.011252786964178
0.0115627432242035
0.0118576437234878
0.0121072735637426
0.0122545827180147
0.0122214537113904
0.0119221741333603
0.0112787457183003
0.0102353701367974
0.0087704425677657
0.0069036735221743
0.0046966467052698
0.0022474764846265
-0.0003211796283721
-0.0028792954981327
-0.005305309779942
-0.0074950661510229
-0.0093644522130489
-0.01085417997092
-0.0119391903281211
-0.0126328617334365
-0.0129815693944692
-0.0130538903176784
-0.0129278022795915
-0.0126779377460479
-0.0123652284964919
-0.0120308892801404
-0.0116954166442155
-0.0113614946603775
-0.0110187269747257
-0.0106484405696392
-0.0102282157167792
-0.0097347926348447
-0.0091439401730895
-0.008434466086328
-0.0076001449488103
-0.0066555147059261
-0.0056275483220815
-0.004545128904283
-0.0034355467651039
-0.0023238661233335
-0.0012304541887715
-0.0001694443635642
0.0008495130459778
0.0018192988354712
0.0027355272322893
0.0035974881611764
0.0044086747802793
0.0051797968335449
0.0059328135102987
0.0066942335106432
0.0074767377227544
0.0082670487463474
0.0090292580425739
0.0097132492810487
0.0102588897570967
0.0105987833812832
0.0106639536097645
0.0103918267413973
0.0097351595759391
0.008670755662024
0.0072060800157487
0.005382171832025
0.0032723639160394
0.0009786842856556
-0.001374117215164
-0.003652716288343
-0.0057372832670807
-0.0075383717194199
-0.0090014338493347
-0.0101046739146113
-0.0108544342219829
-0.0112797738984227
-0.0114270532503724
-0.011351809836924
-0.0111095020547509
-0.0107502359896898
-0.0103169111534953
-0.0098428148776292
-0.0093473084270954
-0.0088320281356573
-0.0082800174131989
-0.0076609505340456
-0.0069453851319849
-0.0061196945607662
-0.0051884781569242
-0.0041655921377241
-0.003066053148359
-0.0019044214859604
-0.0006949612870812
0.0005497066304087
0.0018181388732045
0.0030972023960202
0.0043713003396987
0.0056243175640702
0.0068410132080316
0.0080088060349226
0.009121929295361
0.0101812426000833
0.0111856898292899
0.0121254716068506
0.0129840783774852
0.0137439090758562
0.0143885221332311
0.0148991076275706
0.015247942879796
0.0153947211802005
0.0152889918535947
0.0148764140903949
0.0141060063615441
0.0129404626786708
0.0113701708614826
0.0094249853864312
0.0071774157695472
0.0047323699109256
0.0022052910644561
-0.000296822952805
-0.0026813419535756
-0.0048688170500099
-0.0067941220477223
-0.0084115238860249
-0.0096981227397918
-0.0106529407203197
-0.0112943165004253
-0.0116562088951468
-0.0117829367518424
-0.0117234410718083
-0.0115259839221835
-0.0112309996038675
-0.0108623979613184
-0.0104281827807426
-0.009932005777955
-0.0093792732805013
-0.0087728882208466
-0.0081098098307847
-0.0073834238573908
-0.0065869921818375
-0.0057140821591019
-0.0047585223801434
-0.0037172334268689
-0.0025936989113688
-0.0013988413847982
-0.0001494414173066
0.001134212128818
0.0024315849877893
0.0037259040400385
0.005004218313843
0.0062515335157513
0.0074455635622143
0.0085582612082362
0.0095634311437606
0.0104443291202187
0.0111962612718343
0.011824918910861
0.0123405288904905
0.0127466851845383
0.0130287483334541
0.0131486607715487
0.0130478283390402
0.0126565666869282
0.0119097381830215
0.0107658486813306
0.0092190504074096
0.0072979787364602
0.0050595058128237
0.0025848194491118
-2.4484703317284584e-05
-0.0026540928520262
-0.0051873615011572
-0.0075149135664105
-0.0095432288944721
-0.0112031185999512
-0.0124556003138422
-0.0132925380021333
-0.0137325227260589
-0.0138148162513971
-0.013591774739325
-0.01311921980232
-0.0124515891075134
-0.0116453906521201
-0.0107606090605258
-0.0098519902676343
-0.0089567638933658
-0.0080887833610177
-0.0072403103113174
-0.006387906614691
-0.0054996595717966
-0.0045423186384141
-0.003488783724606
-0.0023251567035913
-0.0010543735697865
0.0003045010380446
0.001721411710605
0.0031653528567403
0.0046111247502267
0.0060348189435899
0.0074077984318137
0.0086984178051352
0.0098765101283788
0.0109183061867952
0.0118112936615943
0.0125542301684618
0.0131551222875714
0.0136319873854517
0.0140115022659301
0.0143225062638521
0.0145883560180664
0.0148203279823064
0.0150131471455097
0.0151433143764734
0.0151656363159418
0.0150081478059291
0.0145767210051417
0.0137735251337289
0.0125200673937797
0.0107760559767484
0.0085519477725029
0.0059129577130079
0.0029710764065384
-0.0001307143829762
-0.0032349517568945
-0.0061865802854299
-0.0088500902056694
-0.0111221354454755
-0.0129354242235422
-0.0142552871257066
-0.0150781590491533
-0.0154370740056037
-0.0154030509293079
-0.0150720570236444
-0.0145449833944439
-0.0139128472656011
-0.013248199597001
-0.0125976270064711
-0.0119770653545856
-0.0113759823143482
-0.0107689704746007
-0.0101261781528592
-0.0094179343432188
-0.0086172316223382
-0.0077017056755721
-0.0066530709154903
-0.0054607046768069
-0.0041328095830976
-0.0027020338457077
-0.0012178616598248
0.0002665803185664
0.0017054372001439
0.0030654785223305
0.0043258317746222
0.0054752933792769
0.0065104607492685
0.0074352668598294
0.0082598039880394
0.0089967893436551
0.0096576046198606
0.0102524990215897
0.0107958428561687
0.0113074230030179
0.0118028996512293
0.0122814448550343
0.0127201741561293
0.0130753442645072
0.0132864173501729
0.013280764222145
0.0129807163029909
0.0123148113489151
0.0112296603620052
0.0096987197175621
0.0077303163707256
0.0053744809702038
0.0027215708978474
-0.0001073735766112
-0.0029714985284954
-0.0057241385802626
-0.0082340240478515
-0.0104036554694175
-0.012175016105175
-0.0135255493223667
-0.0144600681960582
-0.0150038171559572
-0.0151997683569788
-0.0151062663644552
-0.0147905349731445
-0.0143200382590293
-0.0137558588758111
-0.0131487920880317
-0.0125360824167728
-0.0119359334930777
-0.0113415513187646
-0.010723803192377
-0.0100454222410917
-0.0092756506055593
-0.0083969123661518
-0.0074051907286047
-0.0063074314966797
-0.0051192077808082
-0.0038640110287815
-0.0025717858225107
-0.0012747165746986
-2.17572960536927e-06
0.0012228465639054
0.0023869145661592
0.003488287795335
0.0045362161472439
0.0055484548211097
0.0065439804457128
0.0075299423187971
0.0084947906434535
0.0094139520078897
0.0102593535557389
0.011007578112185
0.0116466796025633
0.0121780149638652
0.0126129798591136
0.012969309464097
0.0132662281394004
0.0135143073275685
0.0137029495090246
0.0137930326163768
0.013719412498176
0.0134031018242239
0.0127637824043631
0.0117264613509178
0.0102323833853006
0.008258038200438
0.005828283727169
0.003016457427293
-6.253551691770554e-05
-0.0032628430053591
-0.0064233597368001
-0.0093872863799333
-0.0120192691683769
-0.0142161017283797
-0.0159141384065151
-0.0170944966375827
-0.0177794862538576
-0.0180194079875946
-0.0178824514150619
-0.0174524839967489
-0.0168235190212726
-0.01608781889081
-0.0153243197128176
-0.0145887788385152
-0.0139069613069295
-0.0132746426388621
-0.0126632107421755
-0.012027502991259
-0.0113155134022235
-0.0104800043627619
-0.0094899907708168
-0.0083370795473456
-0.0070326356217265
-0.0055989902466535
-0.0040639266371726
-0.0024627931416034
-0.0008417211938649
0.0007454587612301
0.002247123979032
0.0036248383112251
0.0048586660996079
0.0059465393424034
0.0069009074941277
0.007744101807475
0.0085032219067215
0.0092059904709458
0.0098773250356316
0.0105355568230152
0.011191576719284
0.0118519179522991
0.0125172547996044
0.0131725119426846
0.013777888379991
0.0142678078263998
0.014556685462594
0.0145502500236034
0.0141606014221906
0.0133211864158511
0.0119992522522807
0.0102050425484776
0.0079954108223319
0.0054688048548996
0.0027534263208508
-6.622809451073408e-06
-0.0026649562641978
-0.0050852219574153
-0.0071523669175803
-0.0087841972708702
-0.0099397394806146
-0.010619374923408
-0.0108581716194748
-0.0107167232781648
-0.0102714756503701
-0.0096056330949068
-0.0087991645559668
-0.0079165631905198
-0.0069975424557924
-0.0060557904653251
-0.005084428936243
-0.004064489621669
-0.0029725905042141
-0.0017846319824457
-0.0004800776951014
0.000948139000684
0.0024853935465216
0.0040964600630104
0.0057339998893439
0.0073476256802678
0.0088896173983812
0.0103202853351831
0.0116129834204912
0.0127546088770031
0.0137419225648045
0.0145770031958818
0.0152642121538519
0.0158097203820943
0.0162239335477352
0.0165242999792099
0.0167323034256696
0.0168637130409479
0.016920980066061
0.0168922860175371
0.0167517717927694
0.0164595302194356
0.0159636586904525
0.01520318351686
0.014112533070147
0.0126315522938966
0.0107216918841004
0.0083813071250915
0.0056513864547014
0.0026112683117389
-0.000629068352282
-0.0039366381242871
-0.0071681817062199
-0.0101905530318617
-0.0128985624760389
-0.0152207855135202
-0.0171169191598892
-0.0185748115181922
-0.0196084380149841
-0.020254373550415
-0.0205669626593589
-0.0206113569438457
-0.0204539932310581
-0.0201539583504199
-0.0197579003870487
-0.0192983262240886
-0.0187929142266511
-0.0182424895465374
-0.017631035298109
-0.0169319808483123
-0.0161179788410663
-0.0151692666113376
-0.01407808996737
-0.0128480792045593
-0.0114911813288927
-0.0100263515487313
-0.0084798242896795
-0.0068827564828097
-0.0052651348523795
-0.0036514508537948
-0.002061606850475
-0.0005139026325196
0.0009753211634233
0.0023975984659045
0.0037552793510258
0.0050532016903162
0.006287925876677
0.0074443770572543
0.008496000431478
0.0094044897705316
0.0101198563352227
0.0105809839442372
0.010720245540142
0.0104745039716362
0.0097979977726936
0.0086744222790002
0.0071266563609242
0.0052200299687683
0.0030592873226851
0.0007801401661708
-0.0014694710262119
-0.0035553509369492
-0.0053742853924632
-0.0068563041277229
-0.0079612955451011
-0.0086756935343146
-0.0090084029361605
-0.0089880404993891
