bvp
-0.0108226314187049
-0.0085765570402145
-0.0064368322491645
-0.0043941065669059
-0.0024554729461669
-0.0006494224071502
0.0009856298565864
0.0024161487817764
0.0036213174462318
0.0045955255627632
0.0053475201129913
0.0058972537517547
0.0062721073627471
0.0065008699893951
0.0066065490245819
0.0066054239869117
0.0065119117498397
0.0063369944691658
0.0060735344886779
0.0056706964969635
0.0050079300999641
0.0038929432630538
0.0020981952548027
-0.0005820915102958
-0.0042797774076461
-0.0090171322226524
-0.0146951153874397
-0.0211050249636173
-0.0279530100524425
-0.0348935946822166
-0.0415721014142036
-0.047666247934103
-0.0529162362217903
-0.0571383722126483
-0.0602245405316352
-0.0621391721069812
-0.0629201307892799
-0.0626731216907501
-0.0615524761378765
-0.0597362741827964
-0.0574063695967197
-0.0547351017594337
-0.0518728680908679
-0.0489362999796867
-0.04600340873003
-0.0431151017546653
-0.0402787588536739
-0.0374750345945358
-0.034667495638132
-0.0318087041378021
-0.0288415681570768
-0.0257084257900714
-0.022372618317604
-0.0188337564468383
-0.0151245221495628
-0.0113001111894845
-0.0074284337460994
-0.0035788025707006
0.0001880601048469
0.0038243746384978
0.0072963321581482
0.0105834053829312
0.0136756878346204
0.0165715143084526
0.0192759353667497
0.0218018125742673
0.0241736155003309
0.026420634239912
0.0285566672682762
0.030568853020668
0.0324263833463192
0.0340944603085517
0.0355419069528579
0.0367462374269962
0.0377009697258472
0.0384202264249324
0.0389359034597873
0.0392899215221405
0.0395241305232048
0.0396710187196731
0.0397514961659908
0.0397800765931606
0.0397691540420055
0.0397241003811359
0.0396325774490833
0.0394630841910839
0.0391795746982097
0.0387602560222148
0.0382060073316097
0.0375384129583835
0.0367957577109336
0.0360262356698513
0.035273615270853
0.0345605909824371
0.0338776335120201
0.0331768132746219
0.0323675386607646
0.031319260597229
0.0298788957297801
0.027895838022232
0.0252435468137264
0.0218433048576116
0.0176905877888202
0.0128684276714921
0.0075396532192826
0.0019241431728005
-0.003730702213943
-0.009182084351778
-0.0142218992114067
-0.0186969805508852
-0.0225147679448127
-0.025636751204729
-0.0280648469924926
-0.0298232920467853
-0.0309430360794067
-0.0314629524946212
-0.0314453244209289
-0.0309819318354129
-0.0301814936101436
-0.0291516445577144
-0.0279855132102966
-0.0267537664622068
-0.0255026724189519
-0.0242558140307664
-0.0230159368366003
-0.0217678379267454
-0.0204853136092424
-0.0191422123461961
-0.0177210569381713
-0.0162122678011655
-0.0146080013364553
-0.012903886847198
-0.0111120725050568
-0.0092696119099855
-0.0074301799759268
-0.0056465803645551
-0.0039563500322401
-0.0023755393922328
-0.0009001530706882
0.0004876675084233
0.0018130121752619
0.0031040469184517
0.0043886844068765
0.0056890868581831
0.0070144976489245
0.008356723934412
0.0096922609955072
0.0109844673424959
0.0121783204376697
0.0131987482309341
0.0139646921306848
0.0144113088026642
0.0145064853131771
0.0142591642215847
0.0137223582714796
0.0129857053980231
0.0121562955901026
0.0113398525863885
0.0106286071240901
0.0100927390158176
0.0097747668623924
0.009690566919744
0.0098365629091858
0.010189913213253
0.0106990132480859
0.0112863425165414
0.011870133690536
0.0123829031363129
0.0127748418599367
0.0130107458680868
0.0130681470036506
0.0129331778734922
0.0125884804874658
0.011996766552329
0.0110937003046274
0.0097997840493917
0.0080466894432902
0.0058072106912732
0.0031175184994935
7.829535752534866e-05
-0.0031660152599215
-0.0064517026767134
-0.009612719528377
-0.0124934166669845
-0.0149592282250523
-0.0169047936797142
-0.0182597357779741
-0.0189917609095573
-0.0191067419946193
-0.018645642325282
-0.0176768600940704
-0.0162856224924325
-0.0145669262856245
-0.0126185156404972
-0.0105271767824888
-0.0083624459803104
-0.0061879642307758
-0.0040722209960222
-0.0020832102745771
-0.0002727154642343
0.0013378411531448
0.0027620606124401
0.0040407590568065
0.0052260961383581
0.0063695218414068
0.0075188893824815
0.0087165869772434
0.0099918032065033
0.0113543076440691
0.0128015596419572
0.0143311079591512
0.015937715768814
0.0175989344716072
0.0192691087722778
0.0208839699625968
0.0223695207387208
0.0236557386815547
0.0246921479701995
0.0254564993083477
0.0259533580392599
0.0262073241174221
0.0262552127242088
0.0261375494301319
0.0258902981877326
0.0255393162369728
0.025099653750658
0.0245824456214904
0.0240017510950565
0.0233684182167053
0.0226790942251682
0.0219165235757827
0.0210597272962331
0.0200960207730531
0.0190306268632411
0.0178885906934738
0.0167067181318998
0.0155225293710827
0.0143662272021174
0.013252280652523
0.0121662318706512
0.0110514713451266
0.0098091727122664
0.0083176828920841
0.0064570996910333
0.0041259839199483
0.001257877331227
-0.0021593421697616
-0.0060728825628757
-0.0103692654520273
-0.0148899797350168
-0.0194515828043222
-0.0238653514534235
-0.0279568098485469
-0.0315829254686832
-0.0346419066190719
-0.0370749346911907
-0.0388605669140815
-0.0400035604834556
-0.0405236892402172
-0.0404531769454479
-0.0398454964160919
-0.0387832894921302
-0.0373743548989295
-0.0357387512922287
-0.0339936278760433
-0.0322403311729431
-0.0305568929761648
-0.0289957299828529
-0.0275838412344455
-0.02632219158113
-0.0251859743148088
-0.0241307746618986
-0.0231027919799089
-0.0220464225858449
-0.020907986909151
-0.0196420960128307
-0.0182230081409215
-0.0166498757898807
-0.0149392783641815
-0.0131130702793598
-0.0111897569149732
-0.009183682501316
-0.0071107633411884
-0.0049926098436117
-0.0028551816940307
-0.0007245745509862
0.0013784393668174
0.0034428648650646
0.0054674334824085
0.0074583701789379
0.0094283996149897
0.0113917831331491
0.0133505966514348
0.0152814881876111
0.0171362627297639
0.0188562106341123
0.0203887857496738
0.021697724238038
0.0227667912840843
0.0236009638756513
0.0242246743291616
0.0246760845184326
0.0249995328485965
0.0252381190657615
0.0254287179559469
0.0256024822592735
0.0257875900715589
0.0260015744715929
0.0262275785207748
0.0263912118971347
0.0263575725257396
0.0259499847888946
0.0249823816120624
0.0232956744730472
0.0207891426980495
0.0174422748386859
0.0133241582661867
0.0085885860025882
0.0034550502896308
-0.0018216595053672
-0.0069858878850936
-0.0118095623329281
-0.0161090269684791
-0.0197564847767353
-0.0226889066398143
-0.0249030999839305
-0.0264372043311595
-0.0273540671914815
-0.027731904760003
-0.0276586469262838
-0.0272284876555204
-0.0265363287180662
-0.0256670955568552
-0.0246872026473283
-0.0236437264829874
-0.0225660670548677
-0.0214639920741319
-0.0203229170292615
-0.0191027410328388
-0.017749473452568
-0.0162193905562162
-0.014496436342597
-0.0125906504690647
-0.0105283800512552
-0.0083444155752658
-0.0060762632638216
-0.0037599019706249
-0.0014273412525653
0.0008926205337047
0.0031717736274003
0.0053838994354009
0.0075096655637025
0.0095367487519979
0.0114565715193748
0.0132674966007471
0.0149777121841907
0.0165947787463665
0.0181126557290554
0.0195146463811397
0.0207869857549667
0.0219268687069416
0.0229431465268135
0.0238555707037448
0.0246936455368995
0.0254932753741741
0.0262902993708848
0.0271133910864591
0.0279795583337545
0.0288935042917728
0.0298515390604734
0.0308469776064157
0.0318644531071186
0.0328565090894699
0.033720027655363
0.034292284399271
0.0343649312853813
0.0337105244398117
0.032120868563652
0.0294468402862548
0.0256307199597358
0.0207276958972215
0.0149064604192972
0.0084258476272225
0.0015984252095222
-0.0052486127242445
-0.0118053397163748
-0.0177973732352256
-0.0230015814304351
-0.0272662155330181
-0.0305182766169309
-0.0327507220208644
-0.0340059362351894
-0.0343651883304119
-0.0339402258396148
-0.032865971326828
-0.0312931239604949
-0.0293758288025856
-0.0272581987082958
-0.0250652339309453
-0.0228951107710599
-0.0208135768771171
-0.01885143853724
-0.0170026421546936
-0.0152303948998451
-0.0134846474975347
-0.0117180943489074
-0.009890453889966
-0.0079661384224891
-0.0059160906821489
-0.0037231352180242
-0.001382378861308
0.0011021327227354
0.0037160534411668
0.0064295884221792
0.0091975387185812
0.0119659518823027
0.0146784866228699
0.0172819811850786
0.019735250622034
0.0220123976469039
0.024091936647892
0.0259457547217607
0.0275426637381315
0.0288604367524385
0.0298937484622001
0.030654614791274
0.0311698094010353
0.0314783565700054
0.0316287279129028
0.0316745713353157
0.0316680185496807
0.0316515043377876
0.0316515676677227
0.0316803157329559
0.0317446514964103
0.0318485498428344
0.0319802649319171
0.0321022756397724
0.0321587733924388
0.0320915207266807
0.0318518839776515
0.0314052067697048
0.0307228174060583
0.0297608748078346
0.0284374803304672
0.0266222804784774
0.0241471044719219
0.0208370350301265
0.0165517274290323
0.0112286116927862
0.0049163475632667
-0.0022234302014112
-0.0099484389647841
-0.0179736204445362
-0.0259974580258131
-0.0337252803146839
-0.0408934652805328
-0.0472876355051994
-0.0527510046958923
-0.057184562087059
-0.0605428628623485
-0.0628283768892288
-0.0640846416354179
-0.0643894970417022
-0.0638507008552551
-0.0625988915562629
-0.0607733875513076
-0.0585118010640144
-0.0559508726000785
-0.0532262474298477
-0.050460934638977
-0.0477485805749893
-0.0451425574719905
-0.0426540523767471
-0.0402579456567764
-0.0379013605415821
-0.0355103313922882
-0.0330007895827293
-0.0302971340715885
-0.0273481737822294
-0.0241332370787858
-0.020660163834691
-0.0169573854655027
-0.0130674298852682
-0.0090497424826025
-0.0049838507547974
-0.0009597958996891
0.0029407893307507
0.0066601298749446
0.0101670902222394
0.0134489182382822
0.0165015272796154
0.0193240754306316
0.021916938945651
0.0242823287844657
0.0264266915619373
0.0283606182783842
0.0300960168242454
0.0316454023122787
0.0330210104584693
0.0342287085950374
0.0352635793387889
0.036115787923336
0.036781720817089
0.0372694656252861
0.0375961251556873
0.0377836003899574
0.0378570966422557
0.037842646241188
0.0377615354955196
0.0376263260841369
0.0374420434236526
0.0372092686593532
0.0369262024760246
0.0365889966487884
0.0361798256635665
0.035638689994812
0.0348418913781642
0.0336074233055114
0.031724527478218
0.0289957839995622
0.0252787582576274
0.020517773926258
0.0147620365023612
0.0081672556698322
0.0009795073419809
-0.0064946534112095
-0.013923667371273
-0.0209848564118146
-0.0273919254541397
-0.0329131782054901
-0.0373862944543361
-0.0407343879342079
-0.0429693572223186
-0.0441734977066516
-0.0444749444723129
-0.0440309792757034
-0.0430162623524665
-0.0416075363755226
-0.0399637967348098
-0.0382123216986656
-0.0364465899765491
-0.034727819263935
-0.0330812446773052
-0.0314923375844955
-0.029913280159235
-0.0282755903899669
-0.0265039056539535
-0.0245360881090164
-0.0223407298326492
-0.0199173744767904
-0.0172868464142084
-0.0144853610545396
-0.0115615893155336
-0.0085720466449856
-0.0055748065933585
-0.0026221801526844
0.000244406517595
0.0029953182674944
0.0056122126989066
0.0080868201330304
0.0104211056604981
0.012629740871489
0.0147340856492519
0.0167458970099687
0.0186578892171382
0.0204474683851003
0.022085590288043
0.023546427488327
0.0248146615922451
0.0258874334394931
0.0267722867429256
0.0274839978665113
0.0280425883829593
0.028471453115344
0.02879374101758
0.0290287602692842
0.0291925072669982
0.0293028317391872
0.029379203915596
0.0294306445866823
0.0294443666934967
0.0293884426355361
0.029224906116724
0.0289217662066221
0.0284573622047901
0.0278161745518445
0.0269756745547056
0.0258877128362655
0.0244642440229654
0.0225789900869131
0.0200900174677371
0.0168736036866903
0.012857113033533
0.0080449376255273
0.002526419237256
-0.0035392474383115
-0.0099454279989004
-0.0164570808410644
-0.0228310916572809
-0.0288385357707738
-0.0342844426631927
-0.0390202552080154
-0.0429471470415592
-0.0460137575864791
-0.0482110232114791
-0.0495673231780529
-0.0501447431743145
-0.0500319525599479
-0.049332283437252
-0.0481510981917381
-0.0465908497571945
-0.0447554141283035
-0.0427488312125206
-0.0406603217124938
-0.0385492965579032
-0.0364429764449596
-0.0343430638313293
-0.0322330668568611
-0.0300834774971008
-0.0278569310903549
-0.0255148317664861
-0.023024583235383
-0.0203646067529916
-0.0175249800086021
-0.0145052131265401
-0.0113118235021829
-0.0079618012532591
-0.0044947708956897
-0.0009807932656258
0.0024886664468795
0.0058197090402245
0.0089308498427271
0.0117595577612519
0.0142646310850977
0.0164282210171222
0.018256802111864
0.019778523594141
0.0210374165326356
0.0220857188105583
0.0229757539927959
0.0237570889294147
0.0244797151535749
0.0251898039132356
0.0259116627275943
0.0266353022307157
0.027326013892889
0.0279433820396661
0.028453366830945
0.0288349483162164
0.0290854256600141
0.0292214937508106
0.0292736086994409
0.0292755402624607
0.0292550362646579
0.029231896623969
0.0292217843234539
0.0292390063405036
0.0292965695261955
0.02940109744668
0.0295413546264171
0.0296817235648632
0.0297693703323602
0.0297463908791542
0.0295566227287054
0.0291449166834354
0.0284486189484596
0.0273854508996009
0.0258482918143272
0.0237159822136163
0.0208782460540533
0.0172626916319131
0.0128554254770278
0.007715854793787
0.0019840560853481
-0.004129983484745
-0.0103787034749984
-0.016513917595148
-0.0223129838705062
-0.0275951027870178
-0.0322307385504245
-0.0361426547169685
-0.0392995476722717
-0.0417065024375915
-0.0433956272900104
-0.0444192439317703
-0.0448462590575218
-0.0447592921555042
-0.0442496836185455
-0.0434097349643707
-0.042324349284172
-0.0410689860582351
-0.0397158376872539
-0.0383347012102603
-0.0369812026619911
-0.0356846004724502
-0.0344434678554534
-0.0332277677953243
-0.0319871418178081
-0.0306637119501829
-0.0292031373828649
-0.0275595430284738
-0.0256972536444664
-0.0235943496227264
-0.0212478004395961
-0.0186748746782541
-0.0159067194908857
-0.0129816820845007
-0.0099470801651477
-0.0068612657487392
-0.0037868837825953
-0.000781753566116
0.0021054348908364
0.004837024025619
0.0073874527588486
0.0097418231889605
0.0118941394612193
0.0138458609580993
0.0156032498925924
0.017176516354084
0.0185819473117589
0.019844613969326
0.0209998562932014
0.0220862682908773
0.0231288243085145
0.0241290610283613
0.0250718221068382
0.0259376727044582
0.0267110262066125
0.0273842029273509
0.0279590636491775
0.0284450706094503
0.0288538932800292
0.0291943475604057
0.0294709987938404
0.0296851061284542
0.0298345498740673
0.0299134887754917
0.0299149304628372
0.0298307202756404
0.0296429023146629
0.0293132830411195
0.0287764370441436
0.0279353950172662
0.0266674403101205
0.0248445570468902
0.0223588608205318
0.019145043566823
0.0151974856853485
0.0105786705389618
0.0054181292653083
-9.772088378667831e-05
-0.0057451236061751
-0.0112875578925013
-0.0164994560182094
-0.0211907476186752
-0.0252302177250385
-0.0285528730601072
-0.0311483200639486
-0.0330430641770362
-0.0342845954000949
-0.0349309742450714
-0.0350474454462528
-0.0347061492502689
-0.0339849069714546
-0.0329645611345768
-0.0317276753485202
-0.0303573347628116
-0.0289303604513406
-0.0275060255080461
-0.0261153727769851
-0.0247586965560913
-0.0234152451157569
-0.0220545567572116
-0.0206421632319688
-0.0191434267908334
-0.0175266861915588
-0.0157651752233505
-0.0138395177200436
-0.0117412665858864
-0.009473780170083
-0.0070503177121281
-0.0044951345771551
-0.0018452834337949
0.0008534351363778
0.0035543432459235
0.006216718815267
0.0088064260780811
0.0112879201769828
0.0136184003204107
0.0157528612762689
0.0176541395485401
0.019302412867546
0.0207023974508047
0.0218838229775428
0.0228940304368734
0.0237879380583763
0.0246187560260295
0.0254298895597457
0.0262525398284196
0.0271117389202117
0.0280361734330654
0.0290640853345394
0.0302332323044538
0.0315529890358448
0.0329818427562713
0.0344295278191566
0.0357765443623065
0.0368973650038242
0.0376800373196601
0.0380411259829998
0.0379389598965644
0.0373801365494728
0.0364129543304443
0.0351128727197647
0.0335656553506851
0.0318511649966239
0.0300355851650238
0.0281715150922536
0.0262894909828901
0.0243750624358654
0.0223517976701259
0.0200863610953092
0.0174100399017334
0.0141506884247064
0.0101734213531017
0.0054191704839468
-7.400847971439362e-05
-0.0061724884435534
-0.012665600515902
-0.0192914735525846
-0.0257670562714338
-0.031822320073843
-0.0372309274971485
-0.0418271347880363
-0.0455125346779823
-0.0482614710927009
-0.050116553902626
-0.0511678680777549
-0.0515297912061214
-0.051325362175703
-0.0506747439503669
-0.0496859699487686
-0.0484503135085105
-0.0470424592494964
-0.0455210581421852
-0.0439253002405166
-0.0422734394669532
-0.0405682474374771
-0.0387996807694435
-0.0369402393698692
-0.0349488966166973
-0.0327926650643348
-0.0304669011384248
-0.0279939528554677
-0.025406178086996
-0.0227329060435295
-0.0199970938265323
-0.0172156319022178
-0.0144019750878214
-0.0115698967128992
-0.0087342280894517
-0.0059109674766659
-0.0031197685748338
-0.0003847694024443
0.0022705281153321
0.0048322742804884
0.0072968527674674
0.0096581187099218
0.0118984645232558
0.013993801549077
0.0159229580312967
0.0176744386553764
0.0192493870854377
0.020659839734435
0.0219251196831464
0.0230695735663175
0.0241193771362304
0.0250979773700237
0.0260238163173198
0.0269093122333288
0.0277592111378908
0.028572304174304
0.0293437130749225
0.0300607085227966
0.0307011604309082
0.0312414765357971
0.0316634662449359
0.0319555103778839
0.03211310505867
0.0321396701037883
0.0320460982620716
0.0318482294678688
0.0315601825714111
0.0311826765537261
0.0306865293532609
0.0299941636621952
0.0289743598550558
0.0274644028395414
0.0253054779022932
0.0223697312176227
0.0185825712978839
0.0139464493840932
0.0085530141368508
0.0025753998197615
-0.0037497915327548
-0.0101436972618103
-0.0163125582039356
-0.0219817608594894
-0.0269295070320367
-0.0310088358819484
-0.0341506190598011
-0.0363524183630943
-0.0376601368188858
-0.0381443500518798
-0.0378852672874927
-0.0369764231145381
-0.0355281084775924
-0.0336577445268631
-0.031481958925724
-0.0291171614080667
-0.0266771763563156
-0.024265743792057
-0.0219719130545854
-0.0198655612766742
-0.0179879199713468
-0.0163431074470281
-0.0148990135639905
-0.0135996928438544
-0.0123793520033359
-0.0111675942316651
-0.0098954122513532
-0.008511590771377
-0.0069963317364454
-0.0053592454642057
-0.0036267675459384
-0.0018300591036677
5.830079317092896e-07
0.0018371008336544
0.0036550248041749
0.005435743369162
0.0071683302521705
0.0088472086936235
0.0104677677154541
0.0120274173095822
0.0135314902290701
0.0149956755340099
0.0164378397166728
0.0178625062108039
0.0192520655691623
0.0205730125308036
0.0217918436974287
0.0228880681097507
0.0238577723503112
0.0247114226222038
0.0254693739116191
0.0261568203568458
0.0267990566790103
0.0274153724312782
0.0280136056244373
0.0285890083760023
0.0291253272444009
0.0295915510505437
0.0299261398613452
0.0300123877823352
0.0296686142683029
0.0286692064255476
0.0267892908304929
0.023858580738306
0.0198059659451246
0.0146789159625768
0.0086391866207122
0.0019432313274592
-0.0050914445891976
-0.0121286688372492
-0.018850915133953
-0.0249858852475881
-0.0303234234452247
-0.0347222313284873
-0.0381118543446064
-0.0404913201928138
-0.0419169552624225
-0.0424836538732051
-0.042311318218708
-0.0415363833308219
-0.04030167683959
-0.0387428887188434
-0.0369775928556919
-0.0351026766002178
-0.0331958979368209
-0.0313139669597148
-0.0294887870550155
-0.0277248248457908
-0.0259960945695638
-0.0242466460913419
-0.0224033463746309
-0.020399909466505
-0.0181947667151689
-0.0157713051885366
-0.0131303835660219
-0.0102853048592805
-0.0072587858885526
-0.0040827300399541
-0.000799722969532
0.0025386326014995
0.0058752931654453
0.0091507174074649
0.0123084057122468
0.0153031907975673
0.0181071422994136
0.0207110755145549
0.0231182370334863
0.0253284927457571
0.0273254737257957
0.0290772262960672
0.0305471457540988
0.0317078754305839
0.0325512215495109
0.0330927893519401
0.0333741605281829
0.0334611646831035
0.0334365367889404
0.0333876758813858
0.0333919785916805
0.0335076376795768
0.0337751731276512
0.0342229679226875
0.0348637327551841
0.0356793291866779
0.0366120152175426
0.0375742837786674
0.0384664013981819
0.039190623909235
0.0396613292396068
0.0398125201463699
0.0395995751023292
0.0389881208539009
0.0379311367869377
0.0363481789827346
0.0341228581964969
0.031124509871006
0.0272448677569627
0.0224318131804466
0.0167058520019054
0.0101588610559701
0.0029469644650816
-0.0047167222946882
-0.0125746689736843
-0.0203459933400154
-0.0277534704655408
-0.0345504805445671
-0.0405418425798416
-0.0455964468419551
-0.0496503636240959
-0.0526991561055183
-0.0547840557992458
-0.0559784397482872
-0.0563742741942405
-0.0560720227658748
-0.055183507502079
-0.0538396686315536
-0.0521843098104
-0.0503549501299858
-0.0484644286334514
-0.0465887710452079
-0.044761549681425
-0.0429768562316894
-0.0411999300122261
-0.0393779538571834
-0.0374475084245204
-0.0353429615497589
-0.0330068580806255
-0.0303983408957719
-0.0274956058710813
-0.02429417707026
-0.0208099968731403
-0.0170888658612966
-0.0132108684629201
-0.0092819239944219
-0.0054143602028489
-0.0017055505886673
0.0017740996554493
0.0049831001088023
0.007907485589385
0.0105553697794675
0.0129458531737327
0.0151025224477052
0.0170553401112556
0.0188397895544767
0.0204929206520319
0.0220536570996046
0.0235599540174007
0.0250378437340259
0.0264948271214962
0.0279222074896097
0.0292991250753402
0.0305985137820243
0.0317957065999507
0.0328748300671577
0.0338302217423915
0.034662626683712
0.0353735461831092
0.0359616018831729
0.0364198684692382
0.0367307960987091
0.0368564948439598
0.0367263481020927
0.0362232252955436
0.0351741909980773
0.0333662070333957
0.030594615265727
0.0267205126583576
0.0217108149081468
0.0156538449227809
0.008753104135394
0.0013020990882068
-0.0063527394086122
-0.0138516426086425
-0.0208620633929967
-0.0271163489669561
-0.0324306450784206
-0.0366982370615005
-0.0398708917200565
-0.0419487319886684
-0.042984738945961
-0.0430864542722702
-0.0424005724489688
-0.0410891883075237
-0.0393121242523193
-0.0372177064418792
-0.0349359288811683
-0.0325720123946666
-0.0302016027271747
-0.0278671793639659
-0.0255776681005954
-0.0233124680817127
-0.0210278239101171
-0.0186630934476852
-0.0161486156284809
-0.0134236877784132
-0.0104610603302717
-0.0072762854397296
-0.0039157224819064
-0.0004386790096759
0.0030950615182518
0.0066302455961704
0.0101176491007208
0.0135190337896347
0.0168144609779119
0.0200045835226774
0.023103293031454
0.0261225290596485
0.029059175401926
0.0318932943046093
0.0345965810120105
0.0371390022337436
0.0394834913313388
0.0415795184671878
0.0433712750673294
0.044815681874752
0.0458957999944686
0.0466232597827911
0.0470322184264659
0.0471700057387352
0.0470873303711414
0.0468302331864833
0.0464373789727687
0.0459420457482337
0.0453731566667556
0.0447541065514087
0.0441004075109958
0.0434117130935192
0.0426599308848381
0.0417890064418315
0.0407341122627258
0.039444088935852
0.0378845036029815
0.0360186994075775
0.0337858162820339
0.0310916490852832
0.0278166122734546
0.0238407999277114
0.0190767832100391
0.0134966038167476
0.0071480348706245
0.0001594573259353
-0.0072684958577156
-0.0148880500346422
-0.0224410779774189
-0.0296892281621694
-0.0364301800727844
-0.0425078235566616
-0.0478173643350601
-0.052302848547697
-0.0559491291642189
-0.0587719455361366
-0.060811161994934
-0.062126237899065
-0.0627885833382606
-0.0628747045993805
-0.0624652802944183
-0.0616446174681186
-0.0604980364441871
-0.0591127946972847
-0.0575776845216751
-0.0559727698564529
-0.0543553456664085
-0.0527507811784744
-0.0511492863297462
-0.0495097301900386
-0.0477695986628532
-0.0458564534783363
-0.0436997413635253
-0.0412428006529808
-0.0384500846266746
-0.0353076457977294
-0.0318221449851989
-0.0280194319784641
-0.023939037695527
-0.0196326244622468
-0.0151738841086626
-0.0106651009991765
-0.006225504912436
-0.0019688485190272
0.0020153312943875
0.0056703728623688
0.0089716799557209
0.011921776458621
0.0145456511527299
0.0168837159872055
0.0189800299704074
0.0208700336515903
0.0225737560540437
0.0240997560322284
0.025458313524723
0.0266682002693414
0.0277472008019685
0.0287012923508882
0.0295269601047039
0.0302204489707946
0.0307824090123176
0.0312171671539545
0.0315327756106853
0.0317421965301036
0.031861200928688
0.03190378844738
0.0318793058395385
0.0317918807268142
0.0316395089030265
0.0314130522310733
0.0310937985777854
0.0306392014026641
0.0299601200968027
0.0289154089987278
0.0273344442248344
0.0250539667904377
0.0219561923295259
0.0180002730339765
0.0132379569113254
0.0078102312982082
0.0019317436963319
-0.0041321534663438
-0.0100963935256004
-0.0156915038824081
-0.0206942427903413
-0.024943970143795
-0.0283439680933952
-0.0308602694422006
-0.0325210951268672
-0.0334041528403759
-0.0336133204400539
-0.0332619696855545
-0.0324689671397209
-0.0313580706715583
-0.0300517287105321
-0.0286602117121219
-0.0272708144038915
-0.0259394906461238
-0.024687610566616
-0.0235071703791618
-0.0223716460168361
-0.0212418474256992
-0.0200632661581039
-0.0187700502574443
-0.0173049159348011
-0.0156369768083095
-0.013762705028057
-0.0116998497396707
-0.0094831129536032
-0.0071580200456082
-0.004772369749844
-0.0023696781136095
1.3831304386258124e-05
0.0023477817885577
0.0046028019860386
0.0067498167045414
0.008764361962676
0.0106299594044685
0.0123422369360923
0.0139095177873969
0.0153417214751243
0.0166391935199499
0.0177946612238883
0.0188015233725309
0.0196578968316316
0.0203676577657461
0.0209436044096946
0.0214096512645483
0.0217971913516521
0.0221380311995744
0.0224590525031089
0.0227795876562595
0.0231087505817413
0.0234463699162006
0.0237912721931934
0.0241425242274999
0.0244857557117939
0.0247837137430906
0.0249836519360542
0.0250329915434122
0.0248933359980583
0.024547666311264
0.0239979811012744
0.0232542511075735
0.022316537797451
0.0211563725024461
0.0197084508836269
0.0178759470582008
0.0155480168759822
0.0126330507919192
0.0090992245823144
0.0049921534955501
0.0004172045737504
-0.0044858818873763
-0.0095542557537555
-0.01461036875844
-0.0194777399301528
-0.0239980556070804
-0.028045842424035
-0.0315361134707927
-0.0344203636050224
-0.0366794317960739
-0.0383193865418434
-0.0393672287464141
-0.0398672521114349
-0.0398763269186019
-0.0394548140466213
-0.0386634320020675
-0.0375705324113369
-0.0362527891993522
-0.0347835198044776
-0.0332218147814273
-0.0316052250564098
-0.0299440287053585
-0.0282235704362392
-0.0264156758785247
-0.0244908891618251
-0.0224257595837116
-0.0202069841325283
-0.0178347583860158
-0.0153238223865628
-0.0127000026404857
-0.0099931834265589
-0.0072351368144154
-0.0044670407660305
-0.0017434852197766
0.0008760043419897
0.0033377627842128
0.0056018666364252
0.0076497355476021
0.0094865476712584
0.0111355865374207
0.0126302018761634
0.0140068335458636
0.0152993835508823
0.0165353640913963
0.0177333056926727
0.0189048368483781
0.0200622342526912
0.0212167389690876
0.0223613753914833
0.0234603937715291
0.0244592223316431
0.025301257148385
0.025940503925085
0.0263512711971998
0.026533368974924
0.0265094637870788
0.0263175815343856
0.0260036326944828
0.0256150029599666
0.0251964665949344
0.024788711220026
0.0244271717965602
0.0241414625197649
0.0239503234624862
0.0238488409668207
0.0238037295639514
0.0237656645476818
0.0236854366958141
0.0235219188034534
0.0232401527464389
0.02280087582767
0.0221452824771404
0.0211852416396141
0.0198084563016891
0.0178983304649591
0.0153616815805435
0.012153971940279
0.0082948468625545
0.0038753319531679
-0.0009489236399531
-0.0059858467429876
-0.0110415508970618
-0.0159418415278196
-0.0205406472086906
-0.0247225146740674
-0.0284020714461803
-0.0315220281481742
-0.0340504609048366
-0.0359778851270675
-0.0373143963515758
-0.0380846038460731
-0.0383215695619583
-0.0380665697157382
-0.0373725220561027
-0.0363015681505203
-0.0349214524030685
-0.0333092436194419
-0.0315509885549545
-0.0297271311283111
-0.0278969779610633
-0.0260952375829219
-0.0243348367512226
-0.022608833387494
-0.0208931509405374
-0.0191534254699945
-0.0173543002456426
-0.0154652893543243
-0.0134639218449592
-0.0113410353660583
-0.0091024646535515
-0.0067620798945426
-0.0043390030041337
-0.0018673576414585
0.0005965614691376
0.002982054837048
0.0052190609276294
0.0072500063106417
0.0090373316779732
0.0105666350573301
0.0118417926132678
0.0128742782399058
0.0136737236753106
0.0142423640936613
0.0145718334242701
0.0146421920508146
0.0144307808950543
0.0139325801283121
0.013171593658626
0.012191236950457
0.0110443346202373
0.0097979754209518
0.0085417730733752
0.0073885256424546
0.0064682746306061
0.0059176748618483
0.0058648437261581
0.0064129941165447
0.0076254969462752
0.0095106018707156
0.0120065370574593
0.0149731822311878
0.0181979220360517
0.0214170236140489
0.0243388973176479
0.0266614817082881
0.02810132317245
0.0284413620829582
0.0275724846869707
0.0255090855062007
0.02238111756742
0.0184074845165014
0.0138568896800279
0.0090073300525546
0.0041084410622715
-0.0006527723744511
-0.005172305740416
-0.0094208298251032
-0.0134069574996829
-0.017131732776761
-0.0205604117363691
-0.0236227922141551
-0.0262270607054233
-0.0282708778977394
-0.0296534840017557
-0.0302939750254154
-0.0301494468003511
-0.0292259007692337
-0.0275763180106878
-0.0252850614488124
-0.0224500130861997
-0.0191719811409711
-0.015547564253211
-0.0116627961397171
-0.0075904093682765
-0.0033916924148797
0.0008709747344255
0.005109567195177
0.0091961799189448
0.0129779716953635
0.0163080915808677
0.019071627408266
0.0212018992751836
0.0226877257227897
0.023569568991661
0.023926667869091
0.0238613281399011
0.0234839655458927
0.0228996183723211
0.0221970472484827
0.0214452277868986
0.0206980500370264
0.0199953317642211
0.0193567015230655
0.0187852177768945
0.018287643790245
0.0178951788693666
0.0176689233630895
0.0176889970898628
0.0180326681584119
0.0187483560293912
0.019835066050291
0.0212338604032993
0.0228324607014656
0.0244809556752443
0.0260146018117666
0.0272796880453825
0.0281561315059661
0.0285653099417686
0.028462029993534
0.0278273280709981
0.0266705714166164
0.0250290445983409
0.0229528006166219
0.0204803328961133
0.0176237132400274
0.0143738742917776
0.0107203740626573
0.0066735483705997
0.0022794529795646
-0.0023760506883263
-0.0071710161864757
-0.011952462606132
-0.0165430158376693
-0.0207611005753278
-0.024457111954689
-0.0275441333651542
-0.0300045385956764
-0.0318756327033042
-0.033225905150175
-0.0341326519846916
-0.0346674844622612
-0.0348894223570823
-0.0348436497151851
-0.0345635116100311
-0.034073419868946
-0.033393383026123
-0.032543309032917
-0.031540498137474
-0.0303919725120067
-0.0290975458920002
-0.0276662185788154
-0.0261239111423492
-0.0245026089251041
-0.0228265896439552
-0.0211103558540344
-0.0193645134568214
-0.0175986271351575
-0.0158224757760763
-0.014052364975214
-0.0123194903135299
-0.0106746135279536
-0.0091845113784074
-0.0079148644581437
-0.0069029089063405
-0.0061368010938167
-0.0055578746832907
-0.0050810556858778
-0.0046134032309055
-0.0040614511817693
-0.0033326304983347
-0.0023375728633254
-0.0009972382104024
0.0007458369946107
0.0029170806519687
0.0055035296827554
0.0084538832306861
0.0116859227418899
0.0150955626741051
0.0185620114207267
0.0219553764909505
0.0251536332070827
0.0280566532164812
0.0305841863155365
0.0326694436371326
0.0342628061771392
0.0353411436080932
0.0359095484018325
0.0359884835779666
0.0355911962687969
0.0347029045224189
0.0332739353179931
0.031232688575983
0.0285111479461193
0.0250721052289009
0.0209323763847351
0.0161779820919036
0.0109654106199741
0.0055027119815349
1.4026649296283722e-05
-0.005295880138874
-0.0102632511407136
-0.0147719783708453
-0.0187513884156942
-0.0221696123480796
-0.0250235497951507
-0.0273275598883628
-0.0291051268577575
-0.0303860884159803
-0.0312078110873699
-0.0316184014081954
-0.0316791012883186
-0.0314590372145175
-0.0310223810374736
-0.0304203890264034
-0.0296950936317443
-0.0288851000368595
-0.0280237235128879
-0.027131488546729
-0.0262098852545022
-0.0252420678734779
-0.0242018736898899
-0.0230632238090038
-0.0218021348118782
-0.0203961804509162
-0.0188281219452619
-0.017091579735279
-0.0151939326897263
-0.0131528750061988
-0.0109881935641169
-0.0087196268141269
-0.0063754878938198
-0.0039991023950278
-0.0016432851552963
0.0006409925408661
0.0028141187503933
0.004852988757193
0.0067504094913601
0.0085112014785408
0.0101494072005152
0.0116826361045241
0.0131174270063638
0.0144314654171466
0.0155616626143455
0.0164047833532094
0.0168358888477087
0.0167341567575931
0.01600306853652
0.0145894289016723
0.0125020463019609
0.0098214261233806
0.0066979266703128
0.0033384864218533
-1.7439015209674835e-05
-0.003127621486783
-0.0057761948555707
-0.0077960612252354
-0.0090803578495979
-0.0095839072018861
-0.0093160280957818
-0.0083250124007463
-0.0066798096522688
-0.0044609643518924
-0.0017649997025728
0.0012918915599584
0.0045817913487553
0.0079772286117076
0.0113609321415424
0.0146345989778637
0.0177224520593881
0.020566152408719
0.0231170505285263
0.0253310278058052
0.0271692313253879
0.0286056715995073
0.0296352878212928
0.0302803106606006
0.0305950287729501
0.0306568332016468
0.0305408742278814
0.0302992314100265
0.0299599580466747
0.0295368749648332
0.0290346574038267
0.0284495241940021
0.0277710370719432
0.0269850697368383
0.0260779149830341
0.0250385534018278
0.0238573253154754
0.0225263591855764
0.0210438072681427
0.0194206051528453
0.0176877714693546
0.0158943198621273
0.0140927033498883
0.0123260719701647
0.0106265554204583
0.0090162586420774
0.0075001744553446
0.0060528246685862
0.0046075619757175
0.0030557494610548
0.0012611635029315
-0.0009119883179664
-0.0035681910812854
-0.0067579457536339
-0.0104675441980361
-0.0146178798750042
-0.0190691743046045
-0.023637980222702
-0.0281280353665351
-0.0323602557182312
-0.0361878462135791
-0.0394978672266006
-0.0422119721770286
-0.0442887544631958
-0.0457178652286529
-0.0465095117688179
-0.0466906428337097
-0.0463067516684532
-0.0454229936003685
-0.0441202148795127
-0.0424852296710014
-0.04059948772192
-0.0385309904813766
-0.0363351516425609
-0.0340652391314506
-0.0317792817950248
-0.0295335594564676
-0.0273689962923526
-0.0252992697060108
-0.0233063641935586
-0.0213464200496673
-0.0193595997989177
-0.0172789301723241
-0.0150399496778845
-0.012588944286108
-0.00988928694278
-0.0069294739514589
-0.0037261522375047
-0.0003155902959406
0.0032528366427868
0.0069109546020627
0.0105687621980905
0.0141238924115896
0.0174750760197639
0.0205347146838903
0.0232403390109539
0.0255604833364486
0.0274925082921981
0.0290574021637439
0.0302947368472814
0.0312544479966163
0.0319864936172962
0.0325352400541305
0.0329407192766666
0.0332416109740734
0.0334710739552974
0.0336443893611431
0.0337526723742485
0.0337709486484527
0.0336714014410972
0.0334336794912815
0.0330492183566093
0.0325170457363128
0.0318388938903808
0.0310221388936042
0.0300849974155426
0.0290577765554189
0.0279806591570377
0.0268972255289554
0.0258451793342828
0.0248473063111305
0.0238969065248966
0.0229358151555061
0.0218443945050239
0.0204591341316699
0.018609819933772
0.0161610748618841
0.0130452886223793
0.0092758946120738
0.0049401894211769
0.0001817867159843
-0.0048177763819694
-0.0098561625927686
-0.0147296702489256
-0.0192549638450145
-0.0232827048748731
-0.0266992021352052
-0.0294315833598375
-0.0314618274569511
-0.0328305885195732
-0.0336224883794784
-0.0339452102780342
-0.033911757171154
-0.0336258858442306
-0.0331709012389183
-0.0326063185930252
-0.0319724306464195
-0.0312958359718322
-0.0305920671671628
-0.0298657640814781
-0.0291093178093433
-0.028300542384386
-0.0274013355374336
-0.026366613805294
-0.0251632072031497
-0.023780345916748
-0.0222273394465446
-0.0205291844904422
-0.0187219809740781
-0.0168471485376358
-0.0149450143799185
-0.0130480276420712
-0.0111785978078842
-0.0093517890200018
-0.0075760455802083
-0.0058515598066151
-0.004170277621597
-0.002516608685255
-0.0008688219822943
0.0007915552705526
0.0024635707959532
0.0041209119372069
0.0057222754694521
0.0072250026278197
0.0085930926725268
0.0098016280680894
0.0108394958078861
0.0117081198841333
0.0124157201498746
0.0129717104136943
0.013385834172368
0.0136714335530996
0.0138480179011821
0.0139425583183765
0.0139909768477082
0.014032032340765
0.014091907069087
0.0141752809286117
0.0142712611705064
0.0143637377768754
0.014433080330491
0.0144468415528535
0.0143492752686142
0.0140594067052006
0.0134777398779988
0.0125007405877113
0.01104436814785
0.0090679060667753
0.0065855160355567
0.0036676554009318
0.0004389435052871
-0.0029356530867516
-0.00628128554672
-0.009442675858736
-0.0122961644083261
-0.0147501155734062
-0.0167449451982975
-0.0182533394545316
-0.0192776471376419
-0.0198454819619655
-0.0200052075088024
-0.019820686429739
-0.0193639211356639
-0.018707787618041
-0.0179223585873842
-0.0170698836445808
-0.0161945931613445
-0.0153204891830682
-0.0144615219905972
-0.0136258760467171
-0.0128115089610219
-0.0120069757103919
-0.0111971041187644
-0.0103662060573697
-0.0094997137784957
-0.0085854697972536
-0.0076113464310765
-0.0065602627582848
-0.0054115783423185
-0.0041504730470478
-0.0027741314843297
-0.0012879320420324
0.0003024330362677
0.001989628188312
0.0037519852630794
0.0055467300117015
0.0073171397671103
0.009004121646285
0.0105571057647466
0.0119418101385235
0.0131412306800484
0.014153454452753
0.0149898566305637
0.0156724471598863
0.0162312537431716
0.0167000778019428
