bvp
0.0003937142901122
0.0025485306978225
0.0045580524019896
0.0063866381533443
0.0080201299861073
0.0094592841342091
0.0107191000133752
0.0118312388658523
0.0128375720232725
0.0137772355228662
0.0146774016320705
0.0155534101650118
0.0164146646857261
0.0172630976885557
0.0180834978818893
0.0188417844474315
0.0194957107305526
0.0200075283646583
0.0203523933887481
0.0205232892185449
0.0205311141908168
0.0203979257494211
0.020147830247879
0.0197992715984582
0.0193556919693946
0.0187946129590272
0.0180603079497814
0.0170676112174987
0.015721732750535
0.0139413550496101
0.0116712506860494
0.008891986683011
0.0056323772296309
0.0019757337868213
-0.0019480679184198
-0.0059834625571966
-0.0099710160866379
-0.0137600852176547
-0.0172163993120193
-0.0202297568321228
-0.0227213539183139
-0.0246502645313739
-0.0260129701346158
-0.0268299244344234
-0.0271293669939041
-0.0269472897052764
-0.0263416022062301
-0.0253964476287364
-0.0242088437080383
-0.0228731762617826
-0.0214723236858844
-0.0200714245438575
-0.0187117662280797
-0.0174078792333602
-0.0161504969000816
-0.0149147566407918
-0.0136702274903655
-0.0123868426308035
-0.0110352123156189
-0.00958554726094
-0.008007587864995
-0.0062781204469501
-0.0043978756293654
-0.0023997719399631
-0.0003387266770005
0.0017244173213839
0.0037343213334679
0.005647032521665
0.0074324095621705
0.009074973873794
0.0105724530294537
0.0119307627901434
0.0131588643416762
0.0142666911706328
0.0152650121599435
0.0161684602499008
0.0170001350343227
0.0177880562841892
0.0185520481318235
0.0192939229309558
0.0199986062943935
0.0206429883837699
0.0212070774286985
0.0216800570487976
0.0220595467835664
0.0223502814769744
0.0225635506212711
0.0227134395390748
0.0228102728724479
0.0228564869612455
0.0228468272835016
0.0227743126451969
0.0226403549313545
0.0224529411643743
0.0222084112465381
0.0218801572918891
0.0214269906282424
0.0208091828972101
0.0200014524161815
0.0190004166215658
0.0178248416632413
0.0165068693459033
0.0150743406265974
0.0135299516841769
0.0118376892060041
0.0099260136485099
0.0077109644189476
0.005129961296916
0.0021679298952221
-0.0011382321827113
-0.0047135837376117
-0.008460302837193
-0.0122652444988489
-0.0160055682063102
-0.0195568520575761
-0.0228038020431995
-0.0256522707641124
-0.0280358344316482
-0.029914766550064
-0.0312737859785556
-0.032121255993843
-0.0324894972145557
-0.0324332416057586
-0.0320209003984928
-0.0313209928572177
-0.0303960256278514
-0.0293094813823699
-0.0281318929046392
-0.0269338507205247
-0.025771789252758
-0.0246766023337841
-0.0236502382904291
-0.0226702094078063
-0.0216979328542947
-0.0206863172352314
-0.0195858608931303
-0.0183516256511211
-0.016951510682702
-0.0153722381219267
-0.0136171169579029
-0.011697145178914
-0.0096282940357923
-0.0074407728388905
-0.0051872069016098
-0.0029366659000515
-0.0007588965818285
0.0012906836345791
0.0031805085018277
0.0049046669155359
0.0064760353416204
0.0079165529459714
0.0092527894303202
0.0105153396725654
0.0117343757301568
0.0129300467669963
0.0141071993857622
0.0152631783857941
0.0163968335837125
0.0175031870603561
0.0185646135360002
0.0195529609918594
0.0204385407269001
0.0211985688656568
0.021820718422532
0.0223027914762496
0.0226537454873323
0.022893588989973
0.0230471566319465
0.0231362096965312
0.0231761950999498
0.0231758542358875
0.0231388881802558
0.0230702385306358
0.022977665066719
0.0228597447276115
0.0226944796741008
0.0224419012665748
0.0220511518418788
0.021460898220539
0.0205961391329765
0.0193705987185239
0.0176998786628246
0.0155225005000829
0.0128193292766809
0.0096227303147315
0.0060158502310514
0.0021269773133099
-0.0018805646104738
-0.0058253980241715
-0.0095341904088854
-0.0128712616860866
-0.0157566908746957
-0.0181664694100618
-0.0201179813593626
-0.0216462928801774
-0.0227855965495109
-0.023566311225295
-0.0240207202732563
-0.0241873115301132
-0.0241104550659656
-0.0238354206085205
-0.0234040822833776
-0.0228547602891922
-0.0222193580120801
-0.0215149205178022
-0.0207420997321605
-0.0198959056288003
-0.0189756229519844
-0.0179867260158061
-0.0169386677443981
-0.0158398561179637
-0.0146908583119511
-0.0134820090606808
-0.012198993936181
-0.0108300372958183
-0.0093691833317279
-0.0078184381127357
-0.0061888704076409
-0.0044984444975852
-0.0027666436508297
-0.0010074852034449
0.0007683802396059
0.0025393664836883
0.0042670303955674
0.005907735787332
0.0074257720261812
0.0087993759661912
0.0100221764296293
0.0111009087413549
0.0120530361309647
0.0129059311002492
0.0136931547895073
0.0144456606358289
0.0151831340044736
0.015912415459752
0.0166333112865686
0.0173466391861438
0.018054187297821
0.0187474507838487
0.0194003339856863
0.0199748594313859
0.0204326789826154
0.0207461342215538
0.0209045484662055
0.0209134630858898
0.0207919627428054
0.0205707792192697
0.0202865973114967
0.0199718959629535
0.0196453090757131
0.0193046033382415
0.0189234092831611
0.0184515882283449
0.0178104527294635
0.0168848969042301
0.0155343199148774
0.013625007122755
0.0110620968043804
0.0078112166374921
0.0039138258434832
-0.0005071976920589
-0.0052616680040955
-0.0101232761517167
-0.0148630058392882
-0.019274404272437
-0.0231902208179235
-0.0264949426054954
-0.0291302315890789
-0.0310844965279102
-0.0323762223124504
-0.0330500118434429
-0.0331794843077659
-0.0328612402081489
-0.0322021096944808
-0.0313069485127925
-0.0302681121975183
-0.0291576832532882
-0.0280245132744312
-0.0268952697515487
-0.0257754325866699
-0.024650665000081
-0.0234926268458366
-0.0222670696675777
-0.0209374614059925
-0.0194633435457944
-0.0178056489676237
-0.0159451719373464
-0.0138961048796772
-0.0116995498538017
-0.0094061288982629
-0.0070623625069856
-0.0047054756432771
-0.002363808453083
-5.89955598115921e-05
0.0021916683763265
0.0043745897710323
0.006480642594397
0.0085048926994204
0.0104469126090407
0.0123138483613729
0.0141221154481172
0.0158895626664161
0.0176197923719882
0.0192943029105663
0.020880052819848
0.0223427601158618
0.0236562974750995
0.0248067993670701
0.0257920920848846
0.0266182702034711
0.0272967554628849
0.0278415046632289
0.0282658915966749
0.0285821184515953
0.0288015194237232
0.0289347320795059
0.0289958287030458
0.0290032755583524
0.0289687737822532
0.0288859196007251
0.0287325233221054
0.0284821949899196
0.0281130447983741
0.0276079066097736
0.0269469358026981
0.0260947402566671
0.0249890815466642
0.0235391445457935
0.0216344520449638
0.0191647540777921
0.0160490870475769
0.0122651122510433
0.0078675020486116
0.0029839696362614
-0.0022121358197182
-0.0075337467715144
-0.0127990478649735
-0.017840102314949
-0.0225088782608509
-0.0266821570694446
-0.0302657037973403
-0.0331969745457172
-0.0354440435767173
-0.0370038859546184
-0.037904318422079
-0.0382040664553642
-0.0379862189292907
-0.0373464711010456
-0.0363779291510582
-0.035163439810276
-0.0337830483913421
-0.0323215574026107
-0.0308616869151592
-0.0294670928269624
-0.0281674973666667
-0.0269548613578081
-0.0257893577218055
-0.0246087573468685
-0.0233408510684967
-0.0219199731945991
-0.0203007310628891
-0.0184614062309265
-0.0163994841277599
-0.0141249736770987
-0.0116541730239987
-0.0090110544115304
-0.0062380731105804
-0.00340186804533
-0.0005835890769958
0.0021391930058598
0.0047071613371372
0.0070860097184777
0.0092670731246471
0.0112625686451792
0.0130966156721115
0.0147981233894824
0.0163981895893812
0.0179261416196823
0.0194039586931467
0.0208457745611667
0.0222611706703901
0.0236536189913749
0.0250125117599964
0.0263095330446958
0.0275043956935405
0.0285544171929359
0.0294259823858737
0.0301039069890975
0.0305919274687767
0.030906893312931
0.0310743227601051
0.0311266239732503
0.0310982279479503
0.0310138314962387
0.0308728665113449
0.0306369103491306
0.0302244387567043
0.0295115076005458
0.0283393338322639
0.0265375562012195
0.0239629037678241
0.0205377601087093
0.0162749644368886
0.0112841110676527
0.005759501364082
-4.709209315478802e-05
-0.0058619575574994
-0.0114220976829528
-0.0164990965276956
-0.0209169927984476
-0.0245620403438806
-0.0273770224303007
-0.0293451212346553
-0.0304843373596668
-0.0308595187962055
-0.0305883549153804
-0.029824273660779
-0.0287303812801837
-0.0274620130658149
-0.0261556152254343
-0.0249170009046793
-0.0238113291561603
-0.0228568743914365
-0.0220251809805631
-0.0212519615888595
-0.0204538665711879
-0.0195432510226964
-0.0184389613568782
-0.0170749071985483
-0.0154131334275007
-0.0134618757292628
-0.0112804370000958
-0.008959773927927
-0.0065957163460552
-0.0042726341634988
-0.0020565157756209
9.244773536920547e-06
0.0019066776148974
0.0036417066585272
0.0052363229915499
0.0067189084365963
0.0081190271303057
0.0094653610140085
0.0107836797833442
0.0120969396084547
0.0134215038269758
0.0147542543709278
0.0160674452781677
0.0173230078071355
0.0184903349727392
0.0195518340915441
0.0204993821680545
0.0213302616029977
0.0220440067350864
0.0226342156529426
0.0230710878968238
0.0232825558632612
0.0231481585651636
0.0225136112421751
0.0212244763970375
0.0191655494272708
0.0162849705666303
0.0125974044203758
0.0081814676523208
0.003179311286658
-0.0022095502354204
-0.0077462848275899
-0.0131784994155168
-0.0182665735483169
-0.022806841880083
-0.026645690202713
-0.0296809822320938
-0.0318583697080612
-0.0331694670021534
-0.0336508378386497
-0.0333797484636306
-0.0324627831578254
-0.031025381758809
-0.0292128417640924
-0.027188966050744
-0.0251167956739664
-0.0231322292238473
-0.0213255956768989
-0.0197332967072725
-0.0183383859694004
-0.0170802865177392
-0.015871312469244
-0.0146139990538358
-0.0132151208817958
-0.011598078534007
-0.0097134029492735
-0.0075416080653667
-0.0050883674994111
-0.0023830402642488
0.000516421161592
0.003526440821588
0.0065547097474336
0.0095171928405761
0.0123453233391046
0.0149899898096919
0.0174264535307884
0.0196533259004354
0.0216850265860557
0.0235419422388076
0.0252398904412984
0.0267863497138023
0.0281872004270553
0.0294552780687809
0.0306127071380615
0.0316841155290603
0.0326820202171802
0.033594824373722
0.0343902632594108
0.0350304804742336
0.0354837402701377
0.035730741918087
0.035770159214735
0.0356188789010047
0.0353042781352996
0.0348555892705917
0.0342994965612888
0.0336577370762825
0.0329443849623203
0.0321659296751022
0.0313208922743797
0.0303839743137359
0.0292772054672241
0.0278581399470567
0.0259414762258529
0.0233400650322437
0.0199086721986532
0.0155811514705419
0.0103909540921449
0.0044686421751976
-0.0019770432263612
-0.008684461005032
-0.015369776636362
-0.0217619016766548
-0.0276307985186576
-0.0328003466129303
-0.0371494926512241
-0.040614865720272
-0.0431971997022628
-0.0449547991156578
-0.04597919434309
-0.0463714599609375
-0.046232670545578
-0.045664869248867
-0.0447706580162048
-0.043645117431879
-0.0423645377159118
-0.0409794896841049
-0.0395157262682914
-0.0379793867468833
-0.0363616198301315
-0.034642107784748
-0.0327935852110385
-0.0307913217693567
-0.0286249481141567
-0.0263016745448112
-0.0238407775759696
-0.0212682429701089
-0.0186133384704589
-0.0159062892198562
-0.0131763592362403
-0.0104490621015429
-0.0077442061156034
-0.005075960420072
-0.0024529374204576
0.0001209254842251
0.0026425106916576
0.0051070703193545
0.0075100297108292
0.0098446756601333
0.0120938913896679
0.0142284054309129
0.0162136983126401
0.0180176608264446
0.0196172911673784
0.0210028067231178
0.0221775658428668
0.0231556575745344
0.0239578392356634
0.024607066065073
0.0251256637275218
0.0255343951284885
0.0258540734648704
0.0261097438633441
0.0263331066817045
0.0265559442341327
0.0267947278916835
0.0270386300981044
0.0272512454539537
0.0273839719593524
0.0273913778364658
0.0272399019449949
0.0269103199243545
0.0263997390866279
0.0257218871265649
0.0249016005545854
0.0239648837596178
0.0229262672364711
0.021775672212243
0.0204696953296661
0.0189308952540159
0.0170535910874605
0.0147152245044708
0.011797584593296
0.0082169119268655
0.003953156992793
-0.0009316354990005
-0.006292188540101
-0.0119175221771001
-0.0175626315176486
-0.022984130308032
-0.0279678553342819
-0.0323449373245239
-0.0360019579529762
-0.0388855896890163
-0.0409947782754898
-0.0423625186085701
-0.0430437177419662
-0.0431174151599407
-0.0426887422800064
-0.0418780148029327
-0.0408048592507839
-0.0395772978663444
-0.0382842160761356
-0.0369881987571716
-0.0357215143740177
-0.0344864726066589
-0.0332575403153896
-0.0319874919950962
-0.0306195653975009
-0.0291003379970788
-0.027387648820877
-0.0254513099789619
-0.0232752002775669
-0.0208686031401157
-0.0182732418179512
-0.0155533347278833
-0.0127788325771689
-0.0100150480866432
-0.0073176492005586
-0.0047282101586461
-0.0022712482605129
4.519487265497446e-05
0.0022263131104409
0.0042874980717897
0.0062516126781702
0.0081453658640384
0.0099974684417247
0.0118380263447761
0.0136894080787897
0.0155469365417957
0.0173691101372241
0.0190912019461393
0.0206490494310855
0.0219952352344989
0.0231049377471208
0.0239770598709583
0.0246334560215473
0.0251133330166339
0.0254632979631423
0.0257306341081857
0.025959650054574
0.0261841155588626
0.0264220144599676
0.0266814120113849
0.0269648842513561
0.0272617693990468
0.0275406464934349
0.0277465116232633
0.0277938600629568
0.0275611337274312
0.026899317279458
0.025656696408987
0.0237107723951339
0.0209940373897552
0.0175079219043254
0.0133278407156467
0.008598905056715
0.003521045204252
-0.0016708704642951
-0.0067292270250618
-0.0114228725433349
-0.0155703760683536
-0.0190615840256214
-0.0218575801700353
-0.0239750016480684
-0.0254659410566091
-0.0264004189521074
-0.0268548913300037
-0.0269079115241765
-0.0266373455524444
-0.0261151175945997
-0.0254045519977808
-0.0245607569813728
-0.0236278567463159
-0.0226316004991531
-0.0215737912803888
-0.0204396359622478
-0.0192156303673982
-0.0178990103304386
-0.0164935812354087
-0.0150027247145771
-0.0134259294718503
-0.0117603400722146
-0.0100044421851634
-0.0081593766808509
-0.0062298197299242
-0.004227427765727
-0.0021741949021816
-0.0001013381406664
0.0019574081525206
0.0039755925536155
0.0059424471110105
0.007861697115004
0.0097358115017414
0.0115500269457697
0.0132757490500807
0.0148865040391683
0.0163646787405014
0.0176993571221828
0.0188873223960399
0.0199339799582958
0.0208505503833293
0.0216514058411121
0.0223523788154125
0.0229706540703773
0.0235247872769832
0.0240336954593658
0.0245171170681715
0.0249914322048425
0.0254567973315715
0.0258897505700588
0.0262501165270805
0.0264935716986656
0.0265844874083995
0.026508379727602
0.0262752678245306
0.0259091556072235
0.0254351589828729
0.0248748008161783
0.0242459252476692
0.0235611349344253
0.0228240527212619
0.0220252722501754
0.0211359579116106
0.0200937427580356
0.0187896192073822
0.0170756392180919
0.0147969229146838
0.0118329729884862
0.0081311892718076
0.0037219692021608
-0.0012836335226893
-0.0067066084593534
-0.0123197166249156
-0.0178747475147247
-0.023135058581829
-0.0279049463570117
-0.0320475772023201
-0.03548564016819
-0.0381860174238681
-0.0401475057005882
-0.0414032153785228
-0.0420226454734802
-0.0421023145318031
-0.0417502745985984
-0.0410730838775634
-0.040167961269617
-0.0391159988939762
-0.0379778482019901
-0.0367939993739128
-0.035584382712841
-0.0343487560749053
-0.0330717712640762
-0.0317264646291732
-0.030273113399744
-0.0286619197577238
-0.0268472246825695
-0.0248090215027332
-0.0225656703114509
-0.0201651491224765
-0.0176630616188049
-0.0151073299348354
-0.01253617182374
-0.0099812224507331
-0.0074684545397758
-0.0050159348174929
-0.0026320302858948
-0.0003179628401994
0.0019277175888419
0.0041069453582167
0.0062232157215476
0.0082868942990899
0.0103147532790899
0.0123135475441813
0.01426621992141
0.0161390863358974
0.0178981609642505
0.0195179171860218
0.0209805145859718
0.0222744774073362
0.0233984850347042
0.0243638791143894
0.0251901075243949
0.0258979629725217
0.0265079848468303
0.0270430613309144
0.0275296848267316
0.0279961936175823
0.0284652709960937
0.0289402715861797
0.0293969959020614
0.0297904573380947
0.0300719998776912
0.030203852802515
0.0301640927791595
0.0299480222165584
0.0295684933662414
0.0290491767227649
0.0284104719758033
0.0276524741202592
0.0267389491200447
0.0255894977599382
0.0240893997251987
0.0221162475645542
0.0195666588842868
0.0163737796247005
0.012523578479886
0.0080696083605289
0.0031361496075987
-0.0020924317650496
-0.0073948935605585
-0.0125440191477537
-0.0173352640122175
-0.0216080769896507
-0.0252566058188676
-0.0282282773405313
-0.0305163003504276
-0.0321505814790725
-0.0331858657300472
-0.0336878299713134
-0.0337266959249973
-0.0333826504647731
-0.0327502824366092
-0.0319341421127319
-0.0310381688177585
-0.0301507711410522
-0.029331574216485
-0.0286050774157047
-0.0279598254710435
-0.0273533388972282
-0.0267232730984687
-0.0260004792362451
-0.0251195821911096
-0.0240265484899282
-0.0226828139275312
-0.0210657510906457
-0.0191728137433528
-0.0170306302607059
-0.0146957915276288
-0.0122422082349658
-0.0097435750067234
-0.0072613786906003
-0.0048427190631628
-0.002521694637835
-0.0003182739019393
0.001762643456459
0.0037285313010215
0.0055953757837414
0.0073850573971867
0.0091224862262606
0.0108343819156289
0.0125508466735482
0.0142986457794904
0.0160830300301313
0.0178769715130329
0.0196278877556324
0.021273436024785
0.0227571129798889
0.0240374747663736
0.0250922739505767
0.0259207636117935
0.0265414156019687
0.0269864201545715
0.0272952448576688
0.0275060050189495
0.0276481360197067
0.027738656848669
0.0277762077748775
0.0277235843241214
0.0274843350052833
0.0268990322947502
0.0257724057883024
0.0239166468381881
0.0211949106305837
0.0175573006272315
0.0130628580227494
0.0078760934993624
0.0022365665063261
-0.0035792489070445
-0.0092893950641155
-0.0146338883787393
-0.0193998795002698
-0.0234376303851604
-0.026662616059184
-0.0290509276092052
-0.0306348130106925
-0.0314928889274597
-0.0317321941256523
-0.0314700081944465
-0.0308220442384481
-0.0298965610563755
-0.0287899225950241
-0.0275800004601478
-0.0263198539614677
-0.0250371135771274
-0.0237376578152179
-0.022408464923501
-0.0210205875337123
-0.0195336397737264
-0.0179000832140445
-0.0160753801465034
-0.0140376258641481
-0.0118001848459243
-0.0094042886048555
-0.006902452558279
-0.004346739500761
-0.0017825774848461
0.000756699591875
0.0032539814710617
0.0057051945477724
0.0081089958548545
0.0104601196944713
0.0127530265599489
0.0149868540465831
0.0171633344143629
0.0192837230861186
0.0213468745350837
0.023342702537775
0.025247436016798
0.0270303487777709
0.0286649130284786
0.0301331840455532
0.0314239114522933
0.0325305685400962
0.0334521271288394
0.0341946743428707
0.0347722843289375
0.0352055542171001
0.0355161353945732
0.0357228368520736
0.0358456373214721
0.0359122045338153
0.0359529703855514
0.03598328307271
0.0359915159642696
0.035944640636444
0.035801712423563
0.0355240926146507
0.0350809916853904
0.0344528257846832
0.0336330346763134
0.0326289869844913
0.0314620919525623
0.0301640685647726
0.0287673939019441
0.0272931437939405
0.0257408712059259
0.0240794345736503
0.0222319904714822
0.0200611725449562
0.017378581687808
0.0139877460896968
0.0097398292273283
0.0045778807252645
-0.0014421623200178
-0.0081575419753789
-0.0153260538354516
-0.0226623229682445
-0.029873913154006
-0.0366922840476036
-0.0428943373262882
-0.0483147054910659
-0.0528483018279075
-0.0564420744776725
-0.0590882636606693
-0.0608279295265674
-0.0617500618100166
-0.0619760528206825
-0.0616391897201538
-0.0608690977096557
-0.0597835443913936
-0.0584844648838043
-0.0570537075400352
-0.055547222495079
-0.0539900176227092
-0.0523767806589603
-0.0506793223321437
-0.0488576777279377
-0.0468690134584903
-0.0446703433990478
-0.0422242432832717
-0.0395126827061176
-0.0365444123744964
-0.0333486087620258
-0.0299645382910966
-0.0264361929148435
-0.0228114109486341
-0.0191402398049831
-0.0154714118689298
-0.0118495980277657
-0.0083130737766623
-0.0048891631886363
-0.0015894696116447
0.0015886398032307
0.0046564601361751
0.0076313377358019
0.0105314878746867
0.0133625175803899
0.016107840463519
0.0187347494065761
0.0212095528841018
0.0235085505992174
0.0256204381585121
0.0275432839989662
0.0292810350656509
0.0308436974883079
0.0322484076023101
0.0335169658064842
0.0346704348921775
0.0357234366238117
0.0366840474307537
0.0375600270926952
0.038358949124813
0.0390779301524162
0.0396985374391078
0.0401936173439025
0.0405347533524036
0.0406955406069755
0.0406521037220954
0.0403754375874996
0.0398139506578445
0.0388762168586254
0.0374290831387043
0.0353190936148166
0.0324097201228141
0.0286187306046485
0.0239455476403236
0.0184842068701982
0.0124152582138776
0.0059767682105302
-0.0005697552114725
-0.0069655813276767
-0.0129743302240967
-0.0183993354439735
-0.0230971947312355
-0.0269813183695077
-0.0300156362354755
-0.0322073809802532
-0.0336029194295406
-0.0342813469469547
-0.0343443304300308
-0.0339066460728645
-0.0330852530896663
-0.0319855958223342
-0.0306975562125444
-0.0293018259108066
-0.0278698410838842
-0.0264542046934366
-0.0250796042382717
-0.023740766569972
-0.0224093124270439
-0.0210447516292333
-0.0196022186428308
-0.0180363431572914
-0.0163065325468778
-0.0143835358321666
-0.0122524760663509
-0.009914293885231
-0.0073869815096259
-0.0047020381316542
-0.0019009774550795
0.0009617768228054
0.0038195494562387
0.0066057001240551
0.0092663876712322
0.011762966401875
0.0140704829245805
0.016180370002985
0.0181017629802227
0.0198553055524826
0.021465802565217
0.022958992049098
0.0243578627705574
0.0256783552467823
0.0269310772418975
0.028126623481512
0.0292723104357719
0.0303589440882205
0.0313535705208778
0.0322075970470905
0.0328714922070503
0.0333081297576427
0.0335035622119903
0.033470831811428
0.0332443267107009
0.0328686609864234
0.032387513667345
0.0318374224007129
0.0312466062605381
0.0306314919143915
0.0299875289201736
0.0292767137289047
0.0284091271460056
0.027225486934185
0.0255065783858299
0.023017294704914
0.019562954083085
0.0150345116853713
0.0094334837049245
0.0028780903667211
-0.0044080428779125
-0.0121219074353575
-0.0199155695736408
-0.0274375285953283
-0.0343754664063453
-0.0404868796467781
-0.045610673725605
-0.0496641471982002
-0.0526360124349594
-0.0545803122222423
-0.055604301393032
-0.05584716796875
-0.0554576516151428
-0.0545769110321998
-0.0533279925584793
-0.051811546087265
-0.0501052886247634
-0.0482654944062233
-0.0463295988738536
-0.044317502528429
-0.042229801416397
-0.0400473028421402
-0.0377370938658714
-0.0352613255381584
-0.0325849950313568
-0.0296866316348314
-0.0265692248940467
-0.0232622809708118
-0.0198123678565025
-0.0162703581154346
-0.0126850102096796
-0.009101565927267
-0.0055599603801965
-0.002092114649713
0.0012802248820662
0.0045434953644871
0.0076861949637532
0.0106952907517552
0.0135603351518511
0.016282632946968
0.0188749954104423
0.0213460251688957
0.0236866157501935
0.0258723199367523
0.0278761591762304
0.0296811014413833
0.031284462660551
0.032694824039936
0.0339282155036926
0.0350064188241958
0.0359545946121215
0.0367952808737754
0.0375416353344917
0.0381972640752792
0.0387631021440029
0.0392445474863052
0.0396500378847122
0.0399791300296783
0.0402133017778396
0.0403207764029502
0.0402694791555404
0.040036916732788
0.0396144837141037
0.0390079654753208
0.0382338538765907
0.0373142696917057
0.0362736582756042
0.0351348146796226
0.0339131541550159
0.0326072722673416
0.031183835119009
0.0295650847256183
0.0276252180337905
0.0251975785940885
0.0221001207828521
0.0181769840419292
0.0133408140391111
0.0076025892049074
0.0010798834264278
-0.0060172397643327
-0.0134140355512499
-0.0208068154752254
-0.0279017239809036
-0.0344451889395713
-0.0402412973344326
-0.0451609641313552
-0.0491399243474006
-0.0521622188389301
-0.0542471520602703
-0.0554532259702682
-0.0558806769549846
-0.0556590408086776
-0.0549303591251373
-0.0538338050246238
-0.0524919778108596
-0.0510038509964942
-0.0494424626231193
-0.0478511005640029
-0.0462398789823055
-0.0445885434746742
-0.0428557358682155
-0.0409904010593891
-0.0389415100216865
-0.0366641581058502
-0.0341267324984073
-0.0313214734196662
-0.0282682012766599
-0.0250074379146099
-0.0215913131833076
-0.0180765241384506
-0.0145195201039314
-0.0109725482761859
-0.0074793309904634
-0.0040739136748015
-0.0007828958332538
0.002374202478677
0.005387314595282
0.0082560610026121
0.0109878182411193
0.0135976746678352
0.0161030385643243
0.0185084715485572
0.0207972135394811
0.0229409281164407
0.0249166190624237
0.0267152972519397
0.0283400751650333
0.0298014879226684
0.0311132855713367
0.0322893224656581
0.033343955874443
0.0342904441058635
0.035133734345436
0.0358699783682823
0.0364986397325992
0.0370303802192211
0.0374780781567096
0.0378432869911193
0.038112536072731
0.0382551252841949
0.0382121764123439
0.0378862097859382
0.0371422506868839
0.0358203575015068
0.0337606333196163
0.0308391768485307
0.027000879868865
0.0222763866186141
0.0167842768132686
0.010722673498094
0.0043501527979969
-0.0020423755049705
-0.0081673841923475
-0.0137808630242943
-0.0187114067375659
-0.0228641927242279
-0.0262050665915012
-0.0287411138415336
-0.0305081214755773
-0.0315648168325424
-0.0319902002811431
-0.0318798795342445
-0.0313383936882019
-0.030470035970211
-0.0293716415762901
-0.0281259901821613
-0.0267944317311048
-0.0254105255007743
-0.0239822417497634
-0.0225060116499662
-0.020979730412364
-0.0194035377353429
-0.0177737511694431
-0.0160785932093858
-0.0142982006072998
-0.0124094653874635
-0.010394150391221
-0.0082461461424827
-0.005975239444524
-0.0036070689093321
-0.001179234823212
0.0012644091621041
0.0036799325607717
0.0060317427851259
0.0082958042621612
0.0104507859796285
0.0124708209186792
0.0143308406695723
0.0160156525671482
0.0175237488001585
0.0188646800816059
0.02005235850811
0.0211006719619035
0.0220254063606262
0.0228467136621475
0.0235851779580116
0.0242548789829015
0.0248596277087926
0.0253949053585529
0.0258561521768569
0.0262426771223545
0.0265501197427511
0.0267644338309764
0.0268645789474248
0.0268287993967533
0.0266417637467384
0.0262996573001146
0.0258102715015411
0.0251896250993013
0.0244589932262897
0.0236420035362243
0.0227603428065776
0.021830616518855
0.0208640433847904
0.0198693182319402
0.0188591592013835
0.0178473275154829
0.0168225765228271
0.0157185047864913
0.0144064798951148
0.0127136260271072
0.0104570034891366
0.0074839610606431
0.003707330673933
-0.0008720457553863
-0.0061594154685735
-0.0119764152914285
-0.0180840566754341
-0.0242142789065837
-0.0301038902252912
-0.0355212427675724
-0.0402810350060462
-0.0442569516599178
-0.0473946779966354
-0.0497102551162242
-0.0512706413865089
-0.0521696358919143
-0.0525085255503654
-0.0523832067847251
-0.0518769212067127
-0.0510590076446533
-0.0499889776110649
-0.0487196892499923
-0.0472956895828247
-0.0457501485943794
-0.0441033169627189
-0.0423595868051052
-0.0405036285519599
-0.0385064668953418
-0.0363432765007019
-0.0340067856013774
-0.0315086543560028
-0.0288750529289245
-0.0261389873921871
-0.0233305040746927
-0.0204712450504302
-0.0175773501396179
-0.0146657964214682
-0.011755951680243
-0.0088652428239583
-0.0060080722905695
-0.0031994490418583
-0.0004517445340752
0.0022314237430691
0.0048491922207176
0.0073912548832595
0.0098350187763571
0.0121520645916461
0.0143160093575716
0.0163096152245998
0.0181310065090656
0.0197943300008773
0.0213216207921504
0.0227339006960392
0.0240501705557107
0.0252885930240154
0.0264627393335104
0.0275775752961635
0.028631042689085
0.0296193230897188
0.0305384844541549
0.0313799306750297
0.0321269407868385
0.0327566340565681
0.0332449674606323
0.0335727967321872
0.0337305143475532
0.0337194763123989
0.0335525758564472
0.0332537814974784
0.0328516475856304
0.0323697216808795
0.0318227522075176
0.0312187168747186
0.0305629540234804
0.0298626348376274
0.0291241630911827
0.0283403005450963
0.0274753421545028
0.0264544207602739
0.0251616481691598
0.0234533660113811
0.0211840942502021
0.0182372629642486
0.0145542463287711
0.0101550547406077
0.0051434701308608
-0.0003062216565012
-0.0059752212837338
-0.0116291157901287
-0.0170402526855468
-0.0220022238790988
-0.0263486206531524
-0.0299784317612648
-0.0328682512044906
-0.0350581333041191
-0.0366214290261268
-0.0376381911337375
-0.0381830930709838
-0.0383239351212978
-0.0381238870322704
-0.0376450084149837
-0.03694848716259
-0.0360898524522781
-0.0351124666631221
-0.0340427197515964
-0.032888788729906
-0.031641349196434
-0.0302787721157073
-0.0287803336977958
-0.0271365828812122
-0.0253481436520814
-0.0234235245734453
-0.021381976082921
-0.0192516706883907
-0.0170599985867738
-0.0148251745849847
-0.0125557864084839
-0.0102562075480818
-0.0079314410686492
-0.0055881636217236
-0.0032351892441511
-0.0008838027715682
0.0014564804732799
0.0037799254059791
0.0060752173885703
0.0083157215267419
0.0104625755921006
0.0124768363311886
0.0143296159803867
0.0160045102238655
0.017496258020401
0.01881018653512
0.0199602339416742
0.0209643710404634
0.0218422710895538
0.0226161126047372
0.0233092047274112
0.0239443778991699
0.0245467834174633
0.0251425616443157
0.0257462561130523
0.0263474397361278
0.0269099865108728
0.0273857694119215
0.027733089402318
0.0279276613146066
0.0279627703130245
0.0278439633548259
0.0275851618498563
0.0272084698081016
0.0267429370433092
0.0262182168662548
0.0256564803421497
0.025071645155549
0.0244773589074611
0.0238867215812206
0.0232934299856424
0.0226509198546409
0.0218658000230789
0.0208055190742015
0.0193169936537742
0.0172534920275211
0.0145038049668073
0.0110174836590886
0.006821141578257
0.0020207352936267
-0.0032105538994073
-0.0086544482037425
-0.0140742696821689
-0.0192386880517005
-0.0239400658756494
-0.0280151776969432
-0.0313682369887828
-0.0339798890054225
-0.0358939915895462
-0.0371925309300422
-0.0379704423248767
-0.0383172631263732
-0.0383122712373733
-0.0380302816629409
-0.0375431180000305
-0.0369117371737957
-0.0361782722175121
-0.0353644266724586
-0.034475777298212
-0.0335042551159858
-0.0324244759976863
-0.0311977136880159
-0.0297912657260894
-0.0281954035162925
-0.0264231376349926
-0.024499736726284
-0.022452849894762
-0.0203058719635009
-0.0180761292576789
-0.0157791264355182
-0.0134326620027422
-0.011053760536015
-0.0086527820676565
-0.0062329238280653
-0.0037938635796308
-0.0013327961787581
0.0011595757678151
0.0036987941712141
0.0062946872785687
0.0089401472359895
0.0116101456806063
0.0142630981281399
0.0168389752507209
0.0192581322044134
0.0214303378015756
0.0232799984514713
0.0247768983244895
0.0259564407169818
0.0269238650798797
0.0278388448059558
0.0288785733282566
0.0301909036934375
0.0318570286035537
0.0338728353381156
0.0361489579081535
0.0385315865278244
0.0408389344811439
0.0428986176848411
0.0445730052888393
0.0457679256796836
0.0464302487671375
0.0465421490371227
0.0461160130798816
0.0451908856630325
0.0438281297683715
0.0421018972992897
0.0400811471045017
0.0378094725310802
0.0352950543165206
0.0325096435844898
0.0293915029615163
0.0258605778217315
0.0218492709100246
0.0173338912427425
0.0123495114967226
0.006984619423747
0.0013621859252452
-0.004384221509099
-0.0101308757439255
-0.015776602551341
-0.0212463345378637
-0.026484565809369
-0.0314440205693244
-0.0360768213868141
-0.0403293669223785
-0.0441466197371482
-0.0474894121289253
-0.0503462925553321
-0.0527236685156822
-0.0546260699629783
-0.0560458451509475
-0.056966982781887
-0.0573742501437664
-0.057258266955614
-0.0566169917583465
-0.0554593466222286
-0.0538103394210338
-0.0517121702432632
-0.0492232665419578
-0.0464174598455429
-0.0433793179690837
-0.0401998125016689
-0.036976158618927
-0.0338076725602149
-0.0307853538542985
-0.0279820133000612
-0.0254470407962799
-0.0232055783271789
-0.0212582573294639
-0.0195788852870464
-0.0181136839091777
-0.0167862735688686
-0.0155086889863014
-0.0141937155276536
-0.012763837352395
-0.011155392974615
-0.0093187447637319
-0.007223954424262
-0.0048758499324321
-0.0023222211748361
0.0003555063158273
0.003061344847083
0.0056995693594217
0.0081780832260847
0.0104050617665052
0.0122847016900777
0.01371755823493
0.0146116111427545
0.0148983243852853
0.0145447868853807
0.0135648325085639
0.0120302662253379
0.0100720673799514
0.0078620556741952
0.0055823512375354
0.0034031234681606
0.0014739222824573
-8.210539817810059e-05
-0.0011725053191184
-0.0017342753708362
-0.0017312206327915
-0.0011542439460754
-2.3908913135528564e-05
0.0016055777668952
0.0036446116864681
0.0059745535254478
0.0084627456963062
0.0109833814203739
0.0134379081428051
0.015761561691761
0.0179128106683492
0.0198623500764369
0.0215937104076147
0.0231093913316726
0.0244323369115591
0.025601889938116
0.0266685783863067
0.0276871044188737
0.0287053007632493
0.0297544356435537
0.0308478698134422
0.0319850109517574
0.0331553667783737
0.03434394672513
0.035535741597414
0.036712285131216
0.0378426313400268
0.0388811193406581
0.0397773720324039
0.0404895953834056
0.0409925989806652
0.0412798523902893
0.0413609258830547
0.0412579663097858
0.0410023033618927
0.0406292974948883
0.0401736497879028
0.0396655909717083
0.0391262993216514
0.0385629944503307
0.0379602089524269
0.0372617579996585
0.036353014409542
0.0350654907524585
0.0332096517086029
0.0306197218596935
0.0271925888955593
0.0229111388325691
0.0178470127284526
0.0121462605893611
0.0060104844160377
-0.0003225225955247
-0.0066054398193955
-0.0126119488850235
-0.0181560050696134
-0.0230926759541034
-0.0273106452077627
-0.0307347979396581
-0.0333412885665893
-0.0351649522781372
-0.0362869575619697
-0.0368126221001148
-0.0368535667657852
-0.0365184023976326
-0.0359082967042923
-0.0351138859987258
-0.034210629761219
-0.0332522951066494
-0.0322660990059375
-0.0312528982758522
-0.0301933027803897
-0.0290529076009988
-0.0277827903628349
-0.0263291038572788
-0.0246557928621768
-0.0227578580379486
-0.0206554383039474
-0.0183834135532379
-0.0159856360405683
-0.0135117545723915
-0.0110126240178942
-0.0085327550768852
-0.0061045833863317
-0.0037484583444893
-0.0014754310250282
0.0007115015760064
0.0028194556944072
0.0048685246147215
0.00689063873142
0.0089204832911491
0.0109784454107284
0.0130563378334045
0.0151188764721155
0.0171181559562683
0.0190076678991317
0.0207485668361186
0.0223102532327175
0.0236699040979146
0.0248122457414865
0.0257306322455406
0.0264309402555227
0.0269329659640789
0.0272641032934188
0.0274518728256225
0.0275230761617422
0.0275020655244588
0.0274007469415664
0.0272108055651187
0.0269075594842433
0.0264617688953876
0.0258507747203111
0.0250581484287977
0.0240568574517965
0.0227853320538997
0.0211336351931095
0.0189521424472332
0.01608263887465
0.0123990885913372
0.0078424252569675
0.0024427399039268
-0.0036746151745319
-0.0103068426251411
-0.0172100197523832
-0.0241323132067918
-0.0308348108083009
-0.0371073335409164
-0.0427838079631328
-0.0477515161037445
-0.0519482381641864
-0.0553499981760978
-0.0579559430480003
-0.059778656810522
-0.0608462356030941
-0.0612108185887336
-0.0609500631690025
-0.0601561442017555
-0.0589191541075706
-0.0573185421526432
-0.0554289668798446
-0.0533249974250793
-0.0510723851621151
-0.0487157441675663
-0.0462713837623596
-0.0437265038490295
-0.0410469286143779
-0.0381901860237121
-0.0351182110607624
-0.0318066217005252
-0.0282480306923389
-0.024451769888401
-0.0204449854791164
-0.0162698123604059
-0.0119709810242056
-0.0075895576737821
-0.0031747398898005
0.0012069102376699
0.005481001920998
0.00958161521703
0.0134605271741747
0.0170876588672399
0.0204484574496746
0.0235423631966114
0.0263800956308841
0.028978431597352
0.0313554592430591
0.0335278809070587
0.035510130226612
0.0373171716928482
0.0389698222279548
0.0404926799237728
0.0418998524546623
0.0431829690933227
0.0443156436085701
0.0452677682042121
0.0460167601704597
0.046551588922739
0.0468702688813209
0.046974804252386
0.0468703284859657
0.0465693771839141
0.046095922589302
0.0454841703176498
0.044770423322916
0.0439849384129047
0.0431514456868171
0.0422854833304882
0.0413847342133522
0.0404252782464027
0.0393706895411014
0.038179911673069
0.0368035323917865
0.0351741462945938
0.0331999883055686
0.0307665187865495
0.0277495458722114
0.0240389686077833
0.0195658951997756
0.0143253523856401
0.0083865504711866
0.0018880125135183
-0.0049753189086914
-0.0119724385440349
-0.0188678056001663
-0.0254508685320615
-0.0315509214997291
-0.0370416007936
-0.0418389700353145
-0.0458944514393806
-0.0491882599890232
-0.051725722849369
-0.0535343214869499
-0.0546591877937316
-0.0551573447883129
-0.0550950765609741
-0.0545493513345718
-0.0536034479737281
-0.0523333549499511
-0.0508008301258087
-0.0490604043006897
-0.0471651032567024
-0.0451621711254119
-0.0430855639278888
-0.0409518480300903
-0.0387610010802745
-0.0364998057484626
-0.0341456197202205
-0.0316719003021717
-0.0290557593107223
-0.0262840650975704
-0.0233569033443927
-0.0202894732356071
-0.0171095356345176
-0.0138486120849847
-0.0105373961851
-0.0072143310680985
-0.0039330795407295
-0.0007546485867351
0.0022662854753434
0.0050895716995
0.0076926932670176
0.0100698880851268
0.0122290030121803
0.0141894314438104
0.0159798376262187
0.0176337305456399
0.0191837344318628
0.0206566248089075
0.022072535008192
0.0234457105398178
0.0247790794819593
0.0260568745434284
0.0272473562508821
0.0283151902258396
0.0292328167706727
0.0299834106117486
0.0305584017187356
0.0309573598206043
0.0311891734600067
0.031270757317543
0.0312255155295133
0.0310784596949815
0.0308430381119251
0.0305042751133441
0.0300078243017196
0.0292620901018381
0.0281474236398935
0.0265253894031047
0.0242585986852645
