bvp
-0.0494582578539848
-0.0492629036307334
-0.0488161072134971
-0.048126183450222
-0.0471874624490737
-0.0459927916526794
-0.0445377007126808
-0.04281847178936
-0.0408276095986366
-0.0385550335049629
-0.0360011011362075
-0.0331883952021598
-0.0301604643464088
-0.0269733238965272
-0.0236868821084499
-0.0203571449965238
-0.017030419781804
-0.0137419765815138
-0.0105189625173807
-0.0073823896236717
-0.0043448437936604
-0.0014085910515859
0.001432193792425
0.0041894391179084
0.0068815033882856
0.0095263365656137
0.0121237197890877
0.0146442558616399
0.0170377716422081
0.019249752163887
0.021232658997178
0.0229518897831439
0.0243892762809991
0.0255442820489406
0.0264328401535749
0.0270846653729677
0.0275410618633031
0.0278516914695501
0.0280660726130008
0.0282261203974485
0.0283698700368404
0.0285361912101507
0.0287540592253208
0.0290262848138809
0.0293278284370899
0.0296169444918632
0.0298449415713548
0.0299570020288229
0.029882326722145
0.0295179225504398
0.0287195220589637
0.0273113939911127
0.0251146927475929
0.0219865851104259
0.0178578570485115
0.0127574233338236
0.0068201581016182
0.00027188193053
-0.0066112503409385
-0.0135476253926754
-0.0202782470732927
-0.0265795700252056
-0.0322682559490203
-0.0372021347284317
-0.0412797592580318
-0.044437937438488
-0.0466487109661102
-0.0479185916483402
-0.0482882186770439
-0.0478300526738166
-0.046645700931549
-0.04486034065485
-0.0426086373627185
-0.0400195233523845
-0.0372111909091472
-0.0342926084995269
-0.0313604809343814
-0.0284888539463281
-0.025718979537487
-0.0230567194521427
-0.020479591563344
-0.0179495047777891
-0.0154217947274446
-0.0128516294062137
-0.0102041261270642
-0.0074617723003029
-0.0046247951686382
-0.0017084693536162
0.0012637907639145
0.0042682867497205
0.0072797518223524
0.0102650253102183
0.0131850522011518
0.0160047654062509
0.0186993181705474
0.0212516337633132
0.0236466005444526
0.0258694142103195
0.0279080979526042
0.0297550410032272
0.0314083360135555
0.0328737422823905
0.03416258841753
0.0352885946631431
0.0362702682614326
0.037130557000637
0.0378855094313621
0.0385351814329624
0.0390685275197029
0.0394724085927009
0.039734661579132
0.0398444347083568
0.0397949442267417
0.0395867004990577
0.0392268486320972
0.0387254320085048
0.0380921363830566
0.0373356007039547
0.0364662930369377
0.0355021357536315
0.0344714038074016
0.0334021151065826
0.0322987176477909
0.031123099848628
0.0297853518277406
0.0281422212719917
0.0260123740881681
0.0232110805809497
0.0195902772247791
0.0150689892470836
0.0096487030386924
0.0034155026078224
-0.0034681968390941
-0.0107810050249099
-0.0182667784392833
-0.0256586819887161
-0.0326984412968158
-0.0391585156321525
-0.044866856187582
-0.0497167222201824
-0.0536580719053745
-0.056683775037527
-0.0588180013000965
-0.0601067841053009
-0.0606103986501693
-0.0604002326726913
-0.0595596432685852
-0.0581843852996826
-0.0563803277909755
-0.0542571544647216
-0.0519178733229637
-0.0494453310966491
-0.0468903295695781
-0.0442737564444541
-0.0416040420532226
-0.0388902090489864
-0.0361401624977588
-0.0333525612950325
-0.0305114723742008
-0.0275896396487951
-0.0245594177395105
-0.021403593942523
-0.0181205440312623
-0.0147231379523873
-0.0112356096506118
-0.0076921675354242
-0.0041347877122461
-0.0006063003093004
0.0028597654309123
0.0062415702268481
0.0095168631523847
0.0126512926071882
0.0156011059880256
0.0183245092630386
0.0207920987159013
0.0229919292032718
0.0249295607209205
0.0266260914504528
0.0281143374741077
0.0294334292411804
0.0306213498115539
0.0317047983407974
0.0326938331127166
0.0335865654051303
0.0343791246414184
0.0350709594786167
0.0356586761772632
0.0361276604235172
0.0364537499845027
0.0366121679544448
0.0365865863859653
0.0363763123750686
0.0360005460679531
0.0354956798255443
0.0349057279527187
0.0342723242938518
0.03362388163805
0.0329589210450649
0.032227162271738
0.031321283429861
0.0300880521535873
0.0283506978303194
0.0259336084127426
0.0226922333240509
0.0185446329414844
0.0134941833093762
0.0076386909931898
0.0011634156107902
-0.0056824358180165
-0.0126193715259432
-0.0193703025579452
-0.0256834179162979
-0.0313468351960182
-0.036202348768711
-0.0401542782783508
-0.0431625917553901
-0.0452257767319679
-0.0463732406497001
-0.0466728694736957
-0.0462358444929122
-0.0452040918171405
-0.0437273755669593
-0.041945181787014
-0.039977878332138
-0.0379211977124214
-0.0358419865369796
-0.0337786749005317
-0.0317441523075103
-0.0297268908470869
-0.0276946518570184
-0.0256050191819667
-0.0234146267175674
-0.0210807677358388
-0.0185670275241136
-0.0158593840897083
-0.0129780452698469
-0.0099750477820634
-0.0069208545610308
-0.0038850391283631
-0.0009219353087246
0.0019315616227686
0.0046534687280654
0.0072357952594757
0.0096818590536713
0.0120004713535308
0.01420140825212
0.0162925906479358
0.0182784460484981
0.0201631281524896
0.0219520088285207
0.023642785847187
0.0252168700098991
0.0266435556113719
0.0278914719820022
0.0289378501474857
0.0297736451029777
0.0304038133472204
0.0308434478938579
0.0311140604317188
0.0312408059835433
0.0312495492398738
0.0311652459204196
0.0310108922421932
0.0308080334216356
0.0305793620645999
0.0303445532917976
0.0301075261086225
0.0298485048115253
0.029528884217143
0.0291045382618904
0.0285395868122577
0.0278144069015979
0.0269228070974349
0.0258571691811084
0.0245890151709318
0.0230530388653278
0.0211418829858303
0.0187191646546125
0.0156472083181142
0.0118226874619722
0.0072143003344535
0.001880383118987
-0.0040476154536008
-0.0103946961462497
-0.0169632025063037
-0.0235450584441423
-0.0299311224371194
-0.0359243266284465
-0.0413568057119846
-0.0461004897952079
-0.0500657297670841
-0.0531940683722496
-0.0554524362087249
-0.0568314306437969
-0.0573482662439346
-0.0570517294108867
-0.0560227558016777
-0.0543707497417926
-0.0522313043475151
-0.0497615486383438
-0.0471231862902641
-0.0444562062621116
-0.0418567284941673
-0.0393677987158298
-0.0369848348200321
-0.0346692129969596
-0.0323596112430095
-0.0299816355109214
-0.0274632088840007
-0.0247516743838787
-0.0218218620866537
-0.0186726301908493
-0.0153184188529849
-0.0117863779887557
-0.0081221126019954
-0.0043920334428548
-0.0006740894168615
0.002956410869956
0.0064391130581498
0.0097369039431214
0.0128379901871085
0.0157523769885301
0.0185056068003177
0.0211295299232006
0.0236488636583089
0.0260688588023185
0.0283720903098583
0.0305266212671995
0.0325011499226093
0.0342721752822399
0.035816453397274
0.0371062904596328
0.0381154529750347
0.0388267114758491
0.0392409041523933
0.0393854901194572
0.0393126122653484
0.0390863046050071
0.0387689694762229
0.0384130366146564
0.03805623203516
0.0377192422747612
0.0374056659638881
0.0371053032577037
0.0368019975721836
0.0364770852029323
0.0361023694276809
0.0356366112828254
0.0350349806249141
0.0342610776424407
0.0332904383540153
0.032101109623909
0.0306542590260505
0.0288779363036155
0.0266660954803228
0.0238938499242067
0.0204440504312515
0.0162395127117633
0.0112703163176774
0.0056068897247314
-0.0006003668531775
-0.0071391817182302
-0.013772951439023
-0.0202772319316864
-0.0264599397778511
-0.0321678332984447
-0.0372833907604217
-0.0417200215160846
-0.0454197898507118
-0.0483491793274879
-0.050494335591793
-0.051860686391592
-0.052475057542324
-0.0523871108889579
-0.0516706444323062
-0.0504210703074932
-0.0487438887357711
-0.046743843704462
-0.0445244275033474
-0.0421861223876476
-0.0398147739470005
-0.0374689400196075
-0.0351736061275005
-0.0329218618571758
-0.0306820422410964
-0.0284063480794429
-0.0260407626628875
-0.023535368964076
-0.020852755755186
-0.0179732553660869
-0.014896067790687
-0.0116353556513786
-0.0082137193530797
-0.0046628564596176
-0.0010332278907299
0.0026025306433439
0.0061612073332071
0.0095664737746119
0.0127608980983495
0.0157103687524795
0.0184048507362604
0.0208567772060632
0.0230946596711874
0.0251518934965133
0.027056261897087
0.0288257263600826
0.030469175428152
0.0319903679192066
0.0333955958485603
0.0346955023705959
0.0358935557305812
0.0369742140173912
0.0379054993391037
0.0386540666222572
0.0391983091831207
0.039530411362648
0.0396543592214584
0.0395855084061622
0.0393474772572517
0.0389668904244899
0.0384703315794467
0.0378830954432487
0.0372278243303298
0.0365243107080459
0.0357922539114952
0.0350484251976013
0.0342894159257411
0.0334696508944034
0.0324889943003654
0.0311945769935846
0.0293976087123155
0.0269042365252971
0.0235549435019493
0.01926189661026
0.0140332421287894
0.0079764621332287
0.0012816721573472
-0.0058027300983667
-0.0129948509857058
-0.020006725564599
-0.0265719350427389
-0.0324695445597171
-0.0375434048473835
-0.0417120046913623
-0.0449627190828323
-0.047331728041172
-0.0488810315728187
-0.0496853329241275
-0.0498302057385444
-0.0494128912687301
-0.0485379286110401
-0.0473070815205574
-0.045811977237463
-0.0441351681947708
-0.0423507578670978
-0.0405158810317516
-0.038658320903778
-0.0367747172713279
-0.0348466709256172
-0.0328584350645542
-0.0307991933077573
-0.0286572687327861
-0.0264178495854139
-0.0240649711340665
-0.021586637943983
-0.0189799964427948
-0.0162509195506572
-0.0134109128266572
-0.0104780402034521
-0.0074797580018639
-0.0044518811628222
-0.0014311680570244
0.0015553440898656
0.004491158761084
0.0073552019894123
0.0101096546277403
0.0127067770808935
0.015105053782463
0.0172798968851566
0.0192261300981044
0.0209556426852941
0.0224922690540552
0.0238666497170925
0.0251115635037422
0.0262560658156871
0.0273213721811771
0.0283204857259988
0.0292610004544258
0.0301506239920854
0.0309976711869239
0.0317998677492141
0.0325326435267925
0.0331519246101379
0.0336099825799465
0.0338717103004455
0.0339226275682449
0.0337694995105266
0.0334368459880352
0.0329588167369365
0.0323682688176631
0.0316889211535453
0.0309291593730449
0.0300696194171905
0.0290485359728336
0.0277562532573938
0.0260389558970928
0.023712771013379
0.0205977335572242
0.016563881188631
0.0115669574588537
0.0056627094745635
-0.0009980238974094
-0.0081882635131478
-0.0156324952840805
-0.0230374224483966
-0.0301225762814283
-0.0366488993167877
-0.0424369983375072
-0.047367013990879
-0.0513655021786689
-0.0543910413980484
-0.0564308054745197
-0.0575113333761692
-0.0577054768800735
-0.0571231804788112
-0.0558976531028747
-0.0541743785142898
-0.0520975850522518
-0.0497941486537456
-0.0473620258271694
-0.0448670387268066
-0.042344506829977
-0.0398026257753372
-0.0372282490134239
-0.0345936864614486
-0.0318613648414611
-0.0289867334067821
-0.0259283855557441
-0.0226679071784019
-0.0192212667316198
-0.0156322009861469
-0.0119591485708951
-0.008262064307928
-0.0045897867530584
-0.0009715538471937
0.0025848969817161
0.0060872919857501
0.0095470575615763
0.0129681397229433
0.0163419693708419
0.0196492094546556
0.0228657256811857
0.025970796123147
0.0289488472044467
0.0317796692252159
0.0344315655529499
0.0368664301931858
0.039047610014677
0.0409461483359336
0.0425463877618312
0.0438495725393295
0.0448763817548751
0.0456664264202117
0.0462689101696014
0.046728529036045
0.0470778942108154
0.0473382100462913
0.0475225895643234
0.0476386174559593
0.0476851277053356
0.0476447865366935
0.047483954578638
0.047162115573883
0.0466429889202117
0.0459018349647522
0.0449283309280872
0.0437265560030937
0.0423112139105796
0.04069434851408
0.0388600677251815
0.0367407388985157
0.0342141240835189
0.0311247128993272
0.0273210629820823
0.0226989053189754
0.0172306783497333
0.0109696518629789
0.0040406733751297
-0.0033706501126289
-0.0110325515270233
-0.0186874140053987
-0.0260751359164714
-0.0329577438533306
-0.0391401909291744
-0.0444797798991203
-0.0488854087889194
-0.052313283085823
-0.0547608770430088
-0.056259274482727
-0.0568660348653793
-0.0566624328494071
-0.0557588785886764
-0.0543008632957935
-0.0524589344859123
-0.0504019483923912
-0.048271507024765
-0.0461681820452213
-0.0441476628184318
-0.0422241538763046
-0.0403756722807884
-0.0385497771203517
-0.0366761609911918
-0.0346851013600826
-0.0325226671993732
-0.030156098306179
-0.0275695379823446
-0.0247565917670726
-0.0217202231287956
-0.0184845179319381
-0.0151041680946946
-0.0116569623351097
-0.008225685916841
-0.0048818411305546
-0.0016769883222877
0.001357119064778
0.0042052660137414
0.0068673086352646
0.0093557573854923
0.0116895446553826
0.0138867832720279
0.0159614905714988
0.0179269835352897
0.0198030397295951
0.0216135904192924
0.0233695320785045
0.0250553451478481
0.0266330316662788
0.0280560888350009
0.0292856190353631
0.030302369967103
0.0311082042753696
0.0317207872867584
0.0321683995425701
0.0324836447834968
0.0326961688697338
0.0328288860619068
0.0328971296548843
0.0329091660678386
0.0328669548034668
0.0327546298503875
0.0325089544057846
0.0319946408271789
0.0310099609196186
0.0293232649564743
0.0267227627336978
0.0230618976056575
0.018291100859642
0.0124714570119977
0.0057700742036104
-0.001559404656291
-0.009209007024765
-0.0168556254357099
-0.0241953320801258
-0.0309647619724273
-0.0369507633149623
-0.0419980511069297
-0.046020433306694
-0.0490027107298374
-0.0509845353662967
-0.0520396530628204
-0.0522610135376453
-0.0517500862479209
-0.0506112053990364
-0.048951219767332
-0.0468798838555812
-0.0445075966417789
-0.0419385842978954
-0.0392593219876289
-0.0365291684865951
-0.0337776616215705
-0.0310024619102478
-0.0281743928790092
-0.0252594351768493
-0.0222392976284027
-0.0191127248108387
-0.0158871784806251
-0.012573629617691
-0.0091852787882089
-0.0057379342615604
-0.0022528879344463
0.0012414716184139
0.0047147683799266
0.0081413770094513
0.011500135064125
0.014767924323678
0.0179192293435335
0.0209369044750928
0.023816967383027
0.0265548881143331
0.0291306655853986
0.031512513756752
0.0336719155311584
0.0355921313166618
0.037269189953804
0.0387130379676818
0.0399460233747959
0.040995754301548
0.0418890714645385
0.0426497943699359
0.0432970821857452
0.0438459254801273
0.0443107932806015
0.0447094962000846
0.0450595393776893
0.0453626252710819
0.0455937422811985
0.0457103252410888
0.0456698685884475
0.0454387031495571
0.0449932813644409
0.0443229377269744
0.0434329062700271
0.0423406735062599
0.0410606637597084
0.0395776741206646
0.0378210805356502
0.0356570780277252
0.0329093337059021
0.0294015035033226
0.0249962732195854
0.019615875557065
0.0132568944245576
0.0060051791369915
-0.0019625090062618
-0.0103950826451182
-0.0189941562712192
-0.0274462942034006
-0.0354575887322425
-0.0427831262350082
-0.0492428019642829
-0.0547207295894622
-0.0591541565954685
-0.062521792948246
-0.0648362189531326
-0.0661375373601913
-0.0664907321333885
-0.0659911558032035
-0.064768373966217
-0.0629781186580658
-0.0607853382825851
-0.0583452433347702
-0.0557859614491462
-0.0531941428780555
-0.050607830286026
-0.0480204708874225
-0.0453933402895927
-0.0426718369126319
-0.0398005917668342
-0.036733154207468
-0.0334361866116523
-0.0298904459923505
-0.0260943938046693
-0.0220725703984498
-0.0178785696625709
-0.0135861970484256
-0.009274742566049
-0.0050146449357271
-0.000857226550579
0.0031684599816799
0.0070519126020371
0.0107944551855325
0.0144029688090085
0.0178824346512556
0.0212280116975307
0.0244226213544607
0.02744135633111
0.0302598867565393
0.0328587368130683
0.0352175645530223
0.0373103320598602
0.039109818637371
0.0405960530042648
0.041764311492443
0.042629525065422
0.0432240068912506
0.043592307716608
0.0437870733439922
0.0438631251454353
0.0438684895634651
0.0438353642821311
0.0437750741839408
0.0436833091080188
0.0435534492135047
0.0433798693120479
0.0431469231843948
0.0428240522742271
0.042374812066555
0.0417665988206863
0.0409729741513729
0.0399680770933628
0.0387104749679565
0.0371210277080535
0.0350751504302024
0.0324237495660781
0.0290289837867021
0.0247933436185121
0.0196771286427974
0.0137126520276069
0.0070200823247432
-0.0001937951892614
-0.0076729115098714
-0.0151622975245118
-0.0224369596689939
-0.029309120029211
-0.0356294810771942
-0.0412847213447093
-0.0461886301636695
-0.0502729937434196
-0.0534846633672714
-0.0557896345853805
-0.0571845769882202
-0.0577096715569496
-0.0574497915804386
-0.0565200597047805
-0.0550465509295463
-0.0531580597162246
-0.0509880110621452
-0.0486697107553482
-0.0463208705186843
-0.0440272986888885
-0.0418338775634765
-0.0397442802786827
-0.0377261750400066
-0.0357211679220199
-0.0336590185761451
-0.0314717702567577
-0.0291054807603359
-0.0265291482210159
-0.0237387642264366
-0.0207538474351167
-0.0176060833036899
-0.0143315568566322
-0.0109761040657758
-0.0075993807986378
-0.0042652073316276
-0.0010280344868078
0.0020736749283969
0.0050181187689304
0.0077992998994886
0.0104246232658624
0.0129084922373294
0.0152641404420137
0.0174998696893453
0.0196213200688362
0.0216346997767686
0.0235477201640605
0.0253697670996189
0.0271078720688819
0.0287564285099506
0.0302928779274225
0.0316862538456916
0.0329078957438468
0.0339357517659664
0.0347555167973041
0.0353640019893646
0.0357730649411678
0.0360073111951351
0.0360959433019161
0.0360668003559112
0.0359437763690948
0.0357425473630428
0.0354653149843215
0.0350940749049186
0.0345723032951355
0.0337804071605205
0.0325315259397029
0.0306000374257564
0.0277720354497432
0.0238975826650857
0.0189260654151439
0.0129194315522909
0.0060464702546596
-0.0014386121183633
-0.0092284698039293
-0.0170009788125753
-0.0244557708501815
-0.0313386768102645
-0.0374506264925003
-0.0426448285579681
-0.0468239113688468
-0.0499444976449012
-0.0520175099372863
-0.0530977062880992
-0.0532740540802478
-0.0526642687618732
-0.0514062270522117
-0.0496450141072273
-0.0475192368030548
-0.045150876045227
-0.0426417738199234
-0.0400722958147525
-0.0374956093728542
-0.0349323116242885
-0.0323700346052646
-0.0297661889344453
-0.0270616207271814
-0.0242060292512178
-0.0211756192147731
-0.0179743058979511
-0.0146274957805871
-0.0111733404919505
-0.00765320379287
-0.004106055945158
-0.0005665561184287
0.0029368326067924
0.0063817156478762
0.0097493035718798
0.0130227170884609
0.0161845665425062
0.0192180015146732
0.0221154019236564
0.0248787477612495
0.0275044422596693
0.0299736727029085
0.0322589799761772
0.0343361124396324
0.0361937470734119
0.0378383472561836
0.0392894744873046
0.0405687056481838
0.0416914038360118
0.0426633022725582
0.043480709195137
0.0441342666745185
0.0446112044155597
0.0448974780738353
0.0449858643114566
0.0448803417384624
0.0445884019136428
0.0441125817596912
0.04344979301095
0.0425952263176441
0.041548728942871
0.0403215959668159
0.038938321173191
0.0374325402081012
0.0358397886157035
0.0341843664646148
0.0324568338692188
0.0305900685489177
0.0284522324800491
0.0258692651987075
0.0226672310382127
0.0187078285962343
0.0139052681624889
0.0082384534180164
0.0017662048339843
-0.005365777760744
-0.0129350302740931
-0.0206678956747055
-0.0282740127295255
-0.0354807525873184
-0.0420587509870529
-0.047834038734436
-0.0526882149279117
-0.0565519258379936
-0.059397418051958
-0.0612320154905319
-0.0620932951569557
-0.0620514824986457
-0.061216652393341
-0.05973407253623
-0.0577636808156967
-0.0554599687457084
-0.0529608465731143
-0.0503788441419601
-0.0477923303842544
-0.0452424511313438
-0.0427357107400894
-0.0402479544281959
-0.0377317145466804
-0.0351291336119174
-0.0323852896690368
-0.0294563323259353
-0.0263139512389898
-0.0229522679001092
-0.0193958021700382
-0.0156986005604267
-0.0119347367435693
-0.0081873564049601
-0.0045353709720075
-0.0010410542599856
0.0022543361410498
0.0053304424509406
0.0081872353330254
0.010842241346836
0.0133252749219536
0.0156714301556348
0.0179129149764776
0.020072977989912
0.022166408598423
0.0242005623877048
0.0261691156774759
0.0280472505837678
0.0297964382916688
0.0313756763935089
0.0327543839812278
0.0339203625917434
0.0348787792026996
0.0356453880667686
0.0362405590713024
0.0366869941353797
0.0370070599019527
0.0372183658182621
0.0373329780995845
0.0373634286224842
0.0373287536203861
0.03724842146039
0.0371256843209266
0.0369390919804573
0.0366515889763832
0.0362248644232749
0.0356244333088398
0.034812606871128
0.0337330922484397
0.032296098768711
0.0303761977702379
0.0278283283114433
0.0245181582868099
0.0203565470874309
0.0153268724679946
0.0095007997006177
0.003040250390768
-0.0038224468007683
-0.0108264731243252
-0.0177242066711187
-0.0243009626865386
-0.0303779691457748
-0.0358130186796188
-0.0405004620552063
-0.0443682111799716
-0.0473745428025722
-0.0495064780116081
-0.0507793724536895
-0.0512390360236167
-0.0509649775922298
-0.0500681921839714
-0.0486774258315563
-0.0469178855419158
-0.0449000783264637
-0.0427243933081626
-0.0404819771647453
-0.03824333101511
-0.0360472984611988
-0.0338969379663467
-0.0317612029612064
-0.0295846462249755
-0.0273057930171489
-0.0248765498399734
-0.0222720988094806
-0.0194896943867206
-0.0165428332984447
-0.0134564964100718
-0.0102621223777532
-0.0069881537929177
-0.003657117486
-0.0003000134602189
0.0030298712663352
0.0062631699256598
0.0093324510380625
0.0121857626363635
0.0147918565198779
0.0171411950141191
0.0192442312836647
0.0211256984621286
0.0228173807263374
0.0243530087172985
0.0257644467055797
0.0270782522857189
0.0283152014017105
0.0294931009411811
0.0306244306266307
0.0317035987973213
0.03269924223423
0.0335650257766246
0.0342581532895565
0.0347527414560318
0.0350448712706565
0.0351478941738605
0.03508310765028
0.0348745621740818
0.0345486067235469
0.0341333523392677
0.0336554944515228
0.0331338234245777
0.0325720719993114
0.0319537185132503
0.0312297381460666
0.0302975550293922
0.0289958696812391
0.0271308459341526
0.0245169252157211
0.0210136175155639
0.0165544934570789
0.0111658880487084
0.0049701174721121
-0.0018280427902936
-0.0089669683948159
-0.0161575581878423
-0.0231122933328151
-0.0295734480023384
-0.0353317335247993
-0.0402299873530864
-0.0441647283732891
-0.0470937117934227
-0.0490384101867675
-0.0500744134187698
-0.0503143481910228
-0.0498879328370094
-0.04892573133111
-0.0475508570671081
-0.0458743870258331
-0.0439908951520919
-0.0419740714132785
-0.0398730523884296
-0.0377128459513187
-0.0354982428252697
-0.0332149788737297
-0.030830955132842
-0.0283092334866523
-0.0256284996867179
-0.0227909293025732
-0.0198163259774446
-0.0167369097471237
-0.013592735864222
-0.0104232979938387
-0.0072594555094838
-0.0041195675730705
-0.0010109767317771
0.0020647821947932
0.0051066800951957
0.0081091383472085
0.011057517491281
0.0139296632260084
0.0167044289410114
0.0193661116063594
0.0218981523066759
0.0242763515561819
0.0264723114669322
0.0284609589725732
0.0302236601710319
0.0317513272166252
0.0330479331314563
0.0341277569532394
0.0350101217627525
0.0357181876897811
0.0362786464393138
0.0367176011204719
0.03705495595932
0.0373032875359058
0.037473015487194
0.0375753231346607
0.0376150459051132
0.0375826135277748
0.0374561883509159
0.0372102074325084
0.0368225499987602
0.0362786799669265
0.0355745032429695
0.0347176529467105
0.0337250530719757
0.0326163358986377
0.0314030535519123
0.0300718806684017
0.0285643078386783
0.0267678312957286
0.0245312117040157
0.0216910727322101
0.0180956162512302
0.0136338137090206
0.0082709826529026
0.0020720846951007
-0.0047995094209909
-0.012104857712984
-0.0195638090372085
-0.0268896371126174
-0.0338172912597656
-0.0401239097118377
-0.0456398725509643
-0.0502492971718311
-0.0538847744464874
-0.0565202422440052
-0.0581625886261463
-0.0588496476411819
-0.0586584359407424
-0.0577097460627555
-0.0561595298349857
-0.0541828200221061
-0.0519538223743438
-0.0496243461966514
-0.0473077706992626
-0.0450731813907623
-0.0429467186331748
-0.0409155264496803
-0.0389334335923194
-0.0369299240410327
-0.034824464470148
-0.0325420275330543
-0.0300221592187881
-0.02722679823637
-0.0241510737687349
-0.0208248123526573
-0.0173017177730798
-0.0136484447866678
-0.0099378665909171
-0.0062418635934591
-0.002622390165925
0.0008752383291721
0.0042232880368828
0.0074084801599383
0.010430721566081
0.013302182778716
0.0160391423851251
0.0186539739370346
0.0211588870733976
0.0235684588551521
0.0258876308798789
0.0280992649495601
0.0301660411059856
0.0320438370108604
0.0336974151432514
0.035109881311655
0.0362831428647041
0.0372340269386768
0.0379894822835922
0.038580298423767
0.0390350818634033
0.0393778420984745
0.0396294221282005
0.0398109406232833
0.0399459227919578
0.040053553879261
0.0401330552995204
0.0401559509336948
0.0400757603347301
0.0398441888391971
0.039422333240509
0.0387867055833339
0.0379305742681026
0.0368516966700553
0.0355258099734783
0.0338827967643737
0.0318018794059753
0.0291325338184833
0.0257326252758502
0.0215062722563743
0.0164335910230875
0.0105839762836694
0.0041029630228877
-0.0028119320049881
-0.009927550330758
-0.016991363838315
-0.0237543955445289
-0.0299937240779399
-0.0355304256081581
-0.0402397438883781
-0.0440498143434524
-0.0469329729676246
-0.0488995015621185
-0.049997940659523
-0.0503145605325698
-0.0499628372490406
-0.0490648411214351
-0.0477403402328491
-0.0461120791733264
-0.0443109162151813
-0.042465191334486
-0.0406791232526302
-0.0390134789049625
-0.0374768152832984
-0.0360285528004169
-0.0345921032130718
-0.0330737121403217
-0.0313795953989028
-0.0294278226792812
-0.0271587595343589
-0.024543959647417
-0.0215858705341815
-0.0183082353323698
-0.0147503158077597
-0.0109721859917044
-0.0070595862343907
-0.0031154276803135
0.0007595671340823
0.0044838255271315
0.0080003999173641
0.0112744867801666
0.0142915556207299
0.0170565750449895
0.0195888057351112
0.0219142399728298
0.0240605622529983
0.0260522589087486
0.0279082022607326
0.0296451896429061
0.031275987625122
0.0327971652150154
0.0341817960143089
0.0353861451148986
0.0363638773560524
0.0370790287852287
0.0375156626105308
0.0376844778656959
0.0376226343214511
0.0373846031725406
0.0370280295610427
0.0366017259657382
0.0361395850777626
0.035657275468111
0.0351519584655761
0.0346086584031581
0.0340001732110977
0.0332664512097835
0.0322900526225566
0.0308924838900566
0.0288572032004594
0.0259710773825645
0.0220685303211212
0.0170667506754398
0.0109887449070811
0.0039682500064373
-0.0037657525390386
-0.0119138164445757
-0.0201322752982378
-0.0280637796968221
-0.0353691950440406
-0.0417557172477245
-0.0470064133405685
-0.0510069206357002
-0.053750354796648
-0.0553171895444393
-0.0558444559574127
-0.0554970316588878
-0.0544466786086559
-0.0528602562844753
-0.0508955270051956
-0.0486972965300083
-0.0463880933821201
-0.0440584197640419
-0.0417628027498722
-0.0395218878984451
-0.0373258367180824
-0.0351358577609062
-0.0328941829502582
-0.0305468011647462
-0.0280607845634222
-0.0254262406378984
-0.0226506292819976
-0.0197519101202487
-0.016752690076828
-0.0136762484908103
-0.0105436835438013
-0.0073712412267923
-0.0041687693446874
-0.0009415242820978
0.002304894849658
0.0055602472275495
0.0088101150467991
0.0120397983118891
0.0152323273941874
0.0183579437434673
0.0213702674955129
0.0242190603166818
0.0268668346107006
0.0292961783707141
0.0315090790390968
0.0335216745734214
0.0353559479117393
0.0370333008468151
0.0385728552937507
0.0399903431534767
0.0412941016256809
0.042481318116188
0.0435407757759094
0.0444618724286556
0.0452381782233715
0.0458593741059303
0.0463057048618793
0.0465532541275024
0.0465807542204856
0.0463734492659568
0.0459267869591712
0.0452493168413639
0.0443631261587142
0.0433008261024951
0.0420983023941516
0.0407859236001968
0.0393782891333103
0.0378585681319236
0.0361657440662384
0.0341957136988639
0.0318068601191043
0.0288269259035587
0.0250786747783422
0.0204247385263443
0.0148102510720491
0.0082872342318296
0.0010151006281375
-0.0067615248262882
-0.014750201255083
-0.0226510465145111
-0.0301880538463592
-0.0371288992464542
-0.0432965457439422
-0.0485702231526374
-0.0528734102845191
-0.0561592280864715
-0.0584106221795082
-0.0596558600664138
-0.0599785149097442
-0.0595107153058052
-0.0584155283868312
-0.0568630285561084
-0.0550073385238647
-0.0529739223420619
-0.050855379551649
-0.0487096831202507
-0.0465599447488784
-0.0443977117538452
-0.0421912595629692
-0.0398959815502166
-0.0374604389071464
-0.034829244017601
-0.0319547690451145
-0.0288180671632289
-0.025440638884902
-0.0218795016407966
-0.0182125475257635
-0.0145204467698931
-0.0108719216659665
-0.0073151187971234
-0.003873910754919
-0.0005522053688764
0.0026548523455858
0.0057519217953085
0.0087398942559957
0.0116147305816411
0.0143702663481235
0.0170049741864204
0.019522875547409
0.0219242610037326
0.0241983979940414
0.0263253264129161
0.0282803326845169
0.0300385970622301
0.0315806083381176
0.0328956954181194
0.0339837856590747
0.0348566100001335
0.0355364643037319
0.0360521748661994
0.0364349000155925
0.0367163084447383
0.0369303897023201
0.037113819271326
0.0372963733971118
0.0374853610992431
0.0376579463481903
0.0377670936286449
0.0377570427954196
0.0375796481966972
0.0372037962079048
0.0366163179278373
0.0358162000775337
0.0348045080900192
0.0335715152323246
0.0320806056261062
0.0302548538893461
0.0279776901006698
0.025115430355072
0.0215562842786312
0.0172410570085048
0.0121702644973993
0.0064036510884761
6.308965384960175e-05
-0.0066710552200675
-0.0135757755488157
-0.0204085614532232
-0.0269327219575643
-0.0329392403364181
-0.0382595211267471
-0.0427712835371494
-0.0464012362062931
-0.0491218417882919
-0.0509435385465621
-0.0519083738327026
-0.0520847700536251
-0.0515642166137695
-0.0504628792405128
-0.0489195436239242
-0.0470815151929855
-0.0450849309563636
-0.0430391617119312
-0.041017759591341
-0.0390544980764389
-0.0371439419686794
-0.0352475047111511
-0.0333053693175315
-0.0312532447278499
-0.0290394276380538
-0.0266328863799572
-0.0240198094397783
-0.0211966577917337
-0.0181698910892009
-0.0149634089320898
-0.0116228777915239
-0.0082096457481384
-0.0047875512391328
-0.0014107022434473
0.0018807654269039
0.0050586494617164
0.0081051439046859
0.0110123623162508
0.0137779815122485
0.016397900879383
0.0188640281558036
0.0211676061153411
0.023301675915718
0.0252638794481754
0.0270569697022438
0.0286793019622564
0.0301155969500541
0.0313420295715332
0.0323404483497142
0.0331090688705444
0.0336623936891555
0.0340237841010093
0.0342208072543144
0.0342849865555763
0.0342489778995513
0.0341398455202579
0.0339735522866249
0.033754575997591
0.0334832742810249
0.0331661030650138
0.0328139401972293
0.0324272066354751
0.0319886170327663
0.0314743854105472
0.0308686420321464
0.0301656387746334
0.0293613076210021
0.0284400861710309
0.0273594632744789
0.0260367821902036
0.0243458859622478
0.0221300404518842
0.0192326698452234
0.0155364871025085
0.0109958536922931
0.0056520774960517
-0.0003759879618883
-0.0069198478013277
-0.0137852812185883
-0.0207645557820796
-0.0276470240205526
-0.0342333428561687
-0.0403499901294708
-0.0458591990172863
-0.0506621673703193
-0.0546942241489887
-0.0579165667295455
-0.0603137649595737
-0.0618955865502357
-0.0626980736851692
-0.0627822205424308
-0.0622261129319667
-0.0611170455813407
-0.0595542229712009
-0.057652149349451
-0.0555307455360889
-0.0532974265515804
-0.0510308258235454
-0.048769611865282
-0.0465104281902313
-0.0442162789404392
-0.0418285951018333
-0.0392762422561645
-0.0364833213388919
-0.0333804935216903
-0.0299180001020431
-0.0260751880705356
-0.0218655485659837
-0.0173417329788208
-0.0126006165519356
-0.0077755348756909
-0.0030115190893411
0.0015599559992551
0.0058360574766993
0.0097515312954783
0.0132814589887857
0.016435345634818
0.0192459654062986
0.0217579584568738
0.0240215323865413
0.0260905064642429
0.0280161313712596
0.0298399366438388
0.0315964706242084
0.033314973115921
0.0350068137049675
0.0366536825895309
0.0382120944559574
0.0396273806691169
0.0408447533845901
0.0418159067630767
0.0425054542720317
0.0428987294435501
0.043007954955101
0.0428704917430877
0.0425388701260089
0.0420692041516304
0.0415119715034961
0.0409089252352714
0.0402968600392341
0.0397067293524742
0.0391523316502571
0.0386213213205337
0.0380780138075351
0.0374751016497612
0.0367664508521556
0.0359102897346019
0.0348582342267036
0.0335391648113727
0.0318516343832016
0.0296723172068595
0.0268810838460922
0.0233937073498964
0.0191860105842351
0.0143049769103527
0.0088731870055198
0.0030773398466408
-0.002867704257369
-0.0087566934525966
-0.0144123621284961
-0.0196904204785823
-0.0244786851108074
-0.0286912061274051
-0.0322629734873771
-0.0351486541330814
-0.0373230129480361
-0.0387838259339332
-0.0395572111010551
-0.0396994799375534
-0.0392917394638061
-0.0384292528033256
-0.0372100099921226
-0.0357292033731937
-0.0340808182954788
-0.0323570445179939
-0.0306387804448604
-0.0289832986891269
-0.0274183005094528
-0.0259424000978469
-0.0245288740843534
-0.0231333002448081
-0.0217010360211133
-0.0201718024909496
-0.018489196896553
-0.0166153721511364
-0.0145399235188961
-0.0122775956988334
-0.0098582105711102
-0.0073217158205807
-0.0047223148867487
-0.0021258923225104
0.0004015560261905
0.0028006192296743
0.0050215395167469
0.0070315669290721
0.0088218906894326
0.0104074701666831
0.0118206106126308
0.0131006874144077
0.0142833264544606
0.0153944063931703
0.0164513997733593
0.0174707025289535
0.0184734351933002
0.0194772742688655
0.0204779282212257
0.0214423481374979
0.0223218202590942
0.0230712629854679
0.0236612185835838
0.0240804888308048
0.02433418110013
0.0244388803839683
0.0244154371321201
0.0242849197238683
0.024069694802165
0.0237923450767993
0.0234654061496257
0.023076057434082
0.0225757621228694
0.0218731872737407
0.020830076187849
0.0192768462002277
0.0170503351837396
0.0140327308326959
0.0101796183735132
0.0055351415649056
0.0002305842936038
-0.0055320202372968
-0.0115043716505169
-0.0174204371869564
-0.0230264402925968
-0.028107862919569
-0.0325081422924995
-0.0361302532255649
-0.0389216095209121
-0.0408658199012279
-0.0419914163649082
-0.0423750057816505
-0.0421273708343505
-0.0413737520575523
-0.040236547589302
-0.0388243943452835
-0.0372293852269649
-0.0355265848338604
-0.0337692871689796
-0.0319837071001529
-0.0301695335656404
-0.028305996209383
-0.0263616759330034
-0.0243037659674882
-0.0221002157777547
-0.0197229627519845
-0.0171616673469543
-0.014434571377933
-0.0115828746929764
-0.008656445890665
-0.0057057058438658
-0.0027802335098385
7.51744955778122e-05
0.0028263982385396
0.0054513672366738
0.0079374071210622
0.0102804256603121
0.012487705796957
0.0145776672288775
0.0165741704404354
0.0185010619461536
0.020375495776534
0.0221976786851882
0.0239480212330818
0.0255974512547254
0.027119169011712
0.0284923873841762
0.0297024585306644
0.0307427272200584
0.0316153243184089
0.0323295071721077
0.0328994691371917
0.0333408042788505
0.0336664840579032
0.0338850952684879
0.0340046733617782
0.0340422540903091
0.0340249016880989
0.0339731648564338
0.0338853672146797
0.0337407924234867
0.0335158854722976
0.0331956632435321
0.0327723361551761
0.0322399847209453
0.0315897166728973
0.0307966843247413
0.0298005528748035
0.028495505452156
0.0267388969659805
0.0243749059736728
0.0212684646248817
0.0173434726893901
0.0126063600182533
0.0071394080296158
0.0010793730616569
-0.0053958836942911
-0.0120764430612325
-0.0187362171709537
-0.0251525938510894
-0.0311239622533321
-0.0364831537008285
-0.0411054901778698
-0.0449115894734859
-0.047864843159914
-0.0499658845365047
-0.0512488558888435
-0.0517757683992385
-0.0516242533922195
-0.0508810579776763
-0.0496496185660362
-0.0480541884899139
-0.0462263561785221
-0.0442819632589817
-0.04230298101902
-0.0403314232826232
-0.038371492177248
-0.0363956317305564
-0.0343547575175762
-0.0321909897029399
-0.0298500582575798
-0.0272914674133062
-0.0244947429746389
-0.0214583165943622
-0.0181921645998954
-0.0147167416289448
-0.0110731022432446
-0.0073299054056406
-0.0035765944048762
9.28640365600586e-05
0.0035956883803009
0.0068699233233928
0.0098800677806139
0.0126181691884994
0.0150989955291152
0.0173527132719755
0.0194163173437118
0.0213259570300579
0.023112853989005
0.0248022116720676
0.0264157392084598
0.0279711782932281
0.0294720102101564
0.0308995991945266
0.0322189144790172
0.0333910286426544
0.0343841910362243
0.0351797193288803
0.0357738472521305
0.0361800603568553
0.0364281721413135
0.0365559048950672
0.0365982837975025
0.0365786254405975
0.0365028195083141
0.0363650880753994
0.0361656099557876
0.035917442291975
0.0356298685073852
0.0352896749973297
0.0348559767007827
0.034258272498846
0.0333913415670394
0.0321163944900035
0.0302750673145055
0.0277122594416141
0.024305235594511
0.0199945159256458
0.0148048335686326
0.0088488757610321
0.0023145070299506
-0.0045576812699437
-0.0114980759099125
-0.0182355437427759
-0.024531228467822
-0.0302051678299903
-0.035143569111824
-0.0392881631851196
-0.042617667466402
-0.0451338216662406
-0.0468565747141838
-0.0478245802223682
-0.0480965115129947
-0.0477519258856773
-0.0468905642628669
-0.0456271469593048
-0.0440811067819595
-0.0423603616654872
-0.0405418463051319
-0.0386663042008876
-0.0367534719407558
-0.0348150394856929
-0.0328511893749237
-0.0308435689657926
-0.0287582036107778
-0.0265559367835521
-0.0242033526301383
-0.0216827150434255
-0.0189985334873199
-0.0161741133779287
-0.0132386218756437
-0.0102169327437877
-0.0071304365992546
-0.0039995070546865
-0.0008384976536035
0.0023438166826963
0.0055294008925557
0.0086789429187774
0.0117357978597283
0.0146394129842519
0.0173371080309152
0.0197882317006587
0.0219642035663127
0.0238495022058486
0.0254424270242452
0.0267549231648445
0.0278131254017353
0.0286569967865943
0.0293356832116842
0.0299009606242179
0.0304059237241745
0.0309096276760101
0.0314808599650859
0.0321960859000682
0.0331301763653755
0.034340426325798
0.0358476713299751
0.03762137144804
