bvp
0.0623461864888668
0.0588125735521316
0.0540945380926132
0.0483693331480026
0.0418843440711498
0.0349436216056346
0.027884267270565
0.0210423804819583
0.0147192850708961
0.0091578960418701
0.0045322999358177
0.0009463429450988
-0.0015628039836883
-0.0030158683657646
-0.0034794881939888
-0.0030533000826835
-0.0018594339489936
-3.863871097564697e-05
0.0022548884153366
0.0048674643039703
0.0076601803302764
0.0105175748467445
0.0133531540632247
0.0161124542355537
0.0187717750668525
0.0213303044438362
0.0238001681864261
0.0262013487517833
0.028558675199747
0.0308957733213901
0.0332324355840683
0.0355889461934566
0.0379826761782169
0.0404117219150066
0.0428466126322746
0.0452403277158737
0.0475413799285888
0.0496995225548744
0.0516683012247085
0.0534081608057022
0.0548882000148296
0.056086279451847
0.0569885075092315
0.0575900860130786
0.0578994005918502
0.0579397156834602
0.0577479153871536
0.0573758147656917
0.0568813867866992
0.056305669248104
0.0556626096367836
0.0549528636038303
0.0541789308190345
0.0533471852540969
0.0524635165929794
0.0515275746583938
0.0505266860127449
0.0494357720017433
0.0482252836227417
0.0468707904219627
0.0453563667833805
0.0436714589595794
0.0418121665716171
0.0397890657186508
0.0376248806715011
0.0353388264775276
0.0329375490546226
0.0304215289652347
0.0277975276112556
0.0250855777412652
0.022317461669445
0.0195324458181858
0.0167725440114736
0.0140767581760883
0.011477418243885
0.0089981257915496
0.0066463276743888
0.0043960213661193
0.0021683238446712
-0.0001768618822097
-0.0028379298746585
-0.0060604996979236
-0.0101079158484935
-0.0152095854282379
-0.0215056017041206
-0.0290090553462505
-0.0375932306051254
-0.0470029115676879
-0.0568878352642059
-0.0668506547808647
-0.0764956548810005
-0.0854669734835624
-0.0934728011488914
-0.1002959161996841
-0.1057908236980438
-0.1098724156618118
-0.1125125139951706
-0.1137517392635345
-0.1137061864137649
-0.1125537902116775
-0.110509343445301
-0.107799232006073
-0.1046386212110519
-0.101212590932846
-0.0976636409759521
-0.0940861105918884
-0.0905256271362304
-0.086983174085617
-0.0834235250949859
-0.0797861590981483
-0.0759962946176529
-0.0719733536243438
-0.0676422491669654
-0.0629529058933258
-0.0578967817127704
-0.052508920431137
-0.0468588545918464
-0.0410371348261833
-0.0351418666541576
-0.0292652919888496
-0.0234826169908046
-0.0178507827222347
-0.0124151399359107
-0.0072137713432312
-0.0022766911424696
0.0023769834078848
0.0067432369105517
0.0108367316424846
0.0146849732846021
0.0183124430477619
0.0217303112149238
0.024939376860857
0.0279368720948696
0.0307209230959415
0.0332953222095966
0.035672839730978
0.0378728136420249
0.0399153940379619
0.0418162941932678
0.0435845702886581
0.0452239848673343
0.0467360839247703
0.0481248125433921
0.0494016148149967
0.050582006573677
0.0516714230179786
0.0526566952466964
0.0535092465579509
0.0541896447539329
0.0546490363776683
0.054822240024805
0.0546084940433502
0.0538547113537788
0.0523617640137672
0.049917995929718
0.0463463105261325
0.0415458232164382
0.0355176031589508
0.0283770337700843
0.0203540120273828
0.0117693357169628
0.0029863435775041
-0.0056375339627265
-0.0137822423130273
-0.0211843810975551
-0.0276481509208679
-0.0330453738570213
-0.0373072996735572
-0.0404151231050491
-0.0423918962478637
-0.0432972200214862
-0.0432266294956207
-0.0423107743263244
-0.0407088510692119
-0.0385964028537273
-0.0361481681466102
-0.0335241965949535
-0.0308658108115196
-0.0282898414880037
-0.0258754715323448
-0.0236542783677577
-0.0216087214648723
-0.0196777284145355
-0.0177683401852846
-0.0157706439495086
-0.0135764749720692
-0.011101871728897
-0.0083037745207548
-0.0051840590313076
-0.0017842114903032
0.0018273063469678
0.0055719255469739
0.0093692569062113
0.0131326364353299
0.0167679768055677
0.0201857276260852
0.0233168490231037
0.0261208452284336
0.0285838227719068
0.0307145863771438
0.0325423032045364
0.0341105498373508
0.035465620458126
0.0366447605192661
0.0376707725226879
0.0385523848235607
0.0392890572547912
0.0398810282349586
0.0403342023491859
0.0406494252383708
0.0408092588186264
0.0407793074846267
0.0405209250748157
0.0400056615471839
0.0392263047397136
0.0382017418742179
0.0369760766625404
0.0356116779148578
0.0341760739684104
0.0327283665537834
0.0313121527433395
0.0299543775618076
0.0286680590361356
0.0274590756744146
0.0263244677335023
0.025231409817934
0.0240927450358867
0.0227588079869747
0.0210293382406234
0.0186829976737499
0.0155167430639266
0.0113846287131309
0.0062272958457469
8.533895015716553e-05
-0.0069027878344058
-0.0145148038864135
-0.0224700346589088
-0.0304617770016193
-0.0381845273077487
-0.0453505888581275
-0.0517101809382438
-0.0570811815559864
-0.0613668300211429
-0.0645480453968048
-0.0666620433330535
-0.0677804350852966
-0.0679939091205596
-0.0674073249101638
-0.0661392286419868
-0.0643166601657867
-0.0620669350028038
-0.0595124065876007
-0.0567673742771148
-0.0539321824908256
-0.0510800667107105
-0.0482400879263877
-0.0453931242227554
-0.0424903333187103
-0.0394771620631217
-0.0363066866993904
-0.032946977764368
-0.0293872375041246
-0.0256394371390342
-0.021736916154623
-0.0177340693771839
-0.0137040354311466
-0.0097281076014041
-0.0058806212618947
-0.0022191703319549
0.0012179459445178
0.0044125476852059
0.0073678642511367
0.0101040238514542
0.0126450341194868
0.0150062404572963
0.0171912759542465
0.0191977322101593
0.021023366600275
0.0226688664406538
0.0241398885846138
0.0254480354487895
0.0266104489564895
0.0276495181024074
0.0285893864929676
0.0294493809342384
0.0302419755607843
0.0309775993227958
0.0316692702472209
0.0323279164731502
0.0329510234296321
0.0335186682641506
0.03400120139122
0.0343695469200611
0.0346021130681037
0.0346892997622489
0.0346341878175735
0.0344476774334907
0.0341440066695213
0.0337411947548389
0.03325966745615
0.0327149517834186
0.0321107618510723
0.0314345508813858
0.0306489430367946
0.029676279053092
0.028387114405632
0.0266102962195873
0.0241671334952116
0.0209135208278894
0.0167738161981105
0.0117603987455368
0.0059791710227727
-0.0003785081207752
-0.0070581585168838
-0.0137757258489727
-0.0202523246407508
-0.0262409020215272
-0.0315422266721725
-0.0360101908445358
-0.0395512953400611
-0.0421282723546028
-0.0437669605016708
-0.044552281498909
-0.0446093007922172
-0.0440819635987281
-0.0431177094578743
-0.0418554097414016
-0.0404152944684028
-0.0388922318816185
-0.0373519249260425
-0.0358285494148731
-0.0343252345919609
-0.0328205004334449
-0.0312796756625175
-0.0296645015478134
-0.0279362946748733
-0.0260598585009574
-0.0240145660936832
-0.0218031425029039
-0.0194484628736972
-0.0169841200113296
-0.014447740279138
-0.0118754357099533
-0.0092964107170701
-0.0067316712811589
-0.0041952305473387
-0.001696839928627
0.000753752188757
0.0031462581828236
0.005473184864968
0.0077325711026787
0.0099282711744308
0.0120640946552157
0.0141319930553436
0.0161042045801877
0.0179382394999265
0.0195935517549514
0.0210482105612754
0.022302096709609
0.0233677811920642
0.0242631025612354
0.0250101406127214
0.0256330706179142
0.0261530075222253
0.0265849996358156
0.0269383452832698
0.0272210761904716
0.027448397129774
0.027641873806715
0.0278125833719968
0.0279481112957
0.0280186776071786
0.0279923286288976
0.0278454236686229
0.0275644976645708
0.0271438267081975
0.0265833847224712
0.0258865542709827
0.0250533446669578
0.0240669976919889
0.0228788424283266
0.0213990062475204
0.0195041112601757
0.0170662701129913
0.013983923010528
0.0101981246843934
0.0057038310915231
0.0005635572597384
-0.0050870738923549
-0.011049079708755
-0.0170808173716068
-0.022925779223442
-0.0283433832228183
-0.0331323370337486
-0.0371417589485645
-0.0402766838669776
-0.0425011739134788
-0.0438349731266498
-0.0443407744169235
-0.0441050603985786
-0.0432254709303379
-0.041812814772129
-0.0399963557720184
-0.0379166416823864
-0.0357065647840499
-0.0334757044911384
-0.0313041396439075
-0.0292394291609525
-0.0272939391434192
-0.0254461728036403
-0.0236506070941686
-0.0218528024852275
-0.0200011227279901
-0.0180511511862278
-0.0159626044332981
-0.0136967115104198
-0.0112276412546634
-0.0085618617013096
-0.0057436088100075
-0.0028420323505997
6.762892007827759e-05
0.0029196823015809
0.0056655947118997
0.0082734562456607
0.0107249803841114
0.0130145885050296
0.0151495262980461
0.0171472784131765
0.0190295502543449
0.0208156444132328
0.0225201770663261
0.0241563413292169
0.025734793394804
0.0272530131042003
0.028687909245491
0.0300007537007331
0.0311478972434997
0.0320898853242397
0.0327989682555198
0.0332665517926216
0.0335065126419067
0.0335504114627838
0.0334390997886657
0.0332160852849483
0.0329233445227146
0.0325986966490745
0.0322739966213703
0.0319734960794448
0.0317073799669742
0.0314607582986354
0.0311919078230857
0.0308458618819713
0.0303720105439424
0.0297352168709039
0.0289204772561788
0.02793157286942
0.0267810449004173
0.02547537535429
0.0239996295422315
0.0223006326705217
0.0202781222760677
0.0177983008325099
0.0147281493991613
0.0109764859080314
0.0065226210281252
0.001419155858457
-0.0042203478515148
-0.0102312918752431
-0.016406962648034
-0.0225142575800418
-0.0283164530992507
-0.0336003676056861
-0.0382003523409366
-0.0420086272060871
-0.0449719205498695
-0.0470827855169773
-0.0483714565634727
-0.0488996841013431
-0.0487533137202262
-0.0480298474431037
-0.0468296036124229
-0.04526037722826
-0.0434433743357658
-0.0415020883083343
-0.0395396538078784
-0.0376242771744728
-0.0357874371111393
-0.034026987850666
-0.0323122851550579
-0.0305901393294334
-0.0287925451993942
-0.0268501155078411
-0.0247080065310001
-0.0223373584449291
-0.0197361018508672
-0.0169196687638759
-0.0139151001349091
-0.010765528306365
-0.0075339917093515
-0.0042976066470146
-0.0011348035186529
0.0018872823566198
0.0047218156978487
0.0073467819020152
0.0097623514011502
0.0119833871722221
0.0140325166285038
0.0159353017807006
0.0177176669239997
0.0194044839590787
0.0210184212774038
0.0225793942809104
0.0240996181964874
0.0255727022886276
0.0269701238721609
0.0282524786889553
0.0293833464384078
0.0303357131779193
0.0310951136052608
0.0316621512174606
0.0320499092340469
0.0322786420583725
0.0323739871382713
0.0323670767247676
0.0322922095656394
0.0321809835731983
0.0320572778582572
0.0319380350410938
0.0318329259753227
0.0317355617880821
0.0316149219870567
0.0314145423471927
0.031051218509674
0.0304080452769994
0.0293338689953088
0.0276603456586599
0.0252330638468265
0.0219456758350133
0.0177660677582025
0.0127498293295502
0.0070417867973446
0.0008654724806547
-0.0054988949559628
-0.0117436572909355
-0.0175683982670307
-0.0227203704416751
-0.0270284228026866
-0.0304122846573591
-0.0328672230243682
-0.0344402603805065
-0.0352120622992515
-0.0352876372635364
-0.0347888506948947
-0.0338435992598533
-0.0325759202241897
-0.0311008151620626
-0.0295221954584121
-0.0279302541166543
-0.026392426341772
-0.0249397866427898
-0.023565586656332
-0.0222423989325761
-0.0209395233541727
-0.019628319889307
-0.0182812735438346
-0.0168710816651582
-0.0153733659535646
-0.0137726068496704
-0.0120654571801424
-0.0102603686973452
-0.008375946432352
-0.0064355856738984
-0.0044605555012822
-0.0024680253118276
-0.0004702638834714
0.0015295660123229
0.0035351715050637
0.0055435230024158
0.0075339917093515
0.0094701461493968
0.0113099813461303
0.0130175221711397
0.014569635502994
0.0159552786499261
0.0171712450683116
0.0182215850800275
0.0191204976290464
0.0198917146772146
0.0205621644854545
0.0211544185876846
0.0216849949210882
0.0221696123480796
0.022622887045145
0.0230464488267898
0.0234212689101696
0.0237151402980089
0.0238975062966346
0.0239517632871866
0.0238794218748807
0.0236958842724561
0.02342364564538
0.0230874121189117
0.0227077770978212
0.0222889743745327
0.0218044351786375
0.0211852807551622
0.0203148648142814
0.0190371088683605
0.0171776451170444
0.0145655926316976
0.0110567100346088
0.0065666111186146
0.0011049760505557
-0.0052108885720372
-0.0121685825288295
-0.0194855909794569
-0.0268397666513919
-0.0339065566658973
-0.040396012365818
-0.0460790507495403
-0.0507991686463356
-0.0544724017381668
-0.0570767596364021
-0.058633554726839
-0.0591967403888702
-0.0588575452566146
-0.0577466376125812
-0.056022685021162
-0.0538526400923728
-0.0513906069099903
-0.0487638860940933
-0.0460702255368232
-0.0433779507875442
-0.0407224148511886
-0.0381040573120117
-0.0354931205511093
-0.0328401289880275
-0.0300883390009403
-0.0271811317652463
-0.0240640360862016
-0.0206934232264757
-0.0170553773641586
-0.0131802968680858
-0.0091420579701662
-0.0050416179001331
-0.0009818356484174
0.0029535554349422
0.0067090075463056
0.0102572776377201
0.0135941337794065
0.0167293734848499
0.0196779612451791
0.0224554445594549
0.0250768773257732
0.0275569185614585
0.0299127362668514
0.0321627147495746
0.034313004463911
0.03634724766016
0.0382355526089668
0.0399523340165615
0.041484922170639
0.04283107817173
0.0439941547811031
0.0449813343584537
0.0458063334226608
0.0464902818202972
0.0470545589923858
0.0475117824971675
0.0478641539812088
0.048111617565155
0.0482605174183845
0.0483172088861465
0.0482716932892799
0.0480941906571388
0.0477491021156311
0.0472101867198944
0.0464658215641975
0.0455147922039032
0.0443540066480636
0.0429556742310524
0.0412395372986793
0.0390594862401485
0.0362193323671817
0.0325132422149181
0.0277760773897171
0.0219297483563423
0.0150129459798336
0.0071818078868091
-0.0013180007226765
-0.010188634507358
-0.0191115252673625
-0.0277725700289011
-0.0358841195702552
-0.0432035252451896
-0.0495442971587181
-0.0547777824103832
-0.0588307455182075
-0.0616845749318599
-0.0633759498596191
-0.0639975890517234
-0.063696414232254
-0.0626603737473487
-0.061091624200344
-0.0591833032667636
-0.0571099370718002
-0.0550164729356765
-0.0529994294047355
-0.0510926656424999
-0.0492662824690341
-0.0474383197724819
-0.045495219528675
-0.043315090239048
-0.0407889001071453
-0.0378376469016075
-0.0344245433807373
-0.0305594839155673
-0.0262946560978889
-0.0217123180627822
-0.0169092807918787
-0.0119880847632884
-0.0070561803877353
-0.0022219251841306
0.0024164225906133
0.0067813154309988
0.0108211673796176
0.0145113607868552
0.0178530402481555
0.0208709836006164
0.0236100181937217
0.0261262040585279
0.0284726396203041
0.0306869186460971
0.0327870436012744
0.0347768105566501
0.0366546399891376
0.0384157076478004
0.0400455817580223
0.0415174886584281
0.0427998304367065
0.04386617988348
0.0447028651833534
0.0453140847384929
0.0457213446497917
0.0459588542580604
0.0460712425410747
0.046111699193716
0.0461336895823478
0.0461784526705741
0.0462682917714118
0.0464075468480587
0.0465836152434349
0.0467592924833297
0.0468541495501995
0.0467266030609607
0.0461713559925556
0.0449361987411975
0.0427555851638317
0.0393953099846839
0.0346965231001377
0.0286069251596927
0.0211966130882501
0.012659290805459
0.0032968949526548
-0.0065108290873467
-0.0163465086370706
-0.0257953777909278
-0.034478273242712
-0.0420834496617317
-0.0483979135751724
-0.0533210337162017
-0.0568537972867488
-0.0590772330760955
-0.0601286515593528
-0.0601786449551582
-0.0594153106212616
-0.0580359138548374
-0.0562375299632549
-0.0541997551918029
-0.0520639345049858
-0.0499209351837635
-0.0478095896542072
-0.0457186363637447
-0.0435923524200916
-0.0413490943610668
-0.0389123782515525
-0.0362350158393383
-0.0333039946854114
-0.030133344233036
-0.0267534218728542
-0.0232029631733894
-0.0195275153964757
-0.0157781690359115
-0.0120055424049496
-0.0082542654126882
-0.0045621581375598
-0.0009607896208763
0.0025252597406506
0.0058816382661461
0.0091088060289621
0.0122164143249392
0.0152055118232965
0.0180602502077817
0.0207570530474185
0.0232743769884109
0.0255948528647422
0.0277044437825679
0.0295935235917568
0.0312618687748909
0.0327211320400238
0.0339876264333725
0.0350725501775741
0.0359819456934928
0.0367254987359046
0.0373237133026123
0.0378077886998653
0.0382113195955753
0.03855612128973
0.0388425476849079
0.0390534028410911
0.0391658209264278
0.0391586013138294
0.0390143729746341
0.0387235730886459
0.0382869914174079
0.0377074591815471
0.0369673147797584
0.0359978266060352
0.0346571579575538
0.0327334702014923
0.029977461323142
0.0261553041636943
0.0211001262068748
0.0147436689585447
0.0071321781724691
-0.00156763009727
-0.0110799698159098
-0.0210502799600362
-0.0310838259756565
-0.0407839715480804
-0.0497886203229427
-0.0578012093901634
-0.064608410000801
-0.0700815021991729
-0.0741676092147827
-0.0768789052963256
-0.0782790407538414
-0.0784655064344406
-0.0775603652000427
-0.0757157281041145
-0.0731161385774612
-0.0699640214443206
-0.0664581358432769
-0.0627747178077697
-0.0590514875948429
-0.0553760565817356
-0.0517817661166191
-0.0482521653175354
-0.0447332561016082
-0.0411490239202976
-0.0374179854989051
-0.0334693118929863
-0.0292510576546192
-0.0247286893427371
-0.0198893509805202
-0.014757951721549
-0.0094042010605335
-0.0039288569241762
0.0015577916055917
0.0069543104618787
0.0121802240610122
0.017179861664772
0.0219202172011137
0.0263863801956176
0.0305750928819179
0.0344890803098678
0.0381354913115501
0.0415243245661258
0.044666614383459
0.0475784614682197
0.0502801164984703
0.0527802556753158
0.0550645776093006
0.0571037456393241
0.0588690191507339
0.0603421181440353
0.0615175664424896
0.0624009743332862
0.0630077570676803
0.0633627921342849
0.0634973347187042
0.0634437054395675
0.0632314905524253
0.0628848597407341
0.0624220967292785
0.0618603080511093
0.0612154565751552
0.0604911558330059
0.059671577066183
0.058728739619255
0.0576331168413162
0.056354884058237
0.0548515766859054
0.0530440248548984
0.0507927909493446
0.0478952452540397
0.0441127382218837
0.0392171926796436
0.0330397859215736
0.0255110003054142
0.0166877247393131
0.0067623574286699
-0.0039562229067087
-0.0150898229330778
-0.0262426938861608
-0.0370373167097568
-0.0471383184194564
-0.056273266673088
-0.0642460584640502
-0.0709349364042282
-0.0762796550989151
-0.0802697092294693
-0.0829370766878128
-0.0843506455421447
-0.0846110135316848
-0.083846166729927
-0.0822068899869918
-0.079858511686325
-0.0769727975130081
-0.0737242698669433
-0.070281371474266
-0.0667872875928878
-0.0633413344621658
-0.059988472610712
-0.0567195788025856
-0.0534845329821109
-0.0502116233110427
-0.0468238070607185
-0.043251410126686
-0.0394436605274677
-0.0353751331567764
-0.0310444794595241
-0.0264691729098558
-0.0216794721782207
-0.0167165882885456
-0.0116378813982009
-0.0065206363797187
-0.0014549735933542
0.0034717316739261
0.0081896008923649
0.0126542234793305
0.0168469436466693
0.0207706838846206
0.0244443584233522
0.027894178405404
0.0311428382992744
0.0342030972242355
0.0370780378580093
0.0397662818431854
0.0422693565487861
0.0445908606052398
0.0467245765030384
0.0486483238637447
0.0503320768475532
0.0517492704093456
0.0528849922120571
0.0537422858178615
0.0543433465063571
0.0547228083014488
0.0549185052514076
0.0549651347100734
0.0548886284232139
0.0547001287341117
0.0543946698307991
0.0539578236639499
0.0533758327364921
0.0526354014873504
0.0517046377062797
0.0505064837634563
0.0489022620022296
0.046695202589035
0.0436561182141304
0.039563775062561
0.0342479236423969
0.0276283286511898
0.019744399935007
0.0107667073607444
0.0009845606982707
-0.0092267915606498
-0.0194502230733633
-0.0292731598019599
-0.0383255593478679
-0.0463082194328308
-0.0530167706310749
-0.0583510547876358
-0.0623018145561218
-0.0649273321032524
-0.0663331374526023
-0.0666579976677894
-0.0660642236471176
-0.0647271871566772
-0.0628242641687393
-0.0605267658829689
-0.0579914823174476
-0.0553480461239814
-0.0526883453130722
-0.0500623770058155
-0.0474770367145538
-0.0449034683406353
-0.0422980040311813
-0.0396210588514804
-0.0368414781987667
-0.0339334234595298
-0.0308751165866851
-0.0276501812040805
-0.0242495499551296
-0.0206739641726017
-0.0169357489794492
-0.0130581920966506
-0.0090745091438293
-0.0050267353653907
-0.0009622848592698
0.0030724487733095
0.0070389118045568
0.0109043093398213
0.014629278331995
0.0181639045476913
0.0214598346501588
0.0244817323982715
0.0272088032215833
0.0296341776847839
0.0317665450274944
0.0336287952959537
0.035249974578619
0.0366558954119682
0.0378661789000034
0.0388967469334602
0.0397614948451519
0.0404746569693088
0.0410553738474845
0.0415250621736049
0.0418955907225608
0.0421622209250927
0.0423058234155178
0.0422974042594432
0.0421059876680374
0.0417103990912437
0.0411070585250854
0.0403080582618713
0.0393327325582504
0.0382012277841568
0.036931499838829
0.0355299636721611
0.0339699164032936
0.0321692526340484
0.0299836937338113
0.0272160898894071
0.0236402451992034
0.0190437175333499
0.0132788382470607
0.0063044466078281
-0.0017906576395034
-0.0107888523489236
-0.0203683543950319
-0.0301407016813755
-0.0396928749978542
-0.048632226884365
-0.0566287264227867
-0.063440054655075
-0.0689142346382141
-0.0729806870222091
-0.0756385177373886
-0.076946273446083
-0.0770158171653747
-0.0760053992271423
-0.0741063207387924
-0.0715236961841583
-0.0684565752744674
-0.0650830566883087
-0.0615502148866653
-0.0579675510525703
-0.0544055551290512
-0.0508965067565441
-0.0474351495504379
-0.043984405696392
-0.0404875501990318
-0.0368797518312931
-0.0330978743731975
-0.0290951076894998
-0.0248576235026121
-0.0204104352742433
-0.0158087369054555
-0.0111237037926912
-0.0064301709644496
-0.0017959102988243
0.0027275551110506
0.0071085775271058
0.0113311475142836
0.0153866000473499
0.0192684531211853
0.0229725949466228
0.0264976173639297
0.0298435539007186
0.0330130644142627
0.0360089652240276
0.0388229489326477
0.0414304211735725
0.0437987111508846
0.0458970516920089
0.0477037504315376
0.0492119267582893
0.0504302680492401
0.0513788312673568
0.0520851127803325
0.0525801293551921
0.0528924465179443
0.0530449002981185
0.0530553348362445
0.052938275039196
0.0527075491845607
0.0523743890225887
0.0519381761550903
0.0513812489807605
0.0506734438240528
0.0497801937162876
0.0486711375415325
0.0473282448947429
0.0457511246204376
0.0439584963023662
0.0419846624135971
0.0398717001080513
0.0376591458916664
0.0353676229715347
0.0329759381711483
0.0304054412990808
0.0275229401886463
0.0241569112986326
0.0201219245791435
0.0152538921684026
0.0094501823186874
0.0027014575898647
-0.004891313612461
-0.0131165217608213
-0.0216732360422611
-0.0302134081721305
-0.038388967514038
-0.045889426022768
-0.052467968314886
-0.0579557493329048
-0.0622631609439849
-0.0653685256838798
-0.0672995895147323
-0.0681225880980491
-0.0679454654455185
-0.0669190064072609
-0.065223142504692
-0.0630455911159515
-0.0605617761611938
-0.05791936814785
-0.0552290342748165
-0.0525586381554603
-0.0499326065182685
-0.0473416745662689
-0.0447569489479064
-0.0421403050422668
-0.0394527837634086
-0.0366596728563308
-0.0337283872067928
-0.0306294821202754
-0.0273496434092521
-0.023902304470539
-0.0203252360224723
-0.0166721530258655
-0.0130027532577514
-0.0093726739287376
-0.0058260364457964
-0.0023917886428534
0.0009150255937129
0.0040887165814638
0.0071287550963461
0.0100370543077588
0.0128157548606395
0.0154663678258657
0.0179915148764848
0.0203939173370599
0.0226686969399452
0.0247974619269371
0.0267526134848594
0.0285074096173048
0.0300417747348546
0.0313424132764339
0.0324037820100784
0.0332306362688541
0.0338382385671138
0.0342501029372215
0.0344946682453155
0.0346024520695209
0.0346046201884746
0.0345340855419635
0.0344284325838089
0.034324824810028
0.0342443473637104
0.0341810770332813
0.034104399383068
0.0339708440005779
0.0337394773960113
0.033381063491106
0.032876044511795
0.0322094932198524
0.031370535492897
0.0303501170128583
0.0291292667388916
0.0276622585952281
0.0258679259568452
0.0236384533345699
0.0208630505949258
0.0174532458186149
0.0133575312793254
0.0085698068141937
0.0031418073922395
-0.0028057545423507
-0.0090861711651086
-0.0154652437195181
-0.021685779094696
-0.0274937860667705
-0.032667264342308
-0.0370388627052307
-0.0405034869909286
-0.0430168807506561
-0.0445922240614891
-0.0452905818819999
-0.0452053062617778
-0.0444524548947811
-0.043169904500246
-0.0415129512548446
-0.0396423228085041
-0.0377084091305732
-0.0358323752880096
-0.0340901799499988
-0.0325069427490234
-0.0310618821531534
-0.0297030098736286
-0.0283672362565994
-0.0269946157932281
-0.0255331322550773
-0.0239411816000938
-0.02218759059906
-0.020245810970664
-0.0180957708507776
-0.0157428104430437
-0.013232241384685
-0.010639258660376
-0.0080453343689441
-0.0055203195661306
-0.0031141913495957
-0.0008545069722458
0.0012527771759778
0.0032189390622079
0.0050652539357542
0.006815668195486
0.0084908585995435
0.0101046478375792
0.0116639211773872
0.0131719252094626
0.0146289858967065
0.0160261914134025
0.0173419900238513
0.0185475423932075
0.0196122992783784
0.0205080620944499
0.0212167259305715
0.0217383839190006
0.022092942148447
0.0223147310316562
0.0224428679794073
0.0225122235715389
0.022549208253622
0.022569689899683
0.0225807689130306
0.0225889086723327
0.0226003862917423
0.0226095933467149
0.0225945636630058
0.0225262865424156
0.022377822548151
0.0221270639449358
0.0217589922249317
0.0212673302739858
0.0206479802727699
0.0198831036686897
0.0189234726130962
0.0176796037703752
0.0160286948084831
0.0138375796377658
0.0109983021393418
0.0074661895632743
0.0032800897024571
-0.001445984467864
-0.0065458673052489
-0.0118231605738401
-0.0170702766627073
-0.0220865756273269
-0.0266942270100116
-0.0307480562478303
-0.0341409556567668
-0.0368087738752365
-0.0387315154075622
-0.0399268493056297
-0.0404388085007667
-0.0403270907700061
-0.0396583937108516
-0.0385015420615673
-0.0369332358241081
-0.0350495390594005
-0.0329642444849014
-0.0307902675122022
-0.0286184437572956
-0.0265052989125251
-0.024471528828144
-0.0225081853568553
-0.020587271079421
-0.018672727048397
-0.0167290922254323
-0.0147273130714893
-0.0126465279608964
-0.0104744955897331
-0.0082072801887989
-0.0058432053774595
-0.0033791903406381
-0.000820243731141
0.0018090978264808
0.0044655688107013
0.0070982072502374
0.0096586002036929
0.0121045876294374
0.0144026707857847
0.0165320932865142
0.0184892136603593
0.0202914029359817
0.0219757631421089
0.0235907137393951
0.0251837261021137
0.0267901252955198
0.0284270383417606
0.030086038634181
0.0317223370075225
0.0332561247050762
0.0345905758440494
0.0356321558356285
0.0363062918186187
0.0365695469081401
0.0364156812429428
0.0358732044696807
0.0349964052438735
0.0338543727993965
0.0325204990804195
0.0310630872845649
0.0295400992035865
0.0280016381293535
0.0264973454177379
0.0250755045562982
0.0237705167382955
0.0225995257496833
0.0215837992727756
0.0207855403423309
0.0203363262116909
0.0204314738512039
0.021277617663145
0.0230061691254377
0.0255925245583057
0.0288233458995819
0.0323215089738369
0.0356097519397735
0.0381898880004882
0.0396202020347118
0.0395781397819519
0.0378934331238269
0.0345458537340164
0.0296442955732345
0.0234036780893802
0.0161191225051879
0.0081334207206964
-0.0001990552991628
-0.008544972166419
-0.0166166070848703
-0.0241874456405639
-0.0311003886163234
-0.0372714921832084
-0.0426893532276153
-0.0474073179066181
-0.0515253208577632
-0.0551633723080158
-0.0584401190280914
-0.0614635162055492
-0.0643216297030448
-0.0670671015977859
-0.0697030499577522
-0.0721798464655876
-0.0744068995118141
-0.0762730985879898
-0.0776637718081474
-0.0784704089164733
-0.0786014422774314
-0.077996551990509
-0.0766334906220436
-0.0745241940021514
-0.0717052444815635
-0.0682268217206001
-0.0641504153609275
-0.0595578849315643
-0.0545561090111732
-0.0492665842175483
-0.0438081696629524
-0.0382842645049095
-0.0327771380543708
-0.0273465365171432
-0.0220317300409078
-0.0168565548956394
-0.0118352733552455
-0.0069761462509632
-0.0022809095680713
0.0022573098540306
0.006656426936388
0.0109500885009765
0.0151845999062061
0.0193974263966083
0.0235939044505357
0.0277435276657342
0.0317915305495262
0.0356731377542018
0.03932586312294
0.0426990129053592
0.0457595884799957
0.0484945103526115
0.0509088709950447
0.0530203506350517
0.0548523180186748
0.0564233884215354
0.057729847729206
0.0587281584739685
0.0593221709132194
0.0593570806086063
0.0586358159780502
0.0569634549319744
0.0541979856789112
0.0502861887216568
0.0452807620167732
0.0393409207463264
0.0327172614634037
0.0257221888750791
0.0186922550201416
0.0119507033377885
0.0057766251266002
0.0003844946622848
-0.0040836855769157
-0.0075528398156166
-0.0100060850381851
-0.0114829577505588
-0.0120773389935493
-0.0119269229471683
-0.0111946761608123
-0.0100470334291458
-0.0086378529667854
-0.0071004442870616
-0.005541868507862
-0.0040399767458438
-0.0026459880173206
-0.0013867169618606
-0.0002621635794639
0.0007562339305877
0.0017212852835655
0.002699576318264
0.0037555508315563
0.0049340799450874
0.0062503311783075
0.0076916329562664
0.0092273410409688
0.0108200088143348
0.0124350376427173
0.0140468347817659
0.015638617798686
0.0171996317803859
0.0187249518930912
0.0202149096876382
0.0216702073812484
0.0230857972055673
0.0244501270353794
0.0257514808326959
0.0269808676093816
0.0281229801476001
0.0291490070521831
0.0300238654017448
0.0307183768600225
0.0312160141766071
0.0315151773393154
0.0316310450434684
0.0315936878323555
0.0314383544027805
0.0311956964433193
0.0308892391622066
0.0305359251797199
0.0301452167332172
0.0297200586646795
0.0292608700692653
0.0287639107555151
0.0282125510275363
0.027575422078371
0.0268175341188907
0.0259126126766204
0.024847138673067
0.0236190930008888
0.0222361609339714
0.020713422447443
0.0190659761428833
0.0172895714640617
0.0153318922966718
0.0130724161863327
0.0103268064558506
0.0068799015134572
0.0025394968688488
-0.0028164312243461
-0.009220128878951
-0.0166099555790424
-0.024829477071762
-0.0336360447108745
-0.0427220463752746
-0.0517446026206016
-0.0603576824069023
-0.0682430863380432
-0.0751378089189529
-0.0808502435684204
-0.0852626040577888
-0.0883278846740722
-0.090064987540245
-0.090546578168869
-0.0898817330598831
-0.0882081910967826
-0.0856966227293014
-0.0825486853718757
-0.0789790675044059
-0.0751900523900985
-0.0713485330343246
-0.0675704404711723
-0.0639135241508483
-0.0603788308799266
-0.0569218508899211
-0.0534707382321357
-0.0499452576041221
-0.0462712198495864
-0.0423899814486503
-0.0382630452513694
-0.0338705293834209
-0.0292106475681066
-0.0243054665625095
-0.0192021373659372
-0.0139636844396591
-0.0086578782647848
-0.0033509340137243
0.0018957294523715
0.0070277675986289
0.011997316032648
0.0167601518332958
0.0212742760777473
0.0254995916038751
0.0293983817100524
0.0329388976097106
0.0361032523214817
0.0388961136341095
0.0413435511291027
0.0434790663421154
0.0453310087323188
0.0469209067523479
0.0482662916183471
0.0493838563561439
0.050294429063797
0.0510247275233268
0.0516019873321056
0.0520489066839218
0.0523852482438087
0.0526312664151191
0.0528059005737304
0.0529212057590484
0.052982110530138
0.0529945231974124
0.0529683604836463
0.0529066547751426
0.0527958944439888
0.0526086278259754
0.0523070320487022
0.0518384166061878
0.0511259287595748
0.0500555299222469
0.048464648425579
0.0461490526795387
0.0428928844630718
0.0385098531842231
0.0328824482858181
0.0259899981319904
0.0179243460297584
0.0088925426825881
-0.0008042128756642
-0.0108147067949175
-0.0207818299531936
-0.0303713604807853
-0.0392906293272972
-0.0473022535443306
-0.0542302690446376
-0.0599563419818878
-0.0644106641411781
-0.0675660222768783
-0.0694355145096778
-0.0700702890753746
-0.06956048309803
-0.0680393800139427
-0.0656782984733581
-0.0626653209328651
-0.0591851100325584
-0.0554149597883224
-0.0515235774219036
-0.0476561561226844
-0.0439127385616302
-0.0403362624347209
-0.0369132719933986
-0.0335808992385864
-0.0302407257258892
-0.0267799831926822
-0.0230937097221612
-0.0191053785383701
-0.0147837847471237
-0.0101472903043031
-0.0052513126283884
-0.0001698639243841
0.0050114355981349
0.0101899467408657
0.0152467023581266
0.0200618542730808
0.0245351884514093
0.028600500896573
0.0322281420230865
0.0354172028601169
0.0381862558424472
0.0405681692063808
0.0426058880984783
0.0443461500108242
0.0458331108093261
0.047105349600315
0.0481958575546741
0.0491317994892597
0.0499301478266716
0.0505898371338844
0.0510913878679275
0.0514090470969677
0.0515262149274349
0.0514445230364799
0.0511823594570159
0.0507652573287487
0.0502171963453292
0.0495577827095985
0.0488014854490757
0.0479558892548084
0.0470227412879467
0.0460038594901561
0.0449070371687412
0.0437458828091621
0.0425312370061874
0.0412573888897895
0.0398878082633018
0.0383394360542297
0.0364694893360137
0.0340786725282669
0.0309359598904848
0.0268180631101131
0.0215548276901245
0.0150686353445053
0.007398534566164
-0.0012941099703311
-0.010739516466856
-0.0205895155668258
-0.0304557234048843
-0.0399487987160682
-0.0487181134521961
-0.0564871281385421
-0.0630707740783691
-0.0683728381991386
-0.0723740607500076
-0.0751177072525024
-0.0766940861940383
-0.0772241428494453
-0.0768468379974365
-0.0757152587175369
-0.0739939138293266
-0.0718472898006439
-0.0694232881069183
-0.0668402761220932
-0.0641785860061645
-0.0614740997552871
-0.0587201416492462
-0.0558839663863182
-0.0529278963804245
-0.0498200133442878
-0.0465346872806549
-0.0430529378354549
-0.0393662601709365
-0.0354805886745452
-0.0314172208309173
-0.027210097759962
-0.0229029189795255
-0.0185471028089523
-0.0141959674656391
-0.0098962038755416
-0.0056800176389515
-0.0015589273534715
0.0024709035642445
0.0064096082933247
0.0102394549176096
0.0139267835766077
0.0174325406551361
0.0207208171486854
0.0237626880407333
0.0265396796166896
0.0290471874177455
0.0312932394444942
0.033293679356575
0.0350679121911525
0.036634299904108
0.0380063727498054
0.0391966253519058
0.0402252823114395
0.0411181040108203
0.0418893061578273
0.0425292812287807
0.043009728193283
0.0432974398136138
0.0433676578104496
0.0432125590741634
0.0428415723145008
0.0422766171395778
0.0415461957454681
0.0406773947179317
0.039682425558567
0.0385377034544944
0.037161037325859
0.035404659807682
0.0330781154334545
0.029986809939146
0.0259639509022235
0.0208987072110176
0.0147664472460746
0.0076486319303512
-0.0002677254378795
-0.0087086074054241
-0.0173431597650051
-0.0258208513259887
-0.0338097065687179
-0.0410249084234237
-0.0472434125840663
-0.0523118823766708
-0.0561511777341365
-0.0587491989135742
-0.0601420253515243
-0.0604018196463584
-0.0596407353878021
-0.0580151975154876
-0.0557172484695911
-0.0529541671276092
-0.0499217212200164
-0.0467809401452541
-0.0436462759971618
-0.040582962334156
-0.0376091971993446
-0.0347021743655204
-0.031808964908123
-0.0288624819368124
-0.0257992967963218
-0.0225707441568374
-0.0191423594951629
-0.01549409981817
-0.0116330832242965
-0.0076051279902458
-0.0034871133975684
0.000634126830846
0.004680398851633
0.0085914693772792
0.0123265478760004
0.0158629566431045
0.0191943552345037
0.0223255567252635
0.0252647008746862
0.0280187800526618
0.0305934436619281
0.0329943187534809
0.0352292694151401
0.0373061224818229
0.0392224490642547
0.0409587323665618
0.0424836426973342
0.0437659434974193
0.044784776866436
0.0455339401960372
0.0460206344723701
0.0462612435221672
0.0462761670351028
0.0460874736309051
0.0457202792167663
0.0452030859887599
0.0445648580789566
0.0438325256109237
0.0430314093828201
0.0421821102499961
0.041290633380413
0.0403424724936485
0.0393071919679641
0.0381494276225566
0.036840870976448
0.0353657081723213
0.0337131954729557
0.0318595319986343
0.0297491531819105
0.0272871125489473
0.0243464298546314
0.0207890532910823
0.0164988152682781
0.0114184878766536
0.0055751278996467
-0.0009213425219058
-0.0079032629728317
-0.0151703916490077
-0.0225030407309532
-0.0296719912439584
-0.0364523082971572
-0.0426408126950264
-0.048071764409542
-0.0526240542531013
-0.0562214292585849
-0.0588309839367866
-0.0604610219597816
-0.0611588060855865
-0.0610088855028152
-0.0601263493299484
-0.0586401894688606
-0.0566797628998756
-0.0543752759695053
-0.0518577396869659
-0.0492469444870948
-0.0466364882886409
-0.0440860539674758
-0.0416226983070373
-0.0392450094223022
-0.0369274467229843
-0.0346299931406974
-0.0323095768690109
-0.0299266017973423
-0.0274496525526046
-0.024859445169568
-0.0221449211239814
-0.0192903261631727
-0.0162660479545593
-0.0130311883985996
-0.0095407236367464
-0.0057552279904484
-0.0016570976004004
0.0027295295149087
0.0073215467855334
0.0119742751121521
0.0165004134178161
0.020699355751276
0.0243840906769037
0.0274021364748477
0.0296497605741024
0.031079962849617
0.0317064076662063
0.0316043123602867
0.0309001319110393
0.0297451503574848
0.0282890144735574
0.0266668945550918
0.024996081367135
0.0233748704195022
0.0218806117773056
0.0205690376460552
0.019476855173707
0.0186253078281879
0.0180243514478206
0.0176796671003103
0.0175994094461202
0.0177931375801563
0.0182666257023811
0.0190188344568014
0.0200306996703147
0.0212448053061962
0.022557083517313
0.0238292925059795
0.0249116607010364
0.0256652534008026
0.0259757470339536
0.0257519148290157
0.024913664907217
0.0233844853937625
0.0210969727486372
0.0180072151124477
0.0141085684299469
0.009440828114748
0.0040987022221088
-0.001762231811881
-0.0079377125948667
-0.0142070017755031
-0.0203604996204376
-0.0262103080749511
-0.031596478074789
-0.0363960489630699
-0.0405276045203208
-0.0439472571015358
-0.0466416403651237
-0.0486212223768234
-0.0499130301177501
-0.0505566596984863
-0.0506061986088752
-0.050131008028984
-0.0492079555988311
-0.0479088649153709
