bvp
0.0336112827062606
0.0344677381217479
0.0351894944906234
0.0357385911047458
0.0360533222556114
0.0360262095928192
0.0354906246066093
0.0342303849756717
0.0320103578269481
0.028622506186366
0.0239410866051912
0.0179682150483131
0.010852750390768
0.0028813164681196
-0.0055567873641848
-0.014024238102138
-0.0220908094197511
-0.029375659301877
-0.0355740524828434
-0.0404671430587768
-0.0439224652945995
-0.04589569196105
-0.0464345030486583
-0.0456783175468444
-0.0438448786735534
-0.0412028506398201
-0.0380411744117736
-0.0346420779824256
-0.0312541350722312
-0.028064914047718
-0.025186862796545
-0.022664152085781
-0.0204857140779495
-0.0185932908207178
-0.0168903078883886
-0.0152568668127059
-0.013569239526987
-0.0117184286937117
-0.0096224704757332
-0.0072317318990826
-0.004531592130661
-0.0015459135174751
0.0016642998671159
0.0050141746178269
0.008415256626904
0.0117907710373401
0.0150768104940652
0.0182119570672512
0.0211318377405405
0.0237767286598682
0.0261030681431293
0.028091087937355
0.0297463536262512
0.0310958176851272
0.0321804545819759
0.0330447629094123
0.0337279699742794
0.0342625267803669
0.0346759669482708
0.0349909774959087
0.0352262035012245
0.035400029271841
0.0355293303728103
0.0356151014566421
0.0356181114912033
0.0354318507015705
0.0348664931952953
0.0336612686514854
0.0315260142087936
0.0281980447471141
0.0234993156045675
0.017378881573677
0.0099322907626628
0.0013994611799716
-0.0078580863773822
-0.0173991955816745
-0.0267521794885396
-0.0354587659239769
-0.0431169420480728
-0.0494237691164016
-0.0541995987296104
-0.0573857352137565
-0.0590300038456916
-0.0592681281268596
-0.0582981780171394
-0.0563542321324348
-0.0536872521042823
-0.0505486279726028
-0.0471701771020889
-0.0437444113194942
-0.0404119119048118
-0.037255335599184
-0.0342965126037597
-0.031500332057476
-0.0287935324013233
-0.0260936748236417
-0.0233295112848281
-0.0204466208815574
-0.0174079313874244
-0.0141944456845521
-0.0108065120875835
-0.0072643845342099
-0.0036060512065887
0.0001173878554254
0.0038476744666695
0.0075256801210343
0.0110964691266417
0.0145130548626184
0.0177424736320972
0.020773135125637
0.023611593991518
0.0262661203742027
0.0287327989935874
0.0309943817555904
0.0330276191234588
0.0348126254975795
0.0363392271101474
0.0376079827547073
0.0386295840144157
0.039424829185009
0.0400219969451427
0.0404516272246837
0.0407415926456451
0.0409142188727855
0.0409881770610809
0.0409849099814891
0.0409261547029018
0.0408162251114845
0.0406301841139793
0.0403237976133823
0.0398539043962955
0.0391930565237998
0.0383332669734954
0.0372805446386337
0.0360369980335235
0.034568652510643
0.0327748209238052
0.0304807145148515
0.0274597164243459
0.023477803915739
0.0183501541614532
0.0119957476854324
0.0044674649834632
-0.0040526017546653
-0.0132783986628055
-0.0228502359241247
-0.0323672033846378
-0.0414246916770935
-0.049655046314001
-0.0567595437169075
-0.0625241845846176
-0.0668245628476142
-0.0696260780096054
-0.0709789246320724
-0.0710077062249183
-0.0698973685503006
-0.0678719580173492
-0.0651658624410629
-0.0620013922452926
-0.0585811100900173
-0.0550824366509914
-0.0516451261937618
-0.048359528183937
-0.0452617704868316
-0.0423358790576458
-0.0395234934985637
-0.0367387719452381
-0.0338839590549469
-0.0308664441108703
-0.027617909014225
-0.0241069346666336
-0.0203389041125774
-0.0163459368050098
-0.0121732931584119
-0.0078760897740721
-0.003527742344886
0.0007808681693859
0.0049585234373807
0.0089310845360159
0.0126483999192714
0.0160835813730955
0.0192285440862178
0.0220876336097717
0.0246730893850326
0.02700318954885
0.0291003230959177
0.0309883244335651
0.0326904356479644
0.0342298038303852
0.0356316566467285
0.0369188450276851
0.038100603967905
0.0391686595976352
0.0401041507720947
0.0408857651054859
0.0414933934807777
0.041908822953701
0.0421196520328521
0.0421266108751297
0.0419456511735916
0.0416017919778823
0.0411205813288688
0.0405234917998313
0.0398273132741451
0.0390462800860405
0.0381981134414672
0.0373047068715095
0.0363793224096298
0.0354129150509834
0.0343705266714096
0.0331885442137718
0.0317645668983459
0.0299480855464935
0.0275464542210102
0.0243513211607933
0.0201811119914054
0.0149285905063152
0.0085939709097146
0.0012924037873744
-0.0067565869539976
-0.0152475368231534
-0.0238139294087886
-0.0320691056549549
-0.0396621748805046
-0.0463202521204948
-0.0518569499254226
-0.0561611950397491
-0.059188786894083
-0.0609612315893173
-0.0615627989172935
-0.0611300617456436
-0.0598363578319549
-0.0578765012323856
-0.0554549694061279
-0.0527727827429771
-0.0500065386295318
-0.0472861193120479
-0.0446840524673461
-0.0422218441963195
-0.0398860238492488
-0.0376399308443069
-0.0354285053908824
-0.0331823751330375
-0.0308253429830074
-0.028287261724472
-0.0255191717296838
-0.0225025303661823
-0.0192494634538888
-0.0157978292554616
-0.0122046517208218
-0.008538213558495
-0.0048693995922803
-0.0012618084438145
0.0022400082089006
0.0056133763864636
0.0088438298553228
0.0119108324870467
0.0147879961878061
0.017451599240303
0.0198855400085449
0.022082220762968
0.024045456200838
0.0257921144366264
0.0273458249866962
0.0287286788225173
0.029959674924612
0.0310569293797016
0.0320386886596679
0.0329268723726272
0.0337506458163261
0.0345375314354896
0.0352950170636177
0.0360017716884613
0.0366172902286052
0.0370999574661254
0.0374184288084507
0.0375537127256393
0.0374990478157997
0.0372593067586422
0.0368471443653106
0.0362776219844818
0.0355645604431629
0.0347113944590091
0.0336880423128604
0.0324070639908313
0.0307216085493564
0.0284460522234439
0.0253858529031276
0.0213741399347782
0.0163149796426296
0.0102203404530882
0.0032258173450827
-0.0044207824394106
-0.0123920794576406
-0.0203236192464828
-0.0278569236397743
-0.0346729829907417
-0.0405139699578285
-0.0451992899179458
-0.0486332140862941
-0.0507982186973094
-0.0517404899001121
-0.0515639297664165
-0.0504331700503826
-0.0485646873712539
-0.0462001040577888
-0.0435753539204597
-0.0408944562077522
-0.0383108705282211
-0.0359184145927429
-0.0337493792176246
-0.0317776538431644
-0.0299301352351903
-0.0281071364879608
-0.02620480209589
-0.0241337679326534
-0.0218284092843532
-0.0192435570061206
-0.0163550339639186
-0.0131751103326678
-0.0097609097138047
-0.0062005501240491
-0.0025921687483787
0.0009710397571325
0.0044115567579865
0.0076754912734031
0.0107351243495941
0.0135864056646823
0.0162424594163894
0.0187234915792942
0.0210483409464359
0.0232313852757215
0.0252838842570781
0.027219258248806
0.0290528684854507
0.0307880342006683
0.0324047431349754
0.0338671207427978
0.0351386293768882
0.0361921973526477
0.0370178408920764
0.0376272648572921
0.0380485691130161
0.0383143611252307
0.0384534038603305
0.0384892560541629
0.0384409911930561
0.0383202917873859
0.0381291061639785
0.0378645360469818
0.0375242456793785
0.0371029824018478
0.0365859307348728
0.0359502807259559
0.0351742431521415
0.0342443063855171
0.0331572815775871
0.0319208055734634
0.0305523760616779
0.0290702953934669
0.0274716950953006
0.025703340768814
0.0236418955028057
0.0211031902581453
0.0178843084722757
0.0138183217495679
0.0088134165853261
0.0028673894703388
-0.0039272140711545
-0.0113804079592227
-0.0192178711295127
-0.0271133184432983
-0.0347273051738739
-0.041744165122509
-0.0479030422866344
-0.0530163124203681
-0.056973785161972
-0.0597391836345195
-0.0613432005047798
-0.0618720799684524
-0.061452742666006
-0.0602377615869045
-0.0583969131112098
-0.0561166703701019
-0.053592599928379
-0.0510076582431793
-0.0485080629587173
-0.0461859181523323
-0.0440730266273021
-0.042147759348154
-0.0403493866324424
-0.038591593503952
-0.0367740988731384
-0.034797303378582
-0.0325783565640449
-0.0300619900226593
-0.027223601937294
-0.0240657739341259
-0.0206166077405214
-0.0169360749423503
-0.0131169445812702
-0.0092683620750904
-0.0054933736100792
-0.0018746834248304
0.0015296395868062
0.0046846363693475
0.0075763138011097
0.0102118151262402
0.0126173663884401
0.0148286381736397
0.0168790556490421
0.0187936648726463
0.0205915421247482
0.0222955513745546
0.023934107273817
0.025525189936161
0.0270616505295038
0.0285155549645423
0.0298537202179431
0.0310497060418128
0.0320877656340599
0.0329634174704551
0.0336853675544261
0.0342742651700973
0.0347532704472541
0.0351386293768882
0.0354389958083629
0.0356588549911975
0.0358016863465309
0.0358737558126449
0.0358801707625389
0.0358114466071128
0.0356389954686164
0.0353272780776023
0.03484957665205
0.0341936498880386
0.0333523601293563
0.0323024801909923
0.0309781376272439
0.0292534437030553
0.0269540064036846
0.0238967146724462
0.0199358947575092
0.015001100488007
0.0091249737888574
0.0024562673643231
-0.0047549889422953
-0.012198818847537
-0.0195477325469255
-0.0264863744378089
-0.0327370464801788
-0.0380839519202709
-0.0423874333500862
-0.045582890510559
-0.0476703941822052
-0.0487041324377059
-0.0487841330468654
-0.0480488277971744
-0.0466652028262615
-0.0448126085102558
-0.0426619127392768
-0.0403580404818058
-0.0380153581500053
-0.0357238985598087
-0.0335509181022644
-0.031533196568489
-0.0296707712113857
-0.027928052470088
-0.0262400470674037
-0.0245228242129087
-0.0226886831223964
-0.0206624418497085
-0.0183928068727254
-0.0158561207354068
-0.0130546577274799
-0.0100132972002029
-0.0067743733525276
-0.0033887214958667
8.912943303585052e-05
0.0035943388938903
0.007047077640891
0.0103618931025266
0.0134625406935811
0.0162916239351034
0.0188139639794826
0.0210184957832098
0.0229204297065734
0.0245561394840478
0.0259695649147033
0.0272013936191797
0.028284128755331
0.0292407441884279
0.0300911627709865
0.0308623556047678
0.031586717814207
0.0322868525981903
0.032962616533041
0.0335903093218803
0.0341326594352722
0.034552976489067
0.0348240546882152
0.0349312052130699
0.0348742380738258
0.0346678495407104
0.0343380682170391
0.0339144878089427
0.0334218218922615
0.0328775346279144
0.0322977527976036
0.0317043513059616
0.0311200749129056
0.0305500235408544
0.0299652516841888
0.0292955841869115
0.0284244064241647
0.0271865464746952
0.0253781154751777
0.0227822139859199
0.0192100033164024
0.0145480455830693
0.0087936706840991
0.0020673833787441
-0.0053967246785759
-0.0132769430056214
-0.0211987476795911
-0.0287755765020847
-0.0356570035219192
-0.0415751747786998
-0.0463694371283054
-0.0499815568327903
-0.0524345710873603
-0.0538099780678749
-0.0542295575141906
-0.0538432151079177
-0.0528186857700347
-0.0513298325240612
-0.0495458915829658
-0.0476208701729774
-0.0456807203590869
-0.0438123345375061
-0.0420571826398372
-0.0404092743992805
-0.0388253703713417
-0.037247147411108
-0.0356166027486324
-0.0338780805468559
-0.0319789610803127
-0.0298744589090347
-0.0275323931127786
-0.0249358341097831
-0.022084604948759
-0.018996175378561
-0.0157048888504505
-0.0122596574947237
-0.0087201632559299
-0.0051494240760803
-0.0016048960387706
0.0018669310957193
0.0052287699654698
0.0084437597543001
0.0114690288901329
0.0142603274434804
0.0167835857719182
0.019023161381483
0.0209829974919557
0.0226837452501058
0.0241582859307527
0.0254466962069273
0.0265922788530588
0.0276382099837064
0.0286219045519828
0.029567776247859
0.0304850973188877
0.0313749983906745
0.0322355180978775
0.0330542512238025
0.0338014438748359
0.0344370156526565
0.0349235981702804
0.0352343618869781
0.0353562161326408
0.0352920889854431
0.0350570939481258
0.0346590466797351
0.0340651124715805
0.0331735759973526
0.0318117067217826
0.0297655910253524
0.0268335975706577
0.0228846259415149
0.0178954228758811
0.0119557715952396
0.0052561028860509
-0.0019298628903925
-0.0092707388103008
-0.0164115764200687
-0.0230109188705682
-0.0287761352956295
-0.0334885939955711
-0.0370142497122287
-0.0393050909042358
-0.0403942540287971
-0.0403848625719547
-0.039436861872673
-0.0377506986260414
-0.0355430096387863
-0.0330250151455402
-0.0303958915174007
-0.0278388746082782
-0.0255048424005508
-0.0234910268336534
-0.0218290090560913
-0.020484309643507
-0.0193663947284221
-0.0183478333055973
-0.0172866489738225
-0.0160464961081743
-0.0145142693072557
-0.0126171875745058
-0.0103341434150934
-0.0076906010508537
-0.0047399830073118
-0.0015504322946071
0.0017942748963832
0.0051942579448223
0.0085461400449275
0.0117598986253142
0.0147676616907119
0.0175262466073036
0.0200182404369115
0.0222493726760149
0.0242413189262151
0.0260233655571937
0.0276258364319801
0.0290756113827228
0.0303920581936836
0.0315878428518772
0.0326790958642959
0.03369015827775
0.0346402376890182
0.0355289727449417
0.0363373979926109
0.0370357260107994
0.0375884138047695
0.0379594415426254
0.0381219387054443
0.0380675233900547
0.0378072671592235
0.0373654067516326
0.0367688760161399
0.0360284931957721
0.035110555589199
0.0339118689298629
0.0322562418878078
0.0299129839986562
0.0266300067305564
0.0221841447055339
0.0164404418319463
0.0093967346474528
0.0012015756219625
-0.0078547727316617
-0.0173763297498226
-0.0269153248518705
-0.0360285341739654
-0.0443262793123722
-0.051505621522665
-0.0573617480695247
-0.0617844238877296
-0.064748428761959
-0.0663006454706192
-0.0665500164031982
-0.0656622797250747
-0.0638515427708625
-0.0613624937832355
-0.0584431551396846
-0.0553168952465057
-0.0521632172167301
-0.0491060055792331
-0.0462080016732215
-0.043474081903696
-0.04086185246706
-0.0382961444556713
-0.0356840416789054
-0.0329275578260421
-0.0299343839287757
-0.0266287252306938
-0.0229646246880292
-0.0189398080110549
-0.0146006513386964
-0.0100343227386474
-0.0053525436669588
-0.0006732363253831
0.0038947612047195
0.008263885974884
0.0123745193704962
0.0161923021078109
0.0197029151022434
0.0229093618690967
0.0258282050490379
0.0284837614744901
0.0309038162231445
0.0331210531294345
0.0351742468774318
0.0370986312627792
0.0389128401875495
0.040615513920784
0.0421904809772968
0.0436159446835517
0.0448749214410781
0.045960821211338
0.0468762218952178
0.0476295351982116
0.0482325553894043
0.0486977398395538
0.0490344688296318
0.0492475256323814
0.0493421666324138
0.0493318736553192
0.0492351688444614
0.0490584634244442
0.0487783700227737
0.0483261980116367
0.047571375966072
0.0463167168200016
0.0443149469792842
0.0413021892309188
0.0370474383234977
0.0314098261296749
0.0243778675794601
0.0160795375704765
0.0067743528634309
-0.0031701009720563
-0.013318452052772
-0.0232141390442848
-0.0324284732341766
-0.0406089425086975
-0.0475087910890579
-0.0529906004667282
-0.0570159666240215
-0.0596303716301918
-0.0609458610415458
-0.0611239783465862
-0.0603615418076515
-0.0588773414492607
-0.0568938925862312
-0.0546164438128471
-0.052216537296772
-0.0498206838965415
-0.0475017018616199
-0.0452742166817188
-0.0431013703346252
-0.0409147404134273
-0.0386352986097335
-0.0361869409680366
-0.0335047096014022
-0.0305401235818862
-0.0272653568536043
-0.0236762426793575
-0.0197929702699184
-0.0156581327319145
-0.0113316280767321
-0.0068846698850393
-0.0023959474638104
0.0020527159795165
0.0063863727264106
0.0105494167655706
0.0145070254802703
0.0182316191494464
0.0216910950839519
0.024852305650711
0.0276921205222606
0.0302025862038135
0.0323903076350688
0.034277468919754
0.0359027795493602
0.0373154282569885
0.0385631136596202
0.0396815724670887
0.0406904481351375
0.0415964610874652
0.0424026884138584
0.0431169867515563
0.043748140335083
0.044290691614151
0.0447168163955211
0.0449846759438514
0.0450533516705036
0.0448944978415966
0.0444983728229999
0.0438726544380188
0.0430323258042335
0.0419784411787986
0.0406670831143856
0.0389813333749771
0.0367255806922912
0.0336525328457355
0.0295182224363088
0.024145133793354
0.0174671448767185
0.0095466896891593
0.0005717780441045
-0.0091604571789503
-0.0192701909691095
-0.0293306093662977
-0.0389120206236839
-0.0476274974644184
-0.0551695600152015
-0.0613296553492546
-0.0659999996423721
-0.0691631436347961
-0.0708770751953125
-0.0712621882557869
-0.0704865604639053
-0.0687475353479385
-0.0662587955594062
-0.063244491815567
-0.0599292144179344
-0.0565183609724044
-0.0531738325953483
-0.0499956011772155
-0.0470174849033355
-0.0442138388752937
-0.0415101237595081
-0.0387995243072509
-0.0359673760831356
-0.0329144448041915
-0.0295714419335126
-0.0259056389331817
-0.0219195671379566
-0.0176414437592029
-0.0131186908110976
-0.00842219684273
-0.0036472610663622
0.0010989485308527
0.0057151662185788
0.0101199988275766
0.014258824288845
0.0181041229516267
0.0216519944369792
0.0249166991561651
0.0279236901551485
0.0307012647390365
0.0332727506756782
0.0356533490121364
0.0378537029027938
0.0398864671587944
0.0417655780911445
0.0434934981167316
0.0450504124164581
0.0464005284011364
0.0475104413926601
0.0483624227344989
0.048954002559185
0.0492918975651264
0.0493888556957244
0.0492626540362834
0.0489351041615009
0.0484304316341877
0.0477720536291599
0.0469786897301673
0.0460642278194427
0.0450432524085044
0.0439321435987949
0.0427391752600669
0.0414572097361087
0.0400678440928459
0.0385449007153511
0.0368475839495658
0.0349042266607284
0.0325928032398223
0.0297340080142021
0.0261104702949523
0.0215081050992012
0.0157665684819221
0.0088235586881637
0.0007411539554595
-0.0082851238548755
-0.017934089526534
-0.0277938041836023
-0.0374223217368125
-0.0464098528027534
-0.0544191226363182
-0.0612031370401382
-0.0666110068559646
-0.0705846846103668
-0.0731467455625534
-0.0743838772177696
-0.0744307488203048
-0.0734568089246749
-0.0716551765799522
-0.0692304670810699
-0.0663837194442749
-0.0632945671677589
-0.0601030588150024
-0.0569009929895401
-0.0537402555346488
-0.050646036863327
-0.0476211570203304
-0.0446446575224399
-0.0416736826300621
-0.0386521816253662
-0.0355225577950477
-0.0322347953915596
-0.0287524498999118
-0.0250590071082115
-0.0211654044687747
-0.0171119011938571
-0.0129582863301038
-0.0087670236825943
-0.0045910337939858
-0.0004750438965857
0.0035324299242347
0.0073723550885915
0.0109834587201476
0.0143171902745962
0.0173492990434169
0.0200841967016458
0.0225482769310474
0.0247773043811321
0.0268096253275871
0.0286839921027421
0.030434139072895
0.0320828147232532
0.0336405858397483
0.0351090021431446
0.0364880859851837
0.0377805493772029
0.0389827489852905
0.0400744713842868
0.0410217717289924
0.0417863801121711
0.0423341691493988
0.0426419638097286
0.0427019000053405
0.042521309107542
0.0421170555055141
0.0415084771811962
0.0407117046415805
0.0397278368473053
0.0385231114923954
0.0370150059461593
0.0350726321339607
0.0325281098484993
0.0292000453919172
0.0249321553856134
0.0196389909833669
0.0133412964642047
0.0061782784759998
-0.0016032308340072
-0.0096768410876393
-0.0176758207380771
-0.0252353120595216
-0.0320285409688949
-0.0377925485372543
-0.0423426926136016
-0.0455771163105964
-0.0474745668470859
-0.0480864718556404
-0.0475269965827465
-0.0459670089185237
-0.0436251759529113
-0.0407482907176017
-0.0375841073691844
-0.0343531779944896
-0.0312286261469125
-0.0283295549452304
-0.0257225558161735
-0.0234240666031837
-0.0214048326015472
-0.0195997301489114
-0.0179210640490055
-0.0162723828107118
-0.0145601639524102
-0.0127045363187789
-0.010653493925929
-0.0083948522806167
-0.0059553147293627
-0.0033892828505486
-0.000765613047406
0.0018454932142049
0.0043831435032188
0.0068003856576979
0.0090641248971223
0.011154618114233
0.0130664426833391
0.0148088755086064
0.0164004806429147
0.0178600847721099
0.0192070268094539
0.0204710252583026
0.021692506968975
0.022906269878149
0.0241245236247777
0.025331737473607
0.026490431278944
0.0275526996701955
0.0284706801176071
0.0292039886116981
0.029726292937994
0.0300281774252653
0.0301141738891601
0.0299990251660347
0.0297061838209629
0.0292651914060115
0.0287089683115482
0.0280744899064302
0.0273978263139724
0.0266991630196571
0.0259742923080921
0.0252010244876146
0.0243497565388679
0.0233858320862054
0.0222570523619651
0.0208730809390544
0.0190941113978624
0.0167415682226419
0.0136318299919366
0.0096207875758409
0.0046414528042078
-0.0012757889926433
-0.0079985465854406
-0.0152969025075435
-0.0228622443974018
-0.0303495228290557
-0.0374291390180587
-0.0438230521976947
-0.0493203327059745
-0.0537826009094715
-0.0571425929665565
-0.0593950375914573
-0.0605846047401428
-0.0607962608337402
-0.0601473748683929
-0.0587776266038417
-0.0568380504846572
-0.0544826351106166
-0.0518568195402622
-0.0490798465907573
-0.0462356358766555
-0.0433794111013412
-0.0405455417931079
-0.0377487801015377
-0.034985352307558
-0.0322356037795543
-0.0294648520648479
-0.0266260206699371
-0.0236695427447557
-0.0205561406910419
-0.0172653216868639
-0.013798669911921
-0.0101800700649619
-0.0064527224749326
-0.0026696249842643
0.0011202795431017
0.004876771941781
0.0085586756467819
0.0121154859662055
0.0154912937432527
0.0186350904405117
0.0215105917304754
0.0241010412573814
0.0264056213200092
0.0284314155578613
0.0301889181137084
0.031694047152996
0.0329725481569767
0.0340597070753574
0.0349939689040184
0.0358122438192367
0.0365511327981948
0.0372427850961685
0.0379001423716545
0.0385092571377754
0.0390388667583465
0.0394539199769496
0.039723452180624
0.0398269742727279
0.0397581905126571
0.0395215153694152
0.0391283147037029
0.038599070161581
0.0379635989665985
0.03725191578269
0.0364833995699882
0.0356630645692348
0.034776471555233
0.0337688103318214
0.0325189046561718
0.0308402478694915
0.0285180807113647
0.0253606736660003
0.0212442744523286
0.0161441341042518
0.0101495347917079
0.003459577448666
-0.0036414298228919
-0.0108205927535891
-0.0177350528538227
-0.0240711085498332
-0.0295799970626831
-0.0340953320264816
-0.0375270396471023
-0.0398512966930866
-0.0411104261875152
-0.0414117872714996
-0.0409148409962654
-0.0398088991641998
-0.038287915289402
-0.0365302301943302
-0.03468744084239
-0.0328770279884338
-0.0311756543815135
-0.0296183936297893
-0.0282056964933872
-0.0269112735986709
-0.025686515495181
-0.0244622118771076
-0.0231509283185005
-0.0216621346771717
-0.0199294090270996
-0.0179263185709714
-0.015663294121623
-0.013178838416934
-0.0105312429368495
-0.0077889887616038
-0.0050200587138533
-0.0022832192480564
0.0003755306825041
0.0029216082766652
0.005329807754606
0.0075860559009015
0.0096912551671266
0.0116624468937516
0.0135297644883394
0.0153255192562937
0.0170680694282054
0.0187550447881221
0.0203691869974136
0.0218865945935249
0.0232826769351959
0.0245363712310791
0.0256332494318485
0.0265676341950893
0.0273427031934261
0.0279676243662834
0.0284525044262409
0.0288057588040828
0.0290352683514356
0.0291499067097902
0.0291625652462244
0.029090579599142
0.0289455410093069
0.0287228673696517
0.0284049361944198
0.0279731918126344
0.0274175591766834
0.026737617328763
0.0259385295212268
0.0250230804085731
0.0239754766225814
0.0227399989962577
0.0212063733488321
0.0192131735384464
0.0165750253945589
0.0131287677213549
0.0087809348478913
0.0035334220156073
-0.0025177830830216
-0.0091941738501191
-0.0162492878735065
-0.0233912579715251
-0.0303119271993637
-0.0367182046175003
-0.0423618331551551
-0.0470612570643425
-0.0507102347910404
-0.053273856639862
-0.0547782778739929
-0.0552994050085544
-0.0549515485763549
-0.0538743957877159
-0.0522189997136592
-0.0501387752592563
-0.0477865859866142
-0.0453084148466587
-0.0428308844566345
-0.0404501557350158
-0.0382229536771774
-0.0361597165465354
-0.0342271290719509
-0.0323585420846939
-0.0304669011384248
-0.0284624993801116
-0.0262721590697765
-0.0238491743803024
-0.0211725234985351
-0.0182399749755859
-0.0150590855628252
-0.0116480011492967
-0.0080514252185821
-0.004349909722805
-0.0006463453173637
0.0029557794332504
0.0063670258969068
0.0095222881063818
0.0123896580189466
0.0149704003706574
0.0172883104532957
0.0193777717649936
0.0212759003043174
0.0230176709592342
0.0246330462396144
0.0261476449668407
0.0275865644216537
0.0289718694984912
0.0303105004131793
0.03158750385046
0.0327727273106575
0.0338336378335952
0.0347464308142662
0.035501018166542
0.0360999964177608
0.0365543179214
0.0368781052529811
0.0370846353471279
0.0371839255094528
0.0371819585561752
0.0370813235640525
0.0368850231170654
0.0366033390164375
0.0362520441412925
0.0358346477150917
0.0353199243545532
0.0346258878707885
0.033615943044424
0.0321132875978946
0.0299306046217679
0.0269053317606449
0.0229356624186038
0.0180119611322879
0.0122310873121023
0.0057876110076904
-0.0010506779653951
-0.0079738441854715
-0.0146592920646071
-0.0207955501973629
-0.0261106509715318
-0.0304096452891826
-0.0335982218384742
-0.0356754176318645
-0.0367107130587101
-0.0368236005306243
-0.0361677147448062
-0.0349174849689006
-0.0332563333213329
-0.0313649661839008
-0.0294083151966333
-0.0275204516947269
-0.0257917009294033
-0.0242621023207902
-0.022920299321413
-0.0217095036059618
-0.020546156913042
-0.0193462632596492
-0.0180431306362152
-0.0165917165577411
-0.0149667486548423
-0.0131584182381629
-0.0111686345189809
-0.0090101342648267
-0.0067074410617351
-0.0042968522757291
-0.0018216660246253
0.0006751948967576
0.0031536975875496
0.0055750682950019
0.0079055139794945
0.0101256826892495
0.0122301364317536
0.0142130935564637
0.016058912500739
0.017744280397892
0.0192433856427669
0.0205334108322858
0.0216011144220829
0.0224484037607908
0.0230934806168079
0.0235673785209655
0.0239111352711915
0.0241736005991697
0.0244040619581937
0.0246419794857502
0.0249128807336092
0.025231797248125
0.0256025120615959
0.0260076522827148
0.0264033880084753
0.0267284009605646
0.0269217081367969
0.0269389599561691
0.0267600156366825
0.0263867788016796
0.0258351229131221
0.0251278057694435
0.0242867432534694
0.0233132224529981
0.022159032523632
0.0207086652517318
0.0187867302447557
0.0161890033632516
0.0127228759229183
0.0082436436787247
0.0026846099644899
-0.0039182612672448
-0.0114131504669785
-0.0195391383022069
-0.0279537253081798
-0.0362729988992214
-0.04411631077528
-0.0511480011045932
-0.0571091398596763
-0.0618354082107543
-0.0652576684951782
-0.0673867389559745
-0.0682919397950172
-0.0680836588144302
-0.0669068619608879
-0.0649428889155387
-0.0624032504856586
-0.0595069378614425
-0.0564512759447097
-0.0533884763717651
-0.0504140555858612
-0.0475675724446773
-0.0448410101234912
-0.0421897619962692
-0.0395436659455299
-0.0368181876838207
-0.033927459269762
-0.0307989511638879
-0.0273842941969633
-0.0236603524535894
-0.0196294467896223
-0.0153295006603002
-0.0108387041836977
-0.0062607508152723
-0.0017042644321918
0.0027316380292177
0.0069677848368883
0.010951580479741
0.0146576464176177
0.0180830582976341
0.0212405044585466
0.0241537392139434
0.0268553253263235
0.0293826702982187
0.0317730978131294
0.0340609326958656
0.0362711921334266
0.0384072326123714
0.0404433645308017
0.0423312000930309
0.0440165102481842
0.0454587005078792
0.046644389629364
0.0475881397724151
0.0483212061226367
0.0488797165453434
0.0492996573448181
0.0496126040816307
0.0498411245644092
0.0500005409121513
0.0501044988632202
0.0501681044697761
0.0502044223248958
0.0502122156322002
0.0501658022403717
0.0500188618898391
0.0497108548879623
0.0491560474038124
0.0482206828892231
0.0467145889997482
0.0444095730781555
0.0410764925181865
0.036530215293169
0.0306731481105089
0.0235250070691108
0.0152319762855768
0.0060603646561503
-0.0036239116452634
-0.0133976144716143
-0.0228375904262065
-0.0315702185034751
-0.0392997302114963
-0.04581905528903
-0.0510104671120643
-0.054840512573719
-0.0573499202728271
-0.0586393252015113
-0.0588540695607662
-0.0581690445542335
-0.056775264441967
-0.0548692867159843
-0.0526395514607429
-0.0502466969192028
-0.0478045046329498
-0.045374147593975
-0.0429769903421402
-0.0406092330813407
-0.0382441580295562
-0.0358327254652977
-0.0333123542368412
-0.0306186974048614
-0.0276968833059072
-0.024511806666851
-0.0210532136261463
-0.0173337962478399
-0.0133848711848258
-0.0092545785009861
-0.0050067733973264
-0.0007140897214412
0.0035543665289878
0.0077397665008902
0.0117879416793584
0.0156413447111845
0.0192400403320789
0.0225294046103954
0.025468748062849
0.0280383843928575
0.0302427746355533
0.032108973711729
0.0336815305054187
0.0350156687200069
0.0361705645918846
0.0372007638216018
0.0381452366709709
0.0390238128602504
0.0398460254073143
0.0406165868043899
0.04132841527462
0.0419590026140213
0.0424770228564739
0.0428479574620723
0.0430370829999446
0.0430155619978904
0.0427679531276226
0.0422965139150619
0.0416209511458873
0.0407751463353633
0.0397999435663223
0.0387317240238189
0.0375922136008739
0.0363801605999469
0.035056784749031
0.0335212014615535
0.0315915718674659
0.0290196780115365
0.0255426298826932
0.0209458321332931
0.015114801004529
0.0080670807510614
-3.946758806705475e-05
-0.0089192744344472
-0.0181884709745645
-0.0274115186184644
-0.036157164722681
-0.0440465919673442
-0.0507849380373954
-0.0561750754714012
-0.0601147264242172
-0.0625900626182556
-0.0636759996414184
-0.0635324642062187
-0.0623876377940177
-0.0605116710066795
-0.0581849887967109
-0.0556664168834686
-0.0531679280102252
-0.0508384108543396
-0.0487537533044815
-0.0469143763184547
-0.04525688290596
-0.043677918612957
-0.0420586057007312
-0.0402793437242507
-0.0382280722260475
-0.0358169265091419
-0.0330057702958583
-0.0298106539994478
-0.0262906495481729
-0.0225272066891193
-0.0186069160699844
-0.0146108297631144
-0.0106095410883426
-0.0066606015898287
-0.0028072181157767
0.0009199202759191
0.0044973669573664
0.0079052187502384
0.0111302211880683
0.0141717940568923
0.0170448739081621
0.0197749156504869
0.0223821531981229
0.0248655751347541
0.0272017903625965
0.029357548803091
0.0313025750219821
0.0330166183412075
0.0344926305115222
0.0357357710599899
0.0367596708238124
0.0375842675566673
0.0382350198924541
0.0387398488819599
0.0391231477260589
0.03940274938941
0.0395945832133293
0.0397138483822345
0.0397629402577877
0.0397197492420673
0.03953418135643
0.0391189977526664
0.0383342280983924
0.0369859300553798
0.0348503552377224
0.0317128971219062
0.027408231049776
0.0218576453626155
0.0150997471064329
0.0073040816932916
-0.0012410581111907
-0.010161024518311
-0.0190329495817422
-0.0274307988584041
-0.0349815748631954
-0.0414098165929317
-0.0465497896075248
-0.0503362640738487
-0.0527898408472538
-0.0539989024400711
-0.0540987364947795
-0.0532535910606384
-0.0516440197825431
-0.0494562610983848
-0.0468715280294418
-0.0440551340579986
-0.0411460399627685
-0.0382475964725017
-0.0354186668992042
-0.0326720736920833
-0.0299885496497154
-0.0273362752050161
-0.0246798004955053
-0.0219790805131196
-0.0191932208836078
-0.0162908844649791
-0.0132553605362772
-0.0100841401144862
-0.0067898975685238
-0.0034014570992439
3.775861114263535e-05
0.0034747219178825
0.0068540889769792
0.0101248221471905
0.0132472496479749
0.0161970257759094
0.0189596563577651
0.0215237606316804
0.0238840449601411
0.0260504018515348
0.028052045032382
0.0299297254532575
0.031719259917736
0.0334375388920307
0.0350788384675979
0.0366198047995567
0.038028247654438
0.039273202419281
0.040332555770874
0.0411959327757358
0.0418664403259754
0.0423591248691082
0.0426910407841205
0.042874127626419
0.0429202355444431
0.0428479239344596
0.0426818281412124
0.042446844279766
0.0421629734337329
0.0418442413210868
0.0414980202913284
0.0411228463053703
0.0407071709632873
0.0402205884456634
0.0395922325551509
0.0386944152414798
0.0373488552868366
0.0353508815169334
0.0324998572468757
0.0286311469972133
0.0236464850604534
0.0175390541553497
0.0104085579514503
0.002457920461893
-0.0060301013290882
-0.0147265754640102
-0.0232925023883581
-0.0314148664474487
-0.0388353206217289
-0.0453657694160938
-0.0508930757641792
-0.0553726889193058
-0.0588143393397331
-0.0612752214074134
-0.0628629550337791
-0.0637288242578506
-0.0640438348054885
-0.063970535993576
-0.0636414960026741
-0.0631469637155532
-0.0625327304005622
-0.0618038475513458
-0.0609279200434684
-0.0598414689302444
-0.0584631562232971
-0.0567084327340126
-0.0545020587742328
-0.0517882890999317
-0.0485371276736259
-0.0447518676519393
-0.0404798164963722
-0.0358129367232322
-0.0308716874569654
-0.0257843397557735
-0.0206728130578994
-0.0156440865248441
-0.0107860127463936
-0.0061681857332587
-0.0018443567678332
0.0021421043202281
0.0057496838271617
0.0089384550228714
0.0116812326014041
0.0139781571924686
0.0158673785626888
0.0174198132008314
0.0187150593847036
0.0198169872164726
0.0207634009420871
0.0215672180056571
0.0222236756235361
0.0227206014096736
0.0230473764240741
0.023198852315545
0.0231769382953643
0.0229946076869964
0.0226790662854909
0.0222671870142221
0.0217924155294895
0.0212661698460578
0.0206547174602746
0.0198531914502382
0.0186710953712463
0.0168521609157323
0.0141324661672115
0.0103140147402882
0.0053241811692714
-0.000759741757065
-0.0077216038480401
-0.0152368601411581
-0.0229128990322351
-0.0303376615047454
-0.0371282249689102
-0.0429698973894119
-0.0476406067609787
-0.0510151199996471
-0.053050871938467
-0.0537729263305664
-0.0532696321606636
-0.0516860447824001
-0.0492053367197513
-0.0460303910076618
-0.0423726812005043
-0.0384384579956531
-0.0344050824642181
-0.030395308509469
-0.0264636203646659
-0.0225994866341352
-0.0187460537999868
-0.0148339588195085
-0.0108190272003412
-0.0067030154168605
-0.0025312080979347
0.0016183108091354
0.0056434348225593
0.0094344988465309
0.0129030440002679
0.0160104483366012
0.0187878273427486
0.0213452074676752
0.0238646399229764
0.026573384180665
0.0296986307948827
0.0334135442972183
0.0377939194440841
0.0428016260266304
0.0482960864901542
0.0540682151913642
0.0598909296095371
0.0655651837587356
0.0709353238344192
0.0758764743804931
0.0802791789174079
0.0840479880571365
0.0871155858039856
0.0894706547260284
0.0911989957094192
0.0925288870930671
0.0938527733087539
0.0956892818212509
0.0985742062330246
0.1029186248779296
0.1088976711034774
0.116418071091175
0.1251765489578247
0.134767472743988
0.1447743624448776
0.1548238098621368
0.1646211743354797
0.1739750951528549
0.1827897429466247
0.1909933090209961
0.1984010636806488
0.2045902013778686
0.2088879644870758
0.2104833871126175
0.2085926234722137
0.2026096433401107
0.1921962201595306
0.1772970855236053
0.1581005454063415
0.1349600702524185
0.1083031892776489
0.0786007791757583
0.046432226896286
0.0125785171985626
-0.0219466686248779
-0.0559540539979934
-0.0882014408707618
-0.1175423040986061
-0.1430539190769195
-0.1641121357679367
-0.180410698056221
-0.1919463276863098
-0.1989956647157669
-0.20209302008152
-0.2019927650690078
-0.1996036022901535
-0.1959070414304733
-0.1918787360191345
-0.1884181946516037
-0.1862847506999969
-0.1860391944646835
-0.1880007982254028
-0.1922319382429123
-0.1985514014959335
-0.2065690159797668
-0.2157331705093383
-0.2253857403993606
-0.2348228394985199
-0.2433574348688125
-0.2503703236579895
-0.2553333044052124
-0.2578085362911224
-0.2574456334114074
-0.2539906203746795
-0.2473104596138
-0.2374250888824463
-0.2245261371135711
-0.2089710533618927
-0.1912566423416137
-0.1719740033149719
-0.151749312877655
-0.1311855763196945
-0.1108184605836868
-0.0910945534706115
-0.0723782926797866
-0.0549727417528629
-0.0391266569495201
-0.0250295214354991
-0.0128144724294543
-0.0025633401237428
0.0057018417865037
0.0120357973501086
0.0165817588567733
0.0195673201233148
0.0212788116186857
0.0220234505832195
0.0220961645245552
0.02175834774971
0.0212279539555311
0.0206788424402475
0.0202466044574975
0.020042035728693
0.0201707296073436
0.0207401141524314
0.021842498332262
0.0235358141362667
0.0258413963019847
0.0287501849234104
0.032224953174591
0.0361992344260215
0.0405803509056568
0.0452589020133018
0.050120323896408
0.0550534985959529
0.0599540993571281
0.0647240430116653
0.0692707449197769
0.073508933186531
0.0773637592792511
0.0807701796293258
0.0836715623736381
0.0860301107168197
0.0878492593765258
0.0891925767064094
0.0901893600821495
0.0910240337252616
0.0919099301099777
0.0930559933185577
0.0946345403790474
0.0967537313699722
0.099438689649105
0.1026236116886138
0.1061548665165901
0.1098067015409469
0.1133070141077041
0.1163588687777519
0.1186532974243164
0.1198952570557594
0.1198506727814674
0.1183908432722091
0.1155173331499099
0.111366793513298
0.1061942875385284
0.1003382727503776
0.0941791608929634
0.0880964398384094
0.0824217796325683
0.0773916244506836
0.073111392557621
0.0695474073290824
0.066552385687828
0.0639060735702514
0.0613524317741394
0.0586398281157016
0.0555687621235847
0.0520282760262489
0.0480033010244369
0.0435596145689487
0.0388242229819297
0.0339653417468071
0.0291687250137329
0.0246165003627538
0.0204727314412593
0.0168710146099329
0.0139054469764232
0.0116312652826309
0.010068817064166
0.009195826947689
0.0089271608740091
0.0091044660657644
0.0095150247216224
0.0099297109991312
0.0101385340094566
0.0099756903946399
0.0093334149569273
0.0081647597253322
0.0064803920686244
0.0043453481048345
0.0018716352060437
-0.0007982272654771
-0.0035104025155305
-0.0061137690208852
-0.0084671676158905
-0.0104496274143457
-0.0119815580546855
-0.0130412774160504
-0.0136616639792919
-0.0139153897762298
-0.0139000108465552
-0.0137248504906892
-0.0135005703195929
-0.013331277295947
-0.0133053744211792
-0.0134825874119997
-0.0138828307390213
-0.0144863249734044
-0.0152461426332592
-0.016102310270071
-0.0169882886111736
-0.0178415402770042
-0.0186249874532222
-0.0193358808755874
-0.0199891291558742
-0.0205924678593873
-0.0211342237889766
-0.0215944424271583
-0.0219735726714134
-0.0223195347934961
-0.0227381996810436
-0.0233806557953357
-0.0244093183428049
-0.0259587205946445
-0.0281051062047481
-0.0308440439403057
-0.0340766087174415
-0.0376197732985019
-0.0412457734346389
