bvp
-0.0380195938050746
-0.0364255420863628
-0.0347275100648403
-0.032833632081747
-0.0306729525327682
-0.0282004196196794
-0.0253989417105913
-0.0222790706902742
-0.0188768412917852
-0.0152459926903247
-0.0114508550614118
-0.0075687523931264
-0.0036919154226779
8.331239223480225e-05
0.0036758463829755
0.0070352870970964
0.0101446788758039
0.0130126141011714
0.0156619604676961
0.0181206092238426
0.0204158220440149
0.0225708279758691
0.0246017295867204
0.0265139304101467
0.0283044632524251
0.0299747455865144
0.0315380580723285
0.033008687198162
0.0343890972435474
0.0356699079275131
0.0368347987532615
0.0378662720322608
0.0387535318732261
0.0394968725740909
0.040108598768711
0.0406124591827392
0.0410372912883758
0.0414088405668735
0.041744764894247
0.0420432612299919
0.0422638580203056
0.0423147641122341
0.0420485809445381
0.041264422237873
0.039731815457344
0.037240520119667
0.0336549803614616
0.0289533473551273
0.0232411734759807
0.0167401116341352
0.0097602698951959
0.0026604468002915
-0.0041977250948548
-0.0104883937165141
-0.0159490257501602
-0.0203979033976793
-0.0237356498837471
-0.0259341783821582
-0.0270318742841482
-0.0271404683589935
-0.0264444462954998
-0.0251800958067178
-0.023601908236742
-0.0219486691057682
-0.0204179678112268
-0.019153144210577
-0.0182387940585613
-0.0176999382674694
-0.017505545169115
-0.0175776742398738
-0.0178056061267852
-0.0180622600018978
-0.0182169303297996
-0.018143493682146
-0.0177343301475048
-0.0169206541031599
-0.0156816877424716
-0.0140384975820779
-0.012045070528984
-0.0097779110074043
-0.007319962605834
-0.0047459304332733
-0.0021184496581554
0.0005074199289083
0.0030812211334705
0.0055592218413949
0.0079085128381848
0.0101094907149672
0.012157061137259
0.0140609908849
0.0158391036093235
0.0175031907856464
0.0190503504127264
0.0204652342945337
0.0217277500778436
0.022822082042694
0.0237435847520828
0.0244994089007377
0.0251035280525684
0.0255726538598537
0.0259270071983337
0.0261913649737834
0.026391003280878
0.0265459269285202
0.0266717709600925
0.0267848223447799
0.0268904231488704
0.0269450154155492
0.0268202293664217
0.026301585137844
0.0251211822032928
0.0230087656527757
0.0197472777217626
0.0152165070176124
0.0094170747324824
0.0024787248112261
-0.0053484621457755
-0.0137234721332788
-0.0222560241818428
-0.0305489562451839
-0.0382330939173698
-0.0449901595711708
-0.0505724735558033
-0.054823487997055
-0.0576843842864036
-0.0591830350458622
-0.0594173520803451
-0.0585373379290103
-0.0567266456782817
-0.0541856661438941
-0.0511162392795085
-0.0477094687521457
-0.0441354066133499
-0.0405310988426208
-0.0369903184473514
-0.0335620902478694
-0.0302552245557308
-0.027041558176279
-0.0238647144287824
-0.0206621587276458
-0.0173866208642721
-0.014012761414051
-0.0105338860303163
-0.0069583766162395
-0.0033089630305767
0.000376945361495
0.0040482934564352
0.0076452735811471
0.0111095001921057
0.0143954567611217
0.0174769051373004
0.0203454326838254
0.0230060182511806
0.0254763737320899
0.0277846083045005
0.0299583785235881
0.0320126302540302
0.0339441001415252
0.0357349477708339
0.0373649820685386
0.0388247221708297
0.0401194505393505
0.0412645265460014
0.0422806069254875
0.0431911461055278
0.0440187975764274
0.0447813011705875
0.0454888194799423
0.0461445339024066
0.0467494204640388
0.0473012588918209
0.0477830171585083
0.0481579825282096
0.0483814664185047
0.0484128706157207
0.0482171326875686
0.047763492912054
0.0470273122191429
0.0459913425147533
0.044642399996519
0.0429613403975963
0.0409053824841976
0.0383869335055351
0.035263318568468
0.03135347366333
0.0264813099056482
0.0205211117863655
0.0134224407374858
0.0052211415022611
-0.0039505809545516
-0.0138623565435409
-0.0242027305066585
-0.0346085913479328
-0.0446966886520385
-0.0540983565151691
-0.0624964572489261
-0.0696523338556289
-0.0754142850637435
-0.0797118842601776
-0.0825446099042892
-0.0839691087603569
-0.0840872302651405
-0.0830423682928085
-0.0810238718986511
-0.0782621949911117
-0.0750059336423873
-0.0714904963970184
-0.0679106339812278
-0.064403161406517
-0.0610403046011924
-0.0578322224318981
-0.054736889898777
-0.0516765601933002
-0.0485607758164405
-0.0453083254396915
-0.0418563224375247
-0.0381559878587722
-0.0341663286089897
-0.029858823865652
-0.0252350308001041
-0.0203397162258625
-0.0152533771470189
-0.0100714359432458
-0.0048868292942643
0.0002185683697462
0.0051763709634542
0.0099318670108914
0.0144446138292551
0.0186885949224233
0.0226517524570226
0.0263347774744033
0.0297473911195993
0.0329056717455387
0.0358324237167835
0.0385507829487323
0.0410714522004127
0.0433889329433441
0.0454898625612258
0.0473648980259895
0.0490160658955574
0.0504558682441711
0.0517018176615238
0.052770547568798
0.0536713376641273
0.0543989315629005
0.0549307204782962
0.0552327893674373
0.0552704334259033
0.055018488317728
0.0544699542224407
0.053636085242033
0.0525369271636009
0.051195353269577
0.0496399812400341
0.0479097552597522
0.0460546277463436
0.0441269651055336
0.0421611182391643
0.040148876607418
0.0380222462117672
0.0356514751911163
0.0328608453273773
0.0294600222259759
0.0252846851944923
0.0202371329069137
0.0143177043646574
0.0076371319591999
0.0004030242562294
-0.0071126017719507
-0.0146109294146299
-0.0218013022094964
-0.0284313485026359
-0.0343100428581237
-0.0393170081079006
-0.0433935634791851
-0.0465246587991714
-0.0487253367900848
-0.0500362254679203
-0.0505253858864307
-0.0502895936369895
-0.0494483262300491
-0.0481351390480995
-0.046498205512762
-0.0447045564651489
-0.0429296195507049
-0.0413292199373245
-0.0400048904120922
-0.0389734208583831
-0.0381506755948066
-0.0373542681336402
-0.0363246574997901
-0.0347614325582981
-0.0323697328567504
-0.0289128478616476
-0.024263247847557
-0.0184384584426879
-0.0116087216883897
-0.0040738526731729
0.00377385225147
0.0114855682477355
0.0185978449881076
0.0246819891035556
0.0293892882764339
0.0324873439967632
0.033881589770317
0.0336136035621166
0.0318398624658584
0.0288018379360437
0.0247930046170949
0.0201245117932558
0.0150943659245967
0.0099652763456106
0.0049545150250196
0.000234980136156
-0.0040635578334331
-0.0078607751056551
-0.011127914302051
-0.0138740958645939
-0.0161272659897804
-0.0179216992110013
-0.019287696108222
-0.0202436130493879
-0.0207972265779972
-0.0209521539509296
-0.0207117833197116
-0.0200822707265615
-0.0190802812576293
-0.0177476201206445
-0.0161675009876489
-0.0144758597016334
-0.0128663070499897
-0.0115818800404667
-0.010883005335927
-0.0109977982938289
-0.0120735457167029
-0.014145384542644
-0.0171300824731588
-0.0208405517041683
-0.0250137951225042
-0.0293478220701217
-0.0335374437272548
-0.037301804870367
-0.0404057428240776
-0.0426723062992095
-0.0439812391996383
-0.0442616716027259
-0.043496087193489
-0.0417346321046352
-0.0390983782708644
-0.0357638075947761
-0.0319390520453453
-0.0278386753052473
-0.0236594043672084
-0.019561668857932
-0.0156613253057003
-0.0120305381715297
-0.0087017603218555
-0.0056706331670284
-0.0028996840119361
-0.0003270227462053
0.0021242853254079
0.0045428276062011
0.0070206653326749
0.0096322372555732
0.0124168321490287
0.0153761524707078
0.0184821113944053
0.0216877646744251
0.0249351896345615
0.0281614996492862
0.0313065610826015
0.0343201868236064
0.0371661260724067
0.0398210287094116
0.042270004749298
0.0445038340985775
0.0465201325714588
0.0483264029026031
0.049936793744564
0.0513610020279884
0.0525995716452598
0.0536518394947052
0.0545260459184646
0.0552419126033782
0.0558253303170204
0.0563004612922668
0.056682102382183
0.0569697245955467
0.0571458451449871
0.0571806244552135
0.0570407211780548
0.0566953346133232
0.0561185553669929
0.0552914813160896
0.0541974119842052
0.0528114140033721
0.051101166754961
0.0490404851734638
0.0466245226562023
0.0438832826912403
0.0408873073756694
0.0377359874546527
0.0345255248248577
0.0313059464097023
0.0280517376959323
0.0246637165546417
0.0209945254027843
0.0168826933950185
0.0121904239058494
0.0068409070372581
0.0008394978940486
-0.0057307798415422
-0.0127243986353278
-0.0199447348713874
-0.0271599926054477
-0.0341292880475521
-0.0406266301870346
-0.0464564487338066
-0.0514658242464065
-0.0555539801716804
-0.0586749091744422
-0.0608332380652427
-0.0620782114565372
-0.0624987110495567
-0.0622159242630004
-0.0613685622811317
-0.0600968226790428
-0.0585357993841171
-0.0568107962608337
-0.0550240874290466
-0.0532410964369773
-0.0514842942357063
-0.0497338436543941
-0.0479346737265586
-0.0460110232234001
-0.0438864156603813
-0.0415005348622798
-0.0388162322342395
-0.0358215905725955
-0.0325308069586753
-0.0289786998182535
-0.0252103544771671
-0.0212791487574577
-0.0172576941549778
-0.0132458005100488
-0.0093604065477848
-0.0057127298787236
-0.0023867450654506
0.0005729561089538
0.0031620147638022
0.0054086842574179
0.0073632281273603
0.0090890517458319
0.0106565067544579
0.0121348984539508
0.0135817304253578
0.0150380525738
0.0165329538285732
0.0180839616805315
0.0196884609758853
0.0213202722370624
0.0229369737207889
0.0244919937103986
0.0259470958262681
0.0272792689502239
0.0284816194325685
0.0295631010085344
0.0305442251265048
0.0314472578465938
0.0322863385081291
0.0330570712685585
0.0337207876145839
0.0341878235340118
0.0343113839626312
0.0338950827717781
0.0327129960060119
0.030547872185707
0.0272424779832363
0.0227415952831506
0.0171108953654766
0.010534101165831
0.0032931314781308
-0.0042640035971999
-0.0117640206590294
-0.0188524629920721
-0.0252285897731781
-0.0306625589728355
-0.0349990501999855
-0.0381520316004753
-0.0400946326553821
-0.0408571287989616
-0.0405369102954864
-0.039301261305809
-0.0373677499592304
-0.0349697470664978
-0.0323246866464614
-0.0296157728880643
-0.0269843097776174
-0.0245248060673475
-0.0222806446254253
-0.0202458389103412
-0.0183789767324924
-0.0166228599846363
-0.0149182863533496
-0.0132103553041815
-0.0114491824060678
-0.009592767804861
-0.0076209902763366
-0.0055483425967395
-0.0034194877371191
-0.0012931851670145
0.0007740799337625
0.0027401023544371
0.0045838998630642
0.0063089756295084
0.0079425284639
0.009529722854495
0.011124450713396
0.0127787105739116
0.0145337358117103
0.016416972503066
0.018443077802658
0.020608615130186
0.0228772722184658
0.0251700561493635
0.0273755174130201
0.0293755829334259
0.0310685560107231
0.0323794856667518
0.0332635641098022
0.0337077751755714
0.0337290316820144
0.0333689264953136
0.0326883681118488
0.031762521713972
0.0306747406721115
0.0295107066631317
0.0283539239317178
0.0272753406316041
0.0263090319931507
0.0254238210618495
0.024511482566595
0.0234001912176609
0.0218871980905532
0.0197808593511581
0.016941150650382
0.0133065748959779
0.008901203982532
0.0038250274956226
-0.001764802262187
-0.0076758568175137
-0.0137012489140033
-0.0196353923529386
-0.0252843033522367
-0.0304781533777713
-0.0350889824330806
-0.0390391871333122
-0.0422918759286403
-0.0448363423347473
-0.0466803088784217
-0.0478453747928142
-0.0483619421720504
-0.0482666492462158
-0.0476043857634067
-0.0464308746159076
-0.0448083579540252
-0.0427949018776416
-0.0404393896460533
-0.0377840958535671
-0.0348631888628006
-0.0317032262682914
-0.028337575495243
-0.0248197447508573
-0.0212202910333871
-0.0176158249378204
-0.0140815451741218
-0.0106854187324643
-0.0074803670868277
-0.004498703405261
-0.0017524817958474
0.0007636826485395
0.0030714850872755
0.0052066324278712
0.0072121052071452
0.0091333147138357
0.0110191572457551
0.0129168024286627
0.0148562751710414
0.0168436355888843
0.0188695844262838
0.0209187678992748
0.0229723751544952
0.0250081159174442
0.0269992053508758
0.0289133638143539
0.03071422688663
0.0323624536395072
0.0338135845959186
0.0350183174014091
0.0359299816191196
0.0365153662860393
0.0367637686431407
0.0366868376731872
0.0363062508404254
0.0356436297297477
0.0347257107496261
0.0335979834198951
0.032330822199583
0.0310103893280029
0.029718779027462
0.0285121724009513
0.0274003967642784
0.0263290870934724
0.025173332542181
0.023752661421895
0.0218654330819845
0.0193325225263834
0.0160358157008886
0.0119348596781492
0.0070621464401483
0.0015174420550465
-0.0045301658101379
-0.0108415614813566
-0.0171128250658512
-0.0229879580438137
-0.0280861482024192
-0.0320440456271171
-0.0345635414123535
-0.0354591384530067
-0.0347002781927585
-0.0324343554675579
-0.0289755500853061
-0.0247585475444793
-0.0202698074281215
-0.0159795861691236
-0.012292344123125
-0.0095122409984469
-0.0078185033053159
-0.0072556040249764
-0.0077436016872525
-0.009107488207519
-0.0111142732203006
-0.0135081745684146
-0.0160443969070911
-0.0185169894248247
-0.0207704212516546
-0.0226947721093893
-0.0242050196975469
-0.0251875296235084
-0.0254109017550945
-0.0244593005627393
-0.0217640660703182
-0.0167396292090415
-0.0089625902473926
0.001674621598795
0.0148809254169464
0.0299716386944055
0.0459543913602829
0.0616697408258914
0.0759501531720161
0.0877666100859642
0.0963445454835891
0.1012372002005577
0.1023478806018829
0.0999029874801635
0.0943866372108459
0.0864442810416221
0.0767721235752105
0.0660257115960121
0.0547671727836132
0.0434428490698337
0.0323780253529548
0.0217853300273418
0.0117864459753036
0.0024426244199275
-0.0062134750187397
-0.0141549967229366
-0.0213487856090068
-0.0277438722550869
-0.0332554690539836
-0.037746325135231
-0.0410171188414096
-0.042832251638174
-0.0429855622351169
-0.0413701497018337
-0.0380270928144454
-0.0331782177090644
-0.0272407811135053
-0.0208093635737895
-0.014597613364458
-0.009346418082714
-0.0057218559086322
-0.0042267516255378
-0.0051376186311244
-0.0084798336029052
-0.0140481702983379
-0.0214550830423831
-0.0301856491714715
-0.0396619215607643
-0.0493184737861156
-0.0586671270430088
-0.067332275211811
-0.0750569030642509
-0.0816864222288131
-0.0871428847312927
-0.0914021059870719
-0.0944775342941284
-0.0964106395840644
-0.0972688049077987
-0.0971471816301345
-0.0961678177118301
-0.0944701805710792
-0.0921887978911399
-0.0894286632537841
-0.0862629264593124
-0.0827537849545478
-0.0789668783545494
-0.0749660283327102
-0.0708041191101074
-0.0665202215313911
-0.0621400475502014
-0.0576807372272014
-0.0531602501869201
-0.0486029908061027
-0.0440374761819839
-0.0394926853477954
-0.0349975004792213
-0.0305796582251787
-0.0262611489742994
-0.0220528747886419
-0.0179571099579334
-0.0139792039990425
-0.0101329609751701
-0.0064293146133422
-0.0028575845062732
0.0006272085011005
0.0041007623076438
0.0076482817530632
0.0113387890160083
0.015207715332508
0.0192487202584743
0.0234120115637779
0.0276072509586811
0.0317122377455234
0.0355931371450424
0.0391328483819961
0.0422494113445282
0.044896550476551
0.0470608919858932
0.0487686768174171
0.0500963777303695
0.0511698126792907
0.052145317196846
0.053180381655693
0.0544009953737258
0.0558688454329967
0.0575558096170425
0.0593362562358379
0.0610028281807899
0.0623015612363815
0.0629790648818016
0.0628338158130645
0.0617522820830345
0.059715162962675
0.0567866973578929
0.053108125925064
0.048893254250288
0.0444085448980331
0.0399350896477699
0.0357288941740989
0.0319928005337715
0.0288623310625553
0.0264052934944629
0.0246329642832279
0.0235165543854236
0.0230015628039836
0.0230181775987148
0.0234902240335941
0.0243347473442554
0.0254487730562686
0.0267033576965332
0.0279561914503574
0.0290713906288146
0.0299370661377906
0.030477188527584
0.0306566543877124
0.0304811727255582
0.0299931019544601
0.0292649026960134
0.028389835730195
0.0274694003164768
0.0265998933464288
0.02586155757308
0.025314038619399
0.0249929521232843
0.0249006636440753
0.0250017773360013
0.0252346936613321
0.0255339127033948
0.0258497446775436
0.0261554811149835
0.0264432225376367
0.0267152488231658
0.0269746351987123
0.0272176396101713
0.0274307206273078
0.0275925900787115
0.0276783369481563
0.0276645515114069
0.0275372415781021
0.0272940658032894
0.0269340500235557
0.0264505613595247
0.0258366018533706
0.025090504437685
0.0242173932492733
0.0232308097183704
0.0221551936119794
0.0210270285606384
0.0198925919830799
0.0188026428222656
0.0178042221814394
0.0169300381094217
0.0161923374980688
0.0155870672315359
0.0151003152132034
0.01470198482275
0.0143255591392517
0.0138499056920409
0.0130969267338514
0.0118488650768995
0.0098813958466053
0.0070017874240875
0.0030828975141048
-0.0019105225801467
-0.0079067125916481
-0.0147280041128396
-0.022110553458333
-0.0297393035143613
-0.0372856147587299
-0.0444338321685791
-0.0508990921080112
-0.0564498603343963
-0.0609330236911773
-0.0642824992537498
-0.0665059015154838
-0.0676634982228279
-0.0678533464670181
-0.0672054439783096
-0.0658770948648452
-0.0640412718057632
-0.0618697628378868
-0.0595194920897483
-0.0571240298449993
-0.0547872111201286
-0.0525784529745578
-0.0505288690328598
-0.0486276000738143
-0.046826098114252
-0.0450557246804237
-0.0432475954294204
-0.0413427837193012
-0.0392960980534553
-0.037079207599163
-0.0346811860799789
-0.0321044996380806
-0.0293588358908891
-0.0264570098370313
-0.0234131179749965
-0.0202409941703081
-0.0169553235173225
-0.0135752027854323
-0.0101241469383239
-0.0066267261281609
-0.0031116208992898
0.0003773211501538
0.0037756040692329
0.007007298991084
0.0100011974573135
0.0127014853060245
0.0150725338608026
0.0171017199754714
0.0187976770102977
0.0201847739517688
0.0212986804544925
0.0221844539046287
0.0228945929557085
0.0234832949936389
0.0240022577345371
0.0245029721409082
0.0250322427600622
0.0256140269339084
0.0262377634644508
0.0268668346107006
0.0274549815803766
0.0279570259153842
0.0283336006104946
0.0285551082342863
0.0286061279475688
0.028485644608736
0.0281999446451663
0.0277461856603622
0.0270866081118583
0.0261290594935417
0.0247323103249073
0.0227323416620492
0.0199709013104438
0.0163189508020877
0.0117020793259143
0.0061284750699996
-0.0002923589199781
-0.0073507083579897
-0.0147584453225135
-0.0221852827817201
-0.0292987544089555
-0.0357971265912056
-0.0414323769509792
-0.046022705733776
-0.0494540110230445
-0.0516752563416957
-0.0526929199695587
-0.0525667406618595
-0.0514098033308982
-0.0493908412754535
-0.0467275232076644
-0.0436655580997467
-0.0404498018324375
-0.0372950881719589
-0.0343646816909313
-0.031758539378643
-0.029508002102375
-0.0275789648294448
-0.0258870683610439
-0.0243199188262224
-0.0227554105222225
-0.0210718680173158
-0.0191541817039251
-0.0169008541852235
-0.0142380809411406
-0.0111387278884649
-0.007629944011569
-0.0037833582609891
0.0003005331382155
0.0045050745829939
0.0087087759748101
0.0127985663712024
0.0166798718273639
0.0202769376337528
0.0235287956893444
0.0263887234032154
0.0288266856223344
0.0308327991515398
0.0324222408235073
0.0336391031742095
0.034551091492176
0.0352329611778259
0.0357513464987278
0.0361611396074295
0.036507710814476
0.036829087883234
0.037158764898777
0.0375247783958911
0.0379418283700943
0.0384028926491737
0.0388768948614597
0.0393124744296073
0.0396452471613884
0.0398072563111782
0.0397387221455574
0.039399117231369
0.0387675166130065
0.0378299541771411
0.0365671105682849
0.0349464304745197
0.0329131335020065
0.0303853042423725
0.0272633023560047
0.0234547238796949
0.0189046934247016
0.0136190466582775
0.0076774805784225
0.0012374641373753
-0.0054755639284849
-0.0121923871338367
-0.0186279565095901
-0.0245068594813346
-0.0295955799520015
-0.0337402038276195
-0.0368847176432609
-0.0390587598085403
-0.0403513684868812
-0.0408869609236717
-0.0408087484538555
-0.0402673073112964
-0.0394083447754383
-0.0383595041930675
-0.0372207760810852
-0.0360616631805896
-0.0349244736135005
-0.0338271670043468
-0.0327594876289367
-0.0316765643656253
-0.0305051561444997
-0.0291665978729724
-0.0275977905839681
-0.0257566776126623
-0.0236195400357246
-0.0211805533617734
-0.018452676013112
-0.0154655240476131
-0.012262069620192
-0.0088950563222169
-0.0054211504757404
-0.0018939394503831
0.0016404967755079
0.0051415688358247
0.0085697816684842
0.0118895815685391
0.0150711853057146
0.0180786047130823
0.0208580382168293
0.0233426000922918
0.0254684910178184
0.0271930992603302
0.0285075474530458
0.0294415149837732
0.0300615094602108
0.0304599795490503
0.0307372789829969
0.0309845842421054
0.0312711000442504
0.0316365659236907
0.0320936925709247
0.0326384641230106
0.0332523956894874
0.0338905230164527
0.0344738699495792
0.0349006503820419
0.0350690446794033
0.0348990298807621
0.0343457981944084
0.0333997793495655
0.0320688709616661
0.030348815023899
0.0281995348632335
0.0255395546555519
0.0222586747258901
0.0182453040033578
0.0134253334254026
0.0078001730144023
0.0014612041413784
-0.0054249335080385
-0.0126395830884575
-0.0199309922754764
-0.027034917846322
-0.0336975306272506
-0.0396943986415863
-0.0448458567261695
-0.0490272641181945
-0.0521709211170673
-0.0542666390538215
-0.0553630888462066
-0.0555609054863452
-0.0549989119172096
-0.0538424625992774
-0.0522723607718944
-0.0504719130694866
-0.0486135333776474
-0.0468407645821571
-0.0452461056411266
-0.0438560359179973
-0.042630635201931
-0.041473813354969
-0.0402484126389026
-0.0387981347739696
-0.0369770415127277
-0.0346758402884006
-0.0318356305360794
-0.0284494310617446
-0.0245549753308296
-0.0202227383852005
-0.0155402394011616
-0.0105995824560523
-0.0054985610768198
-0.0003469716757535
0.0047363983467221
0.0096349325031042
0.0142473271116614
0.01849877089262
0.0223451927304267
0.0257705301046371
0.028781022876501
0.0313974134624004
0.0336477421224117
0.0355638787150383
0.0371806472539901
0.0385387167334556
0.0396873876452446
0.0406764410436153
0.0415411666035652
0.0422969460487365
0.0429471880197525
0.0434946157038211
0.0439459271728992
0.0443086996674537
0.0445870831608772
0.0447804927825927
0.0448850430548191
0.0448967963457107
0.0448117479681968
0.044619970023632
0.044302113354206
0.0438368283212184
0.0432135201990604
0.0424316227436065
0.0414814874529838
0.0403262674808502
0.0388944000005722
0.0370765216648578
0.0347294993698596
0.0316947251558303
0.0278294421732425
0.0230418890714645
0.0173193085938692
0.0107426773756742
0.0034851115196943
-0.0042063295841217
-0.0120374355465173
-0.019693162292242
-0.0268644746392965
-0.0332812629640102
-0.0387462675571441
-0.043153803795576
-0.0464843623340129
-0.0487820506095886
-0.0501312352716922
-0.0506441220641136
-0.0504547506570816
-0.0497110113501548
-0.0485654696822166
-0.0471674352884292
-0.0456561483442783
-0.0441521182656288
-0.0427455678582191
-0.0414862185716629
-0.0403761081397533
-0.0393729098141193
-0.038409300148487
-0.0374110974371433
-0.0363027788698673
-0.035010278224945
-0.033466950058937
-0.0316204875707626
-0.0294372905045747
-0.0269038379192352
-0.0240270979702472
-0.0208337660878896
-0.0173684041947126
-0.0136895133182406
-0.0098642464727163
-0.0059651108458638
-0.002067127963528
0.0017519863322377
0.0054052001796662
0.0087933894246816
0.0118149081245064
0.0143814869225025
0.0164298769086599
0.0179264545440673
0.018870597705245
0.0192984957247972
0.019283965229988
0.0189346261322498
0.018382228910923
0.0177689380943775
0.0172347053885459
0.0169095546007156
0.0169081222265958
0.0173169523477554
0.0181755498051643
0.0194673724472522
0.0211274363100528
0.023053653538227
0.0251076985150575
0.0271068755537271
0.0288202129304409
0.0299800466746091
0.0303098186850547
0.0295584462583065
0.02753397077322
0.0241361111402511
0.0193817541003227
0.0134168211370706
0.0065143252722918
-0.0009501843014732
-0.0085516236722469
-0.0158746745437383
-0.0225525982677936
-0.0282850600779056
-0.0328466556966304
-0.036090862005949
-0.0379522740840911
-0.0384481735527515
-0.0376746170222759
-0.0357960723340511
-0.033032514154911
-0.0296434964984655
-0.0259079225361347
-0.0220984928309917
-0.0184519998729228
-0.0151506466791033
-0.0123227098956704
-0.0100443661212921
-0.0083317104727029
-0.0071350578218698
-0.0063444394618272
-0.0058042546734213
-0.0053338576108217
-0.0047506000846624
-0.0038906224071979
-0.0026257093995809
-0.0008744839578866
0.0013947058469057
0.0041653867810964
0.0073783686384558
0.010944414883852
0.0147525118663907
0.018664613366127
0.0225136633962392
0.0261188801378011
0.0293091759085655
0.0319414064288139
0.0339106768369674
0.0351579487323761
0.0356774665415287
0.0355184897780418
0.0347777716815471
0.033587273210287
0.0321018062531948
0.0304869450628757
0.0289076790213584
0.027517482638359
0.0264397822320461
0.0257429424673318
0.0254306942224502
0.0254576746374368
0.0257547385990619
0.0262480042874813
0.026867700740695
0.0275512132793664
0.0282429680228233
0.0288928318768739
0.0294566676020622
0.0298969317227602
0.0301788281649351
0.0302627384662628
0.0300965551286935
0.0296095088124275
0.0287018753588199
0.0272317081689834
0.0250185281038284
0.0218760482966899
0.0176594592630863
0.0123053379356861
0.0058536082506179
-0.001546612009406
-0.0096442559733986
-0.0181091539561748
-0.0265688765794038
-0.0346487835049629
-0.042007029056549
-0.0483623370528221
-0.0535093545913696
-0.0573199391365051
-0.0597417801618576
-0.0608013942837715
-0.0606015473604202
-0.059307686984539
-0.0571323595941066
-0.0543201453983783
-0.0511256717145442
-0.0477868095040321
-0.0445029437541961
-0.0414197482168674
-0.0386193245649337
-0.0361206270754337
-0.0338905453681945
-0.0318597219884395
-0.0299375783652067
-0.0280253551900386
-0.0260335933417081
-0.0239027328789234
-0.0216111522167921
-0.0191656965762376
-0.0165845733135938
-0.0138827078044414
-0.0110680945217609
-0.0081503000110387
-0.0051526157185435
-0.002118591684848
0.0008899085223674
0.003799749771133
0.0065362611785531
0.0090355109423398
0.0112576568499207
0.013197018764913
0.0148793030530214
0.0163468364626169
0.0176509395241737
0.0188553351908922
0.020033098757267
0.0212542191147804
0.0225757360458374
0.0240377802401781
0.0256615430116653
0.0274470709264278
0.0293690264225006
0.0313701555132865
0.0333589650690555
0.0352189168334007
0.036829125136137
0.0380888059735298
0.0389299131929874
0.0393108874559402
0.0392079204320907
0.0386174730956554
0.0375656224787235
0.0361153408885002
0.0343630909919738
0.0324244312942028
0.0304169077426195
0.0284425262361764
0.0265666674822568
0.0247940011322498
0.0230510085821151
0.0211905390024185
0.019021950662136
0.0163540560752153
0.0130330063402652
0.008964342996478
0.0041259378194808
-0.0014204382896423
-0.0075280824676156
-0.0139848366379737
-0.0205467082560062
-0.0269707478582859
-0.0330401360988616
-0.0385813489556312
-0.0434721931815147
-0.047640711069107
-0.0510577857494354
-0.0537264347076416
-0.055669791996479
-0.0569227822124958
-0.057534210383892
-0.0575747974216938
-0.0571369603276252
-0.0563226826488971
-0.0552273727953434
-0.0539263486862182
-0.0524645559489727
-0.0508497431874275
-0.0490537025034427
-0.0470207408070564
-0.0446795038878917
-0.0419606417417526
-0.0388173460960388
-0.0352394618093967
-0.0312573388218879
-0.0269350707530975
-0.022362120449543
-0.017653789371252
-0.0129500646144151
-0.0083997938781976
-0.0041370820254087
-0.000261215493083
0.0031747389584779
0.0061667002737522
0.008754938840866
0.0110116209834814
0.0130249075591564
0.0148859564214944
0.0166799649596214
0.0184815414249897
0.0203563291579484
0.0223632678389549
0.0245440211147069
0.0269037969410419
0.0294052381068468
0.0319795235991478
0.0345433689653873
0.0370144806802272
0.0393195003271102
0.0413948260247707
0.043187066912651
0.0446531698107719
0.045757807791233
0.0464662760496139
0.0467286631464958
0.0464610122144222
0.0455412231385707
0.0438280440866947
0.0411907881498336
0.0375357419252395
0.0328318029642105
0.0271360799670219
0.020606841892004
0.013496059924364
0.0061251297593116
-0.0011487603187561
-0.0079697463661432
-0.0140198646113276
-0.0190490502864122
-0.0228930748999118
-0.0254780873656272
-0.0268142167478799
-0.0269822273403406
-0.0261166244745254
-0.0243937335908412
-0.0220299307256937
-0.0192765220999717
-0.0163976103067398
-0.0136361885815858
-0.0111829303205013
-0.0091584101319313
-0.0076087675988674
-0.0065104383975267
-0.0057833828032016
-0.0053109638392925
-0.0049602836370468
-0.0045980382710695
-0.0041025560349226
-0.0033716559410095
-0.0023236367851495
-0.0009011197835206
0.000915328040719
0.003101360052824
0.0056007374078035
0.008341010659933
0.0112442895770072
0.0142343370243906
0.017239412292838
0.0201907698065042
0.0230202265083789
0.0256602577865123
0.0280483793467283
0.0301338694989681
0.0318811722099781
0.0332714021205902
0.0343044996261596
0.0349920317530632
0.0353406965732574
0.0353465266525745
0.0350058823823928
0.0343299396336078
0.0333550795912742
0.0321483947336673
0.0308046825230121
0.0294342283159494
0.0281486324965953
0.027049558237195
0.0262161064893007
0.0256888251751661
0.0254542510956525
0.0254314038902521
0.0254636816680431
0.0253238417208194
0.0247348714619874
0.0234051942825317
0.0210745967924594
0.0175612717866897
0.0127966627478599
0.006838547065854
-0.0001377779990434
-0.0078622139990329
-0.0160020776093006
-0.0242029335349798
-0.0321285054087638
-0.0394877567887306
-0.0460457131266593
-0.0516221038997173
-0.0560873337090015
-0.0593660399317741
-0.0614462122321128
-0.0623783878982067
-0.0622619464993476
-0.0612309724092483
-0.0594431459903717
-0.0570691972970962
-0.0542814284563064
-0.0512382052838802
-0.0480697713792324
-0.0448729433119297
-0.041710615158081
-0.0386110320687294
-0.0355697385966777
-0.0325558371841907
-0.0295205749571323
-0.0264119375497102
-0.023192923516035
-0.0198496095836162
-0.0163856670260429
-0.0128140766173601
-0.009152615442872
-0.0054209679365158
-0.001637827605009
0.0021799826063215
0.0060176863335072
0.0098616350442171
0.0136919245123863
0.0174748506397008
0.0211654566228389
0.0247161574661731
0.028084672987461
0.0312354154884815
0.0341317988932132
0.0367323644459247
0.0389999449253082
0.0409140065312385
0.0424760244786739
0.0437087044119834
0.0446510501205921
0.0453492999076843
0.0458466373383998
0.0461756438016891
0.0463552623987197
0.046389352530241
0.0462633743882179
0.0459460765123367
0.0454002916812896
0.0445875637233257
0.0434639975428581
0.0419847629964351
0.0401173792779445
0.0378495194017887
0.0351819768548011
0.0321079418063163
0.028593236580491
0.0245730709284544
0.019967146217823
0.0147037617862224
0.0087466873228549
0.0021216049790382
-0.005068240687251
-0.0126437656581401
-0.0203654691576957
-0.0279634855687618
-0.0351782590150833
-0.0417913571000099
-0.0476369708776474
-0.0526040531694889
-0.0566338412463665
-0.0597098320722579
-0.0618446543812751
-0.0630741640925407
-0.0634588003158569
-0.0630823522806167
-0.062049351632595
-0.0604870244860649
-0.0585451498627662
-0.0563813745975494
-0.0541300773620605
-0.051876962184906
-0.0496595315635204
-0.047478511929512
-0.0453012585639953
-0.043062437325716
-0.0406708046793937
-0.0380222499370574
-0.0350184738636016
-0.0315888375043869
-0.0277077294886112
-0.0234007313847541
-0.0187384244054555
-0.0138235818594694
-0.0087783746421337
-0.0037303515709936
0.0012054285034537
0.0059400619938969
0.0104119079187512
0.014583270996809
0.0184419453144073
0.0220031235367059
0.0253073722124099
0.0284151639789342
0.0313962958753109
0.0343131832778453
0.037200640887022
0.0400518998503685
0.0428206920623779
0.0454357489943504
0.0478188768029212
0.0499038212001323
0.0516501814126968
0.0530412718653678
0.054069448262453
0.0547266975045204
0.0550060272216796
0.0549070835113525
0.0544417798519134
0.053637757897377
0.0525386407971382
0.0511993654072284
0.0496755093336105
0.0480133667588233
0.0462473928928375
0.0444026142358779
0.0424975156784057
0.0405470132827758
0.0385636836290359
0.0365463532507419
0.0344515889883041
0.0321681424975395
0.0295193549245595
0.0262971147894859
0.0223085172474384
0.0174169689416885
0.0115724503993988
0.0048284195363521
-0.0026573427021503
-0.0106379743665456
-0.0188082996755838
-0.0268453434109687
-0.0344472862780094
-0.0413591265678405
-0.0473798178136348
-0.0523653104901313
-0.0562418550252914
-0.0590169616043567
-0.0607718154788017
-0.0616382807493209
-0.0617737770080566
-0.0613429471850395
-0.0605056658387184
-0.0594077333807945
-0.0581718273460865
-0.0568888038396835
-0.055612776428461
-0.0543619692325592
-0.0531231947243213
-0.0518552660942077
-0.0504907853901386
-0.0489468052983284
-0.0471476092934608
-0.0450430214405059
-0.04261215031147
-0.0398597456514835
-0.0368117429316043
-0.0335119478404521
-0.0300190579146146
-0.0263994242995977
-0.0227170661091804
-0.0190288629382848
-0.0153843900188803
-0.0118249086663126
-0.0083825550973415
-0.0050794808194041
-0.0019238523673266
0.0010882366914302
0.0039588268846273
0.006678451783955
0.0092316195368766
0.01160654053092
0.0137993637472391
0.0158157330006361
0.0176742188632488
0.0194089617580175
0.021066116169095
0.0226940866559743
0.0243328306823968
0.0260068699717521
0.0277219004929065
0.0294636990875005
0.0311999917030334
0.0328811109066009
0.0344384238123893
0.0357892327010631
0.0368457436561584
0.0375162959098815
0.0376989506185054
0.0372768118977546
0.0361233539879322
0.0341209322214126
0.0311889387667179
0.0273124445229768
0.0225588548928499
0.0170755162835121
0.0110748894512653
0.0048169125802814
-0.0014126785099506
-0.0073352940380573
-0.0127178849652409
-0.0173955671489238
-0.0212689265608787
-0.0242907777428627
-0.0264557749032974
-0.0277911163866519
-0.0283492598682642
-0.028206244111061
-0.0274608302861452
-0.0262293387204408
-0.0246372837573289
-0.0228101685643196
-0.0208619870245456
-0.0188813842833042
-0.0169225055724382
-0.0150098549202084
-0.0131548959761857
-0.0113663952797651
-0.0096453297883272
-0.0079761985689401
-0.0063262963667511
-0.0046531418338418
-0.0029145469889044
-0.0010771825909614
0.0008769696578383
0.0029491996392607
0.005128669552505
0.0073989368975162
0.0097498036921024
0.0122001357376575
0.0148184103891253
0.0177139360457658
0.0209915898740291
0.0246976688504219
0.0287869274616241
0.0331153906881809
0.0374548584222793
0.0415279418230056
0.0450530052185058
0.0477859936654567
0.0495531149208545
0.0502699688076972
0.0499457865953445
0.0486727692186832
0.0466031692922115
0.0439272448420524
0.0408598817884922
0.0376209951937198
0.0344028398394584
0.031346995383501
0.0285442285239696
0.0260433405637741
0.0238567702472209
0.0219640210270881
0.0203166604042053
0.0188473165035247
0.0174828767776489
0.016155594959855
0.014803634956479
0.013359785079956
0.0117358937859535
0.0098158866167068
0.0074665416032075
0.0045582503080368
0.0009856224060058
-0.0033071693032979
-0.0083021745085716
-0.0139020150527358
-0.0199382156133651
-0.0261836107820272
-0.0323759652674198
-0.0382524542510509
-0.0435807146131992
-0.0481784902513027
-0.0519230216741561
-0.054752379655838
-0.0566598400473594
-0.0576811395585536
-0.0578780397772789
-0.0573308616876602
-0.0561446249485015
-0.0544523559510707
-0.0524039007723331
-0.0501478090882301
-0.0478133521974086
-0.0454936102032661
-0.0432358272373676
-0.0410439148545265
-0.0388881228864192
-0.0367162898182868
-0.0344674177467823
-0.0320868603885173
-0.0295390225946903
-0.0268106944859027
-0.0239031482487916
-0.0208287294954061
-0.0176202934235334
-0.0143349757418036
-0.0110426470637321
-0.0078096352517604
-0.0046852459199726
-0.0016967905685305
0.0011447453871369
0.0038374429568648
0.0063858805224299
0.0088008735328912
0.0110990311950445
0.0133001739159226
0.0154225518926978
0.0174808874726295
0.0194884445518255
0.0214535351842641
0.0233678184449672
0.0252008475363254
0.0269081201404333
0.0284440983086824
0.0297744609415531
0.030884526669979
0.0317792668938636
0.0324782021343708
0.0330098308622837
0.0334045067429542
0.0336888581514358
0.0338844209909439
0.0340065211057662
0.0340653657913208
0.0340716540813446
0.0340348631143569
0.0339506976306438
0.0337943620979785
0.0335247218608856
0.0330865308642387
0.0324050635099411
0.0313798040151596
0.0298859868198633
0.0277878772467374
0.0249629281461238
0.0213312283158302
0.016879566013813
0.0116713196039199
0.0058428831398487
-0.0004069581627845
-0.0068335523828864
-0.0131747964769601
-0.0191897191107273
-0.0246872473508119
-0.0295302662998437
-0.0336261764168739
-0.0369194969534873
-0.0393891520798206
-0.0410472303628921
-0.0419345088303089
-0.0421131923794746
-0.0416617505252361
-0.040670420974493
-0.0392343662679195
-0.0374468751251697
-0.0353933237493038
-0.0331440605223178
-0.030751783400774
-0.0282596405595541
-0.0257102418690919
-0.0231426246464252
-0.0205823387950658
-0.0180375687777996
-0.0155032100155949
-0.0129652442410588
-0.0104025062173604
-0.0077904742211103
-0.0051091602072119
-0.0023511769250035
0.0004745982587337
0.0033441297709941
0.0062229866161942
0.0090748043730854
0.0118671040982007
0.0145671991631388
0.0171350762248039
0.0195246748626232
0.0216926578432321
0.023605914786458
0.0252439491450786
0.0265992358326911
0.0276790745556354
0.0285076517611742
0.0291236788034439
0.0295718647539615
0.0298938546329736
0.0301260240375995
0.0303025618195533
0.0304570645093917
0.0306163989007473
0.0307866372168064
0.0309440121054649
0.0310405995696783
0.0310135222971439
0.0307818464934825
0.030236754566431
0.0292434580624103
0.0276598297059535
0.0253636725246906
0.0222808253020048
0.0184066575020551
0.0138143105432391
0.0086500411853194
0.0031207944266498
-0.0025260769762098
-0.0080360043793916
-0.013185417279601
-0.0178043488413095
-0.0217774361371994
-0.0250356048345565
-0.0275501497089862
-0.0293301828205585
-0.0304159130901098
-0.030865216627717
-0.030740525573492
-0.0301012061536312
-0.0290023814886808
-0.0275023616850376
-0.025675181299448
-0.0236144214868545
-0.0214223284274339
-0.0191993322223424
-0.0170423779636621
-0.0150381829589605
-0.0132481744512915
-0.0116970585659146
-0.0103676486760377
