bvp
0.0268878228962421
0.0282428190112113
0.0293306782841682
0.0301844179630279
0.0308443717658519
0.0313496105372905
0.0317336022853851
0.0320248454809188
0.0322500541806221
0.0324364565312862
0.0326071269810199
0.0327678211033344
0.0328978113830089
0.0329541526734828
0.0328859612345695
0.0326506048440933
0.0322243310511112
0.0316058583557605
0.030814180150628
0.0298812836408615
0.0288457702845335
0.0277523640543222
0.0266506187617778
0.0255842637270689
0.0245770625770092
0.0236257370561361
0.0226913578808307
0.0216797348111867
0.0204300377517938
0.018732888624072
0.0163702555000782
0.0131590217351913
0.0089899748563766
0.0038559772074222
-0.0021393075585365
-0.008793843910098
-0.0158364754170179
-0.0229667127132415
-0.0298926252871751
-0.0363569259643554
-0.0421509966254234
-0.0471210442483425
-0.0511745437979698
-0.0542880184948444
-0.0565031692385673
-0.0579073056578636
-0.05861047655344
-0.0587283037602901
-0.0583706647157669
-0.0576365254819393
-0.0566151216626167
-0.0553865507245063
-0.0540158376097679
-0.0525472164154052
-0.0510047376155853
-0.0493953600525856
-0.0477093569934368
-0.045918121933937
-0.0439792498946189
-0.041853554546833
-0.0395207218825817
-0.0369822494685649
-0.034255001693964
-0.0313638746738433
-0.0283373408019542
-0.0252067297697067
-0.0220086500048637
-0.0187843274325132
-0.0155711099505424
-0.012395036406815
-0.0092741828411817
-0.0062245661392807
-0.0032563875429332
-0.000366284744814
0.0024578648153692
0.0052191722206771
0.007900427095592
0.0104687847197055
0.0128872198984026
0.0151242967694997
0.0171604715287685
0.0189901068806648
0.0206193942576646
0.0220619738101959
0.0233348459005355
0.0244561098515987
0.0254445411264896
0.0263203233480453
0.0271065421402454
0.0278309769928455
0.0285205841064453
0.029186001047492
0.0298135709017515
0.0303748790174722
0.0308411959558725
0.0311912540346384
0.0314129367470741
0.0315035060048103
0.03146867826581
0.0313193686306476
0.0310659222304821
0.0307064596563577
0.030207771807909
0.0294905100017786
0.0284368935972452
0.0269194543361663
0.0248277354985475
0.0220817439258098
0.0186441820114851
0.0145381623879075
0.009858775883913
0.0047677438706159
-0.0005270950496196
-0.0057990150526165
-0.0108291786164045
-0.0154284685850143
-0.0194500889629125
-0.0227944105863571
-0.0254105720669031
-0.0272930152714252
-0.0284713841974735
-0.0289990715682506
-0.0289496928453445
-0.0284207351505756
-0.0275300554931163
-0.0264024771749973
-0.0251552015542984
-0.0238863341510295
-0.0226697586476802
-0.0215530898422002
-0.0205522235482931
-0.0196483507752418
-0.0187961272895336
-0.0179389286786317
-0.0170211046934127
-0.0159930363297462
-0.0148084266111254
-0.013418823480606
-0.0117793958634138
-0.0098679335787892
-0.0076995738781988
-0.0053254989907145
-0.0028190496377646
-0.0002587726339697
0.0022843941114842
0.0047545940615236
0.0071128597483038
0.0093332231044769
0.0113980872556567
0.0132978409528732
0.0150332786142826
0.0166159160435199
0.0180650688707828
0.0194049887359142
0.0206603687256574
0.0218462757766246
0.0229605380445718
0.0239867307245731
0.0249016918241977
0.0256813745945692
0.0263062734156847
0.026766275987029
0.0270625278353691
0.0272069554775953
0.027221530675888
0.0271361395716667
0.0269832052290439
0.0267917141318321
0.0265842005610466
0.026376100257039
0.0261717978864908
0.0259570926427841
0.0256989244371652
0.0253557246178388
0.0248907506465911
0.0242823101580142
0.0235239770263433
0.0226106867194175
0.0215194672346115
0.0201976653188467
0.0185631699860095
0.0165149811655282
0.0139521211385726
0.0107983024790883
0.0070274826139211
0.0026816129684448
-0.0021313782781362
-0.0072595728561282
-0.0125307664275169
-0.0177677348256111
-0.0228016376495361
-0.0274852905422449
-0.0317015200853347
-0.0353654995560646
-0.0384225398302078
-0.0408438965678215
-0.042623832821846
-0.0437780655920505
-0.044341217726469
-0.0443635396659374
-0.04390649497509
-0.0430355221033096
-0.0418173111975193
-0.0403267703950405
-0.0386503897607326
-0.0368749126791954
-0.0350696258246898
-0.0332751385867595
-0.0315018706023693
-0.029735542833805
-0.0279460996389389
-0.0260952394455671
-0.0241423714905977
-0.0220534410327672
-0.0198098998516798
-0.0174112468957901
-0.0148696387186646
-0.0122011639177799
-0.0094257462769746
-0.0065797171555459
-0.0037236693315207
-0.0009320164099335
0.0017258869484066
0.0041991523467004
0.0064608063548803
0.0085066463798284
0.0103487875312566
0.0120103182271122
0.0135234724730253
0.0149235911667346
0.0162404552102088
0.0174985826015472
0.018724251538515
0.0199465528130531
0.0211867410689592
0.0224428176879882
0.0236848331987857
0.0248659588396549
0.0259385481476783
0.0268652960658073
0.0276240110397338
0.0282073374837636
0.028618685901165
0.0288687013089656
0.0289759691804647
0.0289679784327745
0.0288767963647842
0.0287315193563699
0.0285552106797695
0.0283685531467199
0.0281873028725385
0.028007511049509
0.0277983769774436
0.0275143068283796
0.0271124895662069
0.0265640188008546
0.0258560478687286
0.0249854195863008
0.0239452645182609
0.0227081663906574
0.021214572712779
0.0193727724254131
0.017072070389986
0.0142093952745199
0.0107243647798895
0.0066311880946159
0.002026904374361
-0.0029332125559449
-0.0080678034573793
-0.0131862293928861
-0.0181015860289335
-0.0226521249860525
-0.0267194584012031
-0.0302314013242721
-0.0331545583903789
-0.0354857295751571
-0.037242978811264
-0.0384578332304954
-0.0391727536916732
-0.0394396260380744
-0.0393127910792827
-0.0388401709496974
-0.0380642563104629
-0.0370352379977703
-0.0358183346688747
-0.0344842299818992
-0.0330943912267684
-0.0316913649439811
-0.0302927456796169
-0.0288904793560504
-0.0274583734571933
-0.0259622223675251
-0.024367269128561
-0.0226432420313358
-0.0207689870148897
-0.0187360867857933
-0.0165452491492033
-0.0141986720263957
-0.011704022064805
-0.0090894903987646
-0.0064104311168193
-0.0037391455844044
-0.0011473121121525
0.0013083023950457
0.0035929279401898
0.0056941919028759
0.0076189627870917
0.0093904696404933
0.0110456813126802
0.0126267941668629
0.0141678927466273
0.0156882647424936
0.0171952974051237
0.0186913795769214
0.0201765410602092
0.0216401685029268
0.0230526812374591
0.0243712738156318
0.0255535654723644
0.026566220447421
0.027387261390686
0.028008934110403
0.0284411571919918
0.0287081934511661
0.0288390256464481
0.0288588069379329
0.0287856794893741
0.0286336168646812
0.0284175481647253
0.0281559359282255
0.0278668664395809
0.0275574997067451
0.0272174086421728
0.0268240198493003
0.0263534188270568
0.025786293670535
0.0251044258475303
0.0242783706635236
0.0232545491307973
0.0219515617936849
0.0202680807560682
0.0181004237383604
0.0153659312054514
0.0120252855122089
0.0081000318750739
0.0036836182698607
-0.0010653799399733
-0.0059533952735364
-0.0107861096039414
-0.0153904650360345
-0.0196280665695667
-0.0234018042683601
-0.0266533531248569
-0.0293562076985836
-0.0315072238445282
-0.0331171825528144
-0.0342067033052444
-0.0348096191883087
-0.0349768325686454
-0.034775536507368
-0.0342808105051517
-0.0335614457726478
-0.032675314694643
-0.0316789001226425
-0.0306314937770366
-0.0295854210853576
-0.0285739488899707
-0.0276036355644464
-0.0266520213335752
-0.0256728194653987
-0.0246066078543663
-0.0233927182853221
-0.0219800397753715
-0.0203356016427278
-0.0184501521289348
-0.0163392834365367
-0.0140369739383459
-0.0115830618888139
-0.0090182796120643
-0.0063920821994543
-0.0037657245993614
-0.0012021390721201
0.0012458534911274
0.0035418448969721
0.0056662228889763
0.0076121971942484
0.0093835350126028
0.0109950881451368
0.0124702276661992
0.0138353882357478
0.0151162864640355
0.0163351185619831
0.0175100322812795
0.0186589024960994
0.0197975877672433
0.0209279507398605
0.0220305807888507
0.0230704806745052
0.02400678768754
0.024802803993225
0.0254369396716356
0.0259079188108444
0.0262332782149314
0.0264460407197475
0.0265879649668931
0.0267000794410705
0.0268155075609684
0.0269545465707778
0.0271236076951026
0.0273205209523439
0.0275351945310831
0.027734026312828
0.0278396718204021
0.0277247074991464
0.0272217467427253
0.0261448062956333
0.0243194736540317
0.0216173231601715
0.0179851092398166
0.0134613560512661
0.008177101612091
0.0023395139724016
-0.0037957783788442
-0.0099544264376163
-0.0158703196793794
-0.0213090628385543
-0.0260905921459198
-0.0301084127277135
-0.0333342663943767
-0.0358034893870353
-0.0375894531607627
-0.0387792885303497
-0.0394580885767936
-0.0397020541131496
-0.0395781099796295
-0.0391447842121124
-0.0384515449404716
-0.0375418998301029
-0.0364596396684646
-0.0352478958666324
-0.0339376516640186
-0.0325355641543865
-0.0310263223946094
-0.0293911583721637
-0.0276232901960611
-0.0257274731993675
-0.0237123314291238
-0.0215861238539218
-0.0193553864955902
-0.0170245692133903
-0.0145986275747418
-0.0120868515223264
-0.0095037519931793
-0.0068681212142109
-0.0042030345648527
-0.0015348829329013
0.0011113323271274
0.0037190858274698
0.006282290443778
0.008795078843832
0.0112381679937243
0.0135777797549963
0.0157766230404377
0.0178048498928546
0.0196448471397161
0.0212911758571863
0.0227483697235584
0.0240278262645006
0.0251461174339056
0.0261249858886003
0.0269889868795871
0.0277601312845945
0.0284558944404125
0.0290948450565338
0.0296976827085018
0.0302736200392246
0.0308088175952434
0.031272642314434
0.0316336415708065
0.031869888305664
0.0319695211946964
0.0319290235638618
0.0317530035972595
0.0314527675509452
0.0310433357954025
0.0305397063493728
0.029953883960843
0.0292937569320201
0.0285602826625108
0.0277366954833269
0.026767848059535
0.0255427919328212
0.0239016916602849
0.0216700583696365
0.0187036506831645
0.0149255907163023
0.010345485061407
0.0050619821995496
-0.0007471786811947
-0.0068482826463878
-0.0129826804623007
-0.0188957266509532
-0.02436164021492
-0.0292037241160869
-0.0333019718527793
-0.0365867875516414
-0.0390345007181167
-0.0406712740659713
-0.041569422930479
-0.0418310165405273
-0.0415726900100708
-0.0409166738390922
-0.0399834997951984
-0.0388840809464454
-0.0377104207873344
-0.0365275740623474
-0.0353707000613212
-0.0342473238706588
-0.0331424586474895
-0.0320222489535808
-0.0308351479470729
-0.029514217749238
-0.0279893446713686
-0.0262130331248044
-0.0241792649030685
-0.0219177808612585
-0.0194767657667398
-0.016909996047616
-0.0142695624381303
-0.011601191945374
-0.0089397672563791
-0.0063069835305213
-0.0037152571603655
-0.0011735633015632
0.0013115461915731
0.0037369262427091
0.0061029242351651
0.0084155267104506
0.010685452260077
0.0129167567938566
0.0150947980582714
0.0171881783753633
0.0191609542816877
0.0209810081869363
0.0226230733096599
0.0240732580423355
0.025332935154438
0.026417676359415
0.0273532941937446
0.0281706117093563
0.0288985446095466
0.0295581892132759
0.0301624964922666
0.0307208057492971
0.031238691881299
0.0317085497081279
0.0321035385131835
0.0323848575353622
0.0325158834457397
0.0324744060635566
0.0322552919387817
0.0318564586341381
0.0312525555491447
0.0303736887872219
0.0291040521115064
0.0273014772683382
0.0248290281742811
0.0215902905911207
0.0175635553896427
0.0128243006765842
0.0075391661375761
0.001932502258569
-0.00375154055655
-0.0092765595763921
-0.0144331967458128
-0.0190525334328413
-0.0230124946683645
-0.0262391306459903
-0.0287052989006042
-0.0304259676486253
-0.0314518548548221
-0.0318639241158962
-0.0317664258182048
-0.0312772281467914
-0.0305148120969533
-0.0295828767120838
-0.0285634491592645
-0.0275235567241907
-0.0265207570046186
-0.0255966912955045
-0.0247671455144882
-0.0240179933607578
-0.0233059450984001
-0.0225633792579174
-0.0217101648449897
-0.0206694193184375
-0.0193804427981376
-0.0178077649325132
-0.0159466117620468
-0.013822047971189
-0.0114791532978415
-0.0089675961062312
-0.0063345469534397
-0.0036314409226179
-0.0009185755625367
0.0017432644963264
0.0043048840016126
0.006732415407896
0.0090023158118128
0.011097059585154
0.0130079798400402
0.0147391445934772
0.0163046196103096
0.0177228637039661
0.0190132725983858
0.0201940275728702
0.0212830305099487
0.0223015360534191
0.0232701897621154
0.024195684120059
0.025063993409276
0.0258484221994876
0.0265231076627969
0.027072038501501
0.0274916067719459
0.0277900882065296
0.0279857441782951
0.0281010121107101
0.0281543862074613
0.0281556155532598
0.028103208169341
0.0279770251363515
0.0277254097163677
0.0272553879767656
0.0264289285987615
0.0250679217278957
0.0229794587939977
0.0200002752244472
0.0160405039787292
0.011111750267446
0.0053357072174549
-0.0010680565610527
-0.0078119970858097
-0.0145795373246073
-0.0210647583007812
-0.0270056258887052
-0.0322052836418151
-0.0365403369069099
-0.0399573519825935
-0.042458564043045
-0.044085931032896
-0.04491513594985
-0.0450533181428909
-0.0446295030415058
-0.0437802672386169
-0.0426360256969928
-0.0413094907999038
-0.0398878939449787
-0.0384278036653995
-0.0369517244398593
-0.0354496203362941
-0.0338882096111774
-0.0322245880961418
-0.0304174199700355
-0.0284312814474105
-0.0262331776320934
-0.0237937159836292
-0.0211028661578893
-0.0181826874613761
-0.0150819364935159
-0.0118627939373254
-0.0085894530639052
-0.0053178649395704
-0.0020876443013548
0.0010793339461088
0.0041730618104338
0.0071870312094688
0.0101118311285972
0.0129335988312959
0.0156378392130136
0.0182162579149007
0.0206710696220397
0.0230070687830448
0.0252150781452655
0.0272683203220367
0.0291359014809131
0.0307961236685514
0.0322417095303535
0.0334792919456958
0.0345246419310569
0.035396259278059
0.0361125096678733
0.0366928726434707
0.0371570214629173
0.0375218018889427
0.0378012023866176
0.0380096770823001
0.0381662063300609
0.0382890924811363
0.0383784063160419
0.0384069457650184
0.0383330471813678
0.0381200052797794
0.0377442613244056
0.0371920056641101
0.0364513806998729
0.0354999788105487
0.0342887490987777
0.032731220126152
0.0307048931717872
0.0280687101185321
0.0246953014284372
0.0205092821270227
0.0155194513499736
0.0098268985748291
0.0036025457084178
-0.0029445178806781
-0.0095893703401088
-0.0161076709628105
-0.0222915690392255
-0.027965061366558
-0.032995656132698
-0.0372974090278148
-0.040826566517353
-0.0435748659074306
-0.0455626063048839
-0.0468349009752273
-0.0474622212350368
-0.0475347116589546
-0.0471458360552787
-0.0463833585381507
-0.0453375689685344
-0.0441062413156032
-0.0427808314561843
-0.0414274558424949
-0.0400785878300666
-0.0387343578040599
-0.0373666509985923
-0.0359255671501159
-0.0343517214059829
-0.0325922966003418
-0.0306119080632925
-0.0283923707902431
-0.0259276814758777
-0.0232218466699123
-0.0202872864902019
-0.0171470567584037
-0.013844515196979
-0.0104471296072006
-0.0070367376320064
-0.0036957771517336
-0.0004954395117238
0.0025126435793936
0.0052981614135205
0.0078496588394045
0.0101721007376909
0.0122830485925078
0.014205458573997
0.0159612465649843
0.0175709407776594
0.0190597474575042
0.0204641018062829
0.021825797855854
0.023172790184617
0.0245068054646253
0.0258079245686531
0.0270470008254051
0.028194922953844
0.0292251873761415
0.0301152672618627
0.0308493431657552
0.0314182564616203
0.0318171828985214
0.0320459529757499
0.0321124829351902
0.0320319756865501
0.0318209007382392
0.0314916372299194
0.0310402885079383
0.0304231196641922
0.0295422077178955
0.0282548479735851
0.0263991206884384
0.0238279141485691
0.0204460173845291
0.0162373781204223
0.0112731978297233
0.0057050082832574
-0.0002522189170122
-0.0063460292294621
-0.0123169012367725
-0.0179262142628431
-0.0229750834405422
-0.0273113064467906
-0.0308344587683677
-0.033506479114294
-0.0353540852665901
-0.0364527031779289
-0.0369028821587562
-0.0368137434124946
-0.0362970046699047
-0.0354636013507843
-0.0344157665967941
-0.0332381054759025
-0.0319935269653797
-0.0307236537337303
-0.0294494647532701
-0.0281709246337413
-0.0268663428723812
-0.0254936404526233
-0.02400110848248
-0.02234748005867
-0.0205159559845924
-0.018512487411499
-0.0163558162748813
-0.0140690617263317
-0.0116762500256299
-0.0092043820768594
-0.0066858609206974
-0.0041556903161108
-0.0016454209107905
0.0008213146938942
0.0032284178305417
0.0055635431781411
0.0078171901404857
0.0099864648655056
0.01207269821316
0.014068673364818
0.0159533526748418
0.0177014134824275
0.0192924253642559
0.0207125134766101
0.0219526551663875
0.0230073649436235
0.0238757655024528
0.0245653130114078
0.0250950548797845
0.0254930984228849
0.025789838284254
0.0260133296251297
0.0261909905821084
0.0263527520000934
0.026522222906351
0.0266993939876556
0.0268557183444499
0.0269470978528261
0.0269317105412483
0.0267817005515098
0.0264874137938022
0.0260537676513195
0.0254906378686428
0.0248080380260944
0.024017684161663
0.0231294240802526
0.0221383515745401
0.0210080165416002
0.0196616575121879
0.0179928373545408
0.0158859360963106
0.01323171146214
0.0099452324211597
0.0059918761253356
0.0014086496084928
-0.0036901105195283
-0.0091238915920257
-0.0146694956347346
-0.0200906433165073
-0.0251677464693784
-0.0297220740467309
-0.0336290709674358
-0.0368188507854938
-0.0392680391669273
-0.040987454354763
-0.0420096553862094
-0.042386956512928
-0.0422000624239444
-0.0415588691830635
-0.0405880957841873
-0.0394100472331047
-0.0381318926811218
-0.0368351452052593
-0.0355686657130718
-0.0343495942652225
-0.0331703200936317
-0.032005950808525
-0.0308208651840686
-0.029574254527688
-0.0282237008213996
-0.0267261900007724
-0.0250379648059606
-0.0231223981827497
-0.0209681615233421
-0.0186006296426057
-0.0160737391561269
-0.0134508125483989
-0.0107908770442008
-0.0081454534083604
-0.0055582178756594
-0.0030612079426646
-0.0006702877581119
0.0016151388408616
0.0038069891743361
0.0059185228310525
0.0079562105238437
0.0099214734509587
0.011817218735814
0.0136471996083855
0.0154070919379591
0.0170790366828441
0.0186367109417915
0.0200547631829977
0.0213160794228315
0.02241619117558
0.0233639348298311
0.0241776071488857
0.0248793344944715
0.0254901051521301
0.026025965809822
0.0264977924525737
0.0269146356731653
0.0272856522351503
0.0276200491935014
0.027924770489335
0.0281958729028701
0.0284102503210306
0.0285294651985168
0.0285144876688718
0.0283392257988452
0.0279920529574155
0.0274667311459779
0.0267491117119789
0.0258011929690837
0.0245506502687931
0.0228986851871013
0.0207443442195653
0.0180120430886745
0.0146777965128421
0.0107906470075249
0.0064718145877122
0.001888102851808
-0.0027774106711149
-0.007344183512032
-0.0116474665701389
-0.0155491922050714
-0.0189458355307579
-0.0217705257236957
-0.0239893943071365
-0.0255981758236885
-0.0266209654510021
-0.0271089524030685
-0.027137316763401
-0.0267975591123104
-0.0261854864656925
-0.0253893211483955
-0.0244842432439327
-0.0235342346131801
-0.0225921589881181
-0.0216944180428981
-0.0208552777767181
-0.0200640503317117
-0.0192880015820264
-0.018481470644474
-0.0175960380584001
-0.0165881272405385
-0.0154253914952278
-0.0140928048640489
-0.0125952959060668
-0.0109547525644302
-0.0092016365379095
-0.0073643643409013
-0.0054674120619893
-0.0035403668880462
-0.001623326446861
0.0002377326600253
0.0020004592370241
0.0036361333914101
0.0051352400332689
0.0065052136778831
0.0077631324529647
0.0089293457567691
0.0100232232362031
0.0110589265823364
0.0120431259274482
0.0129764582961797
0.0138578992336988
0.0146907279267907
0.015482073649764
0.0162321738898754
0.0169278755784034
0.0175497438758611
0.0180818904191255
0.0185149312019348
0.0188444312661886
0.0190694220364093
0.019192311912775
0.0192196182906627
0.0191622376441955
0.0190337635576725
0.0188482329249382
0.0186204984784126
0.0183683317154645
0.0181089900434017
0.0178406983613967
0.0175146982073783
0.0170221608132123
0.0162092093378305
0.0149085596203804
0.012973440811038
0.0103091401979327
0.0068974797613918
0.002806132659316
-0.0018203011713922
-0.0067824670113623
-0.0118536427617073
-0.016805937513709
-0.0214317627251148
-0.025558978319168
-0.029059724882245
-0.0318576619029045
-0.0339347720146179
-0.0353279337286949
-0.0361123494803905
-0.036380972713232
-0.0362264066934585
-0.0357294753193855
-0.0349562317132949
-0.0339613705873489
-0.0327952541410923
-0.0315060354769229
-0.0301323048770427
-0.0286969672888517
-0.0272075422108173
-0.0256555043160915
-0.0240160450339317
-0.0222584046423435
-0.0203643944114446
-0.0183389112353324
-0.0162050202488899
-0.0139928003773093
-0.01173085719347
-0.0094400104135274
-0.007130354642868
-0.0048041101545095
-0.0024599898606538
-9.64496284723282e-05
0.0022837966680526
0.0046701654791831
0.0070457775145769
0.0093930782750248
0.0117012681439518
0.0139693086966872
0.0161992087960243
0.0183906257152557
0.0205458775162696
0.0226762779057025
0.0248007830232381
0.0269367005676031
0.0290866959840059
0.0312279313802719
0.0333081819117069
0.03525260835886
0.0369775332510471
0.0384026803076267
0.0394610501825809
0.0401112735271453
0.0403491631150245
0.0402042493224144
0.0397186875343322
0.0389292910695076
0.0378679856657981
0.0365722551941871
0.0350907295942306
0.0334805063903331
0.0318017527461051
0.0301127303391695
0.0284644234925508
0.0268940366804599
0.0254173055291175
0.0240204073488712
0.022651208564639
0.0212147645652294
0.0195833928883075
0.0176151301711797
0.0151678640395402
0.0121160121634602
0.0083771217614412
0.003939441870898
-0.0011223489418625
-0.0066510522738099
-0.0124286999925971
-0.0182074755430221
-0.0237424373626709
-0.0288193114101886
-0.0332716070115566
-0.0369897857308387
-0.0399236567318439
-0.0420712679624557
-0.0434599183499813
-0.0441377609968185
-0.0441804751753807
-0.0436952784657478
-0.0428083799779415
-0.0416442081332206
-0.0403104946017265
-0.0388914868235588
-0.0374457389116287
-0.0360075421631336
-0.0345896370708942
-0.0331836231052875
-0.0317617245018482
-0.0302825961261987
-0.0286979358643293
-0.0269591361284255
-0.0250229891389608
-0.0228583812713623
-0.020458098500967
-0.0178461670875549
-0.0150720663368701
-0.0121991196647286
-0.0092939268797636
-0.006416916847229
-0.003615790978074
-0.0009237006306648
0.0016390904784202
0.0040621692314744
0.006343918852508
0.0084926048293709
0.0105252154171466
0.0124663673341274
0.0143485255539417
0.0162008348852396
0.0180274210870265
0.0198008716106414
0.0214786231517791
0.0230220444500446
0.0244049057364463
0.0256146639585495
0.0266531165689229
0.0275368019938468
0.0282929129898548
0.0289503298699855
0.029533389955759
0.0300627797842025
0.0305548403412103
0.0310179982334375
0.0314561501145362
0.0318711996078491
0.0322531834244728
0.032573077827692
0.0327918976545333
0.0328741185367107
0.032793078571558
0.0325269699096679
0.0320438891649246
0.0312797278165817
0.0301251336932182
0.0284354798495769
0.0260605867952108
0.0228815469890832
0.0188422370702028
0.0139680374413728
0.0083725657314062
0.0022485698573291
-0.0041628438048064
-0.010610794648528
-0.0168625675141811
-0.0227197352796793
-0.0280275344848632
-0.0326771661639213
-0.0366019010543823
-0.0397721715271472
-0.0421900935471057
-0.0438808314502239
-0.0448852106928825
-0.0452580600976944
-0.0450692772865295
-0.0444009825587272
-0.0433368124067783
-0.0419525764882564
-0.0403194315731525
-0.0385100394487381
-0.0365945287048816
-0.0346308499574661
-0.0326573848724365
-0.0306879468262195
-0.0287102982401847
-0.0266923531889915
-0.024594061076641
-0.0223771706223487
-0.0200096946209669
-0.0174685213714838
-0.0147433131933212
-0.0118378680199384
-0.0087655913084745
-0.0055492352694272
-0.0022309552878141
0.0011220313608646
0.004427395761013
0.0076063871383666
0.010601207613945
0.0133847026154398
0.0159584730863571
0.0183424316346645
0.0205634832382202
0.0226463358849287
0.0246063340455293
0.0264472514390945
0.0281641967594623
0.0297505110502243
0.0312086082994937
0.0325520858168602
0.0337915308773517
0.0349226854741573
0.0359304472804069
0.0367987230420112
0.0375133343040943
0.0380598902702331
0.0384279713034629
0.0386194474995136
0.0386489704251289
0.0385369509458541
0.0383038036525249
0.0379690937697887
0.0375524833798408
0.0370748825371265
0.0365598127245903
0.0360276736319065
0.0354809835553169
0.034894160926342
0.0342135801911354
0.0333579033613204
0.0322137251496315
0.0306354686617851
0.028458958491683
0.025526974350214
0.0217196159064769
0.0169832929968833
0.0113524803891778
0.0049567697569727
-0.0019922545179724
-0.0092292493209242
-0.0164644327014684
-0.023413123562932
-0.0298316869884729
-0.0355456285178661
-0.0404550693929195
-0.0445232987403869
-0.0477584227919578
-0.0501953810453414
-0.0518834814429283
-0.0528809055685997
-0.0532558485865592
-0.0530897602438926
-0.0524752214550972
-0.0515082217752933
-0.0502810850739479
-0.0488734394311904
-0.0473385751247406
-0.0456997454166412
-0.0439636260271072
-0.0421347580850124
-0.0402179658412933
-0.0382131412625312
-0.0361120179295539
-0.0339002162218093
-0.0315619558095932
-0.029085149988532
-0.0264660213142633
-0.0237109195441007
-0.0208336748182773
-0.0178511496633291
-0.0147807728499174
-0.0116396965458989
-0.0084426719695329
-0.0052041336894035
-0.0019483072683215
0.0012864889577031
0.0044556371867656
0.0075160861015319
0.0104300128296017
0.0131685091182589
0.0157144218683242
0.0180626977235078
0.0202191397547721
0.0221978574991226
0.0240171402692794
0.0256941244006156
0.0272422097623348
0.0286755580455064
0.030013907700777
0.0312757529318332
0.0324637256562709
0.0335597731173038
0.0345360338687896
0.0353685989975929
0.0360423810780048
0.0365488305687904
0.0368839129805564
0.0370444729924202
0.0370141305029392
0.0367416888475418
0.0361267961561679
0.0350231043994426
0.0332610495388507
0.0306877698749303
0.0272114556282758
0.0228266939520835
0.0176127329468727
0.0117214238271117
0.005365015938878
-0.0012022540904581
-0.0077110393904149
-0.0139058399945497
-0.0195694658905267
-0.024538867175579
-0.0287097040563821
-0.032030738890171
-0.0344927832484245
-0.0361193343997001
-0.0369628854095935
-0.0371004790067672
-0.0366228893399238
-0.0356290191411972
-0.034233309328556
-0.0325668044388294
-0.0307582113891839
-0.0289114043116569
-0.0270953644067049
-0.0253441594541072
-0.0236594956368207
-0.0220147371292114
-0.0203626696020364
-0.0186456255614757
-0.0168066695332527
-0.0148008335381746
-0.0126031702384352
-0.0102102821692824
-0.0076335212215781
-0.0048922682181
-0.0020167380571365
0.0009474894031882
0.0039433510974049
0.0069128451868891
0.009806677699089
0.01258793938905
0.0152310505509376
0.01771866902709
0.020039290189743
0.0221861395984888
0.0241549611091613
0.0259436834603548
0.0275567676872015
0.0290093012154102
0.0303260944783687
0.031532809138298
0.0326411426067352
0.0336407348513603
0.034506507217884
0.03521279245615
0.0357407107949256
0.0360783860087394
0.0362223535776138
0.0361813344061374
0.0359770581126213
0.0356404520571231
0.0352043583989143
0.0346950627863407
0.0341278910636901
0.0335093289613723
0.0328415483236312
0.032120581716299
0.0313282087445259
0.0304325465112924
0.0294000506401062
0.0282031334936618
0.0268151517957448
0.0251964628696441
0.0232783481478691
0.020955866202712
0.0180987901985645
0.0145772062242031
0.0102917030453681
0.0051993820816278
-0.0006683021783828
-0.007195359095931
-0.0141845401376485
-0.0213834643363952
-0.0285270847380161
-0.0353736281394958
-0.0417211055755615
-0.0474127605557441
-0.0523399524390697
-0.0564385950565338
-0.0596792921423912
-0.0620594285428524
-0.0635990351438522
-0.0643393397331237
-0.0643439441919326
-0.0636980459094047
-0.0625029429793357
-0.0608659423887729
-0.0588863417506217
-0.0566471442580223
-0.0542191043496131
-0.0516651794314384
-0.0490362122654914
-0.0463647171854972
-0.0436623618006706
-0.0409215800464153
-0.0381205789744854
-0.0352303087711334
-0.0322223529219627
-0.0290767662227153
-0.0257877614349126
-0.0223641898483037
-0.0188256371766328
-0.0151978507637977
-0.0115069793537259
-0.0077779875136911
-0.0040433565154671
-0.0003496585413813
0.0032489681616425
0.006702512037009
0.0099733565002679
0.0130394138395786
0.0158926174044609
0.0185354761779308
0.0209782682359218
0.02323654666543
0.0253281593322753
0.0272710770368576
0.0290822386741638
0.0307775773108005
0.0323738977313041
0.033885721117258
0.0353130623698234
0.0366336181759834
0.03781109303236
0.0388116538524627
0.0396144203841686
0.040214005857706
0.0406208746135234
0.0408589877188205
0.0409585274755954
0.0409480966627597
0.0408488847315311
0.0406693741679191
0.0404036901891231
0.0400381125509738
0.0395573079586029
0.0389319509267807
0.038089171051979
0.0368955396115779
0.0351729616522789
0.0327362269163131
0.0294335894286632
0.0251825377345085
0.0199954099953174
0.0139869870617985
0.0073616243898868
0.0003866665065288
-0.006639908067882
-0.0134233888238668
-0.0197032783180475
-0.0252742953598499
-0.029992688447237
-0.0337757989764213
-0.0366043299436569
-0.0385193973779678
-0.0396066606044769
-0.0399768725037574
-0.0397539995610713
-0.0390692986547946
-0.0380539000034332
-0.0368281975388526
-0.035491120070219
-0.0341130495071411
-0.0327333658933639
-0.031361561268568
-0.0299821086227893
-0.0285607501864433
-0.0270504374057054
-0.0254018679261207
-0.0235787369310855
-0.0215667188167572
-0.0193708520382642
-0.0170078482478857
-0.0145009569823741
-0.0118799852207303
-0.0091825062409043
-0.0064505580812692
-0.0037233508192002
-0.0010325778275728
0.0015965069178491
0.0041423663496971
0.0065865665674209
0.0089172655716538
0.0111364219337701
0.0132592786103487
0.0152981989085674
0.0172465108335018
0.0190794337540864
0.0207678880542516
0.0222928877919912
0.023652084171772
0.0248548742383718
0.0259119346737861
0.0268289688974618
0.0276066120713949
0.0282450225204229
0.0287516415119171
0.0291442442685365
0.0294466372579336
0.0296851769089698
0.0298839695751667
0.0300524570047855
0.0301756039261817
0.0302173364907503
0.0301355496048927
0.029899425804615
0.029497317969799
0.0289316941052675
0.0282050762325525
0.0273016467690467
0.0261708758771419
0.0247196704149246
0.0228176265954971
0.0203162487596273
0.0170817282050848
0.0130349118262529
0.0081757232546806
0.0025794617831707
-0.0036160890012979
-0.0102193225175142
-0.0169980898499488
-0.0237011834979057
-0.0300827734172344
-0.0359261333942413
-0.0410620272159576
-0.0453776940703392
-0.0488156862556934
-0.0513643622398376
-0.0530473142862319
-0.0539168044924736
-0.0540443509817123
-0.0535057261586189
-0.0523726530373096
-0.0507155582308769
-0.0486050806939601
-0.0461066737771034
-0.0432769730687141
-0.0401686429977417
-0.036839835345745
-0.0333599187433719
-0.0298066064715385
-0.0262590944766998
-0.0227931924164295
-0.0194767769426107
-0.0163663383573293
-0.0135069172829389
-0.0109295342117547
-0.0086461622267961
-0.0066553228534758
-0.0049573751166462
-0.0035584541037678
-0.0024581723846495
-0.0016377251595258
-0.0010572494938969
-0.0006592357531189
-0.0003746803849935
-0.0001296922564506
0.0001486558467149
0.0005251001566648
0.0010486636310815
0.0017508072778582
0.0026493482291698
0.0037544937804341
0.0050744693726301
0.006613491103053
0.0083626899868249
0.0102980034425854
0.0123888636007905
0.0146087119355797
0.0169426351785659
0.019392242655158
0.0219775754958391
0.0247346498072147
0.0277052968740463
0.0309204310178756
0.0343841388821601
0.0380631759762764
0.0418870598077774
0.0457664765417575
0.0496241375803947
0.0534151569008827
0.0571225583553314
0.0607392638921737
0.0642558261752128
0.0676539093255996
0.0708901137113571
0.0738701522350311
0.0764347687363624
0.0783724784851074
0.0794500038027763
0.0794417709112167
0.0781510919332504
0.0754267126321792
0.0711778700351715
0.0653888657689094
0.0581327378749847
0.049572430551052
0.0399394556879997
0.0295027866959571
0.0185452178120613
0.0073492415249347
-0.0038115568459033
-0.0146799143403768
-0.0250242613255977
-0.034647848457098
-0.0433954261243343
-0.0511578433215618
-0.0578740760684013
-0.0635303184390068
-0.0681544318795204
-0.0718035101890564
-0.074549525976181
-0.0764750391244888
-0.0776800364255905
-0.0782821401953697
-0.0783994644880294
-0.0781274288892746
-0.0775247514247894
-0.0766141563653945
-0.0753946304321289
-0.0738556832075119
-0.0719850361347198
-0.0697710886597633
-0.0672058463096618
-0.0642905533313751
-0.0610397085547447
-0.0574743896722793
-0.0536084771156311
-0.0494459755718708
-0.0449940636754035
-0.0402763783931732
-0.0353368520736694
-0.0302378125488758
-0.0250538624823093
-0.0198626611381769
-0.0147399771958589
-0.0097601767629385
-0.0049955933354794
-0.000512080732733
0.0036372176837176
0.007416985463351
0.010812621563673
0.013834630139172
0.0165242087095975
0.018947061151266
0.0211722012609243
0.0232549272477626
0.0252343602478504
0.0271356180310249
0.0289685502648353
0.0307229440659284
0.032364685088396
0.033841386437416
0.0350969806313514
0.0360818579792976
0.0367502570152282
0.0370484367012977
0.0369022041559219
0.0362160466611385
0.0348883420228958
0.0328281000256538
0.0299640521407127
0.026258248835802
0.0217282306402921
0.0164626762270927
0.010620679706335
0.0044187577441334
-0.0018878364935517
-0.0080299507826566
-0.0137555319815874
-0.0188544169068336
-0.0231651850044727
-0.0265715904533863
-0.0290032587945461
-0.0304386243224143
-0.0309005081653594
-0.0304521452635526
-0.0292024482041597
-0.027306830510497
-0.0249507836997509
-0.022323740646243
-0.0195970516651868
-0.0169099047780036
-0.014357192441821
-0.0119805708527565
-0.0097726583480834
-0.0076929926872253
-0.0056833755224943
-0.0036781691014766
-0.0016137156635522
0.0005645770579576
0.0029007587581872
0.0054226927459239
0.00812653824687
0.0109688900411129
0.0138794519007205
0.0167831182479858
0.0196179784834384
0.0223446190357208
0.0249455384910106
0.0274191312491893
0.0297743286937475
0.0320248901844024
0.0341819860041141
0.0362472049891948
0.0382078699767589
0.0400401949882507
0.0417205765843391
0.0432284846901893
0.0445336960256099
0.0455852188169956
0.0463092103600502
0.0466060563921928
0.046349361538887
0.0453981906175613
0.0436209850013256
0.0409211628139019
0.0372585654258728
0.0326644480228424
0.0272460915148258
0.0211772602051496
0.0146775636821985
0.0079907150939106
0.0013671214692294
-0.0049556442536413
-0.0107772527262568
-0.01595164462924
-0.0203872025012969
-0.0240377280861139
-0.0268939360976219
-0.0289767570793628
-0.0303334705531597
-0.031034979969263
-0.0311687644571065
-0.0308284405618906
-0.0301046669483184
-0.0290787369012832
-0.0278201885521411
-0.026383951306343
-0.0248012822121381
-0.023078765720129
-0.0212162770330905
-0.019223790615797
-0.0171208027750253
-0.0149279991164803
-0.0126636428758502
-0.0103445760905742
-0.0079876631498336
-0.0056106625124812
-0.0032307943329215
-0.0008614314720034
0.0014891205355525
0.0038166139274835
0.006120279431343
0.0084041412919759
0.0106794768944382
0.012959536164999
0.015240422450006
0.017486173659563
0.0196379125118255
0.0216370355337858
0.0234412662684917
0.0250293835997581
0.0264012329280376
0.027574174106121
0.0285746045410633
0.0294302962720394
0.0301677342504262
0.0308084283024072
0.0313573442399501
0.0317844897508621
0.032009083777666
0.0318952947854995
0.0312623269855976
0.0299101024866104
0.0276574566960334
0.0243820883333683
0.0200502481311559
0.0147299813106656
0.0085883764550089
0.0018755132332444
-0.0051041436381638
-0.0120306462049484
-0.0186073780059814
-0.0245876386761665
-0.0297859348356723
-0.0340761318802833
-0.0373822748661041
-0.0396768227219581
-0.0409909635782241
-0.0414176546037197
-0.0410955622792243
-0.040186159312725
-0.038854144513607
-0.0372504852712154
-0.0354981943964958
-0.0336838886141777
-0.0318575911223888
-0.0300384908914566
-0.0282206833362579
-0.0263776294887065
-0.0244688931852579
-0.0224480181932449
-0.0202671159058809
-0.0178851913660764
-0.0152842635288834
-0.0124763436615467
-0.0094953812658786
-0.0063881361857056
-0.003205842571333
6.225425750017166e-06
0.0032139802351593
0.0063906316645443
0.0095091070979833
0.0125355571508407
0.0154263647273182
0.0181330423802137
0.020612558349967
0.0228358693420887
0.0247937180101871
0.0264949928969144
0.0279539488255977
0.0291800778359174
0.030181685462594
0.0309749897569417
0.0315887592732906
0.0320618078112602
0.0324350371956825
0.0327435620129108
0.0330127216875553
0.0332566611468791
0.0334778800606727
0.033666368573904
0.0337988175451755
0.0338407158851623
0.0337481126189231
0.0334584973752498
0.0328713171184062
0.0318393148481845
0.0301865115761756
0.0277435183525085
0.024385031312704
0.020063953474164
0.0148320104926824
0.00883000344038
0.0022497065365314
-0.0047111324965953
-0.0118816047906875
-0.0191261321306228
-0.0263295285403728
-0.0333728604018688
-0.040115438401699
-0.046396180987358
-0.0520528778433799
-0.0569374039769172
-0.0609167292714118
-0.0638701394200325
-0.0656913965940475
-0.0662994012236595
-0.0656577497720718
-0.0637936294078826
-0.0608077049255371
-0.0568792149424552
-0.0522664152085781
-0.0472882203757762
-0.0422810204327106
-0.0375423580408096
-0.0332799479365348
-0.0295867025852203
-0.0264494102448225
-0.0237748604267835
-0.0214163102209568
-0.0191973838955163
-0.0169344935566186
-0.0144594106823205
-0.0116429291665554
-0.0084131024777889
-0.0047617764212191
-0.0007419316098093
0.0035435105673968
0.0079659149050712
0.0124020185321569
0.0167580097913742
0.0209806691855192
0.0250516086816787
0.0289659909904003
0.0327132977545261
0.0362729243934154
0.0396196879446506
0.0427340157330036
0.0456150397658348
0.0482851974666118
0.0507716573774814
0.0530688129365444
0.0551019459962844
0.0567077063024044
0.0576385743916034
0.0575921051204204
0.0562629550695419
0.0534104481339454
0.0489158183336257
0.0428037270903587
0.0352383404970169
0.026515120640397
0.017045184969902
0.0073230285197496
