bvp
-0.0132847018539905
-0.0120588690042495
-0.0110222706571221
-0.0101373242214322
-0.0093433558940887
-0.0085671013221144
-0.0077277980744838
-0.0067405067384243
-0.0055309822782874
-0.0040595270693302
-0.0023332787677645
-0.0003986144438385
0.0016738725826144
0.003802889958024
0.0059092994779348
0.0079259276390075
0.0098019046708941
0.0115055851638317
0.0130265913903713
0.0143732354044914
0.0155651047825813
0.0166254974901676
0.0175806358456611
0.0184618607163429
0.0192971341311931
0.0200946629047393
0.0208385698497295
0.0215006936341524
0.0220529865473508
0.0224735178053379
0.0227500945329666
0.0228819884359836
0.0228793770074844
0.0227611809968948
0.0225512869656085
0.0222751777619123
0.0219588596373796
0.021626828238368
0.0212965551763772
0.0209724865853786
0.0206322818994522
0.0201996434479951
0.0195271633565425
0.0184122323989868
0.0166372768580913
0.0140143474563956
0.0104250591248273
0.0058512538671493
0.000387355685234
-0.0057709859684109
-0.0123555604368448
-0.0190604794770479
-0.0255776681005954
-0.0316293835639953
-0.0369912013411521
-0.0415018498897552
-0.0450668558478355
-0.0476622357964515
-0.0493301637470722
-0.0501617938280105
-0.0502755641937255
-0.0497993156313896
-0.0488584637641906
-0.0475671291351318
-0.0460219793021678
-0.0443050339818
-0.0424904078245162
-0.0406400263309478
-0.0387909524142742
-0.0369496382772922
-0.0350931212306022
-0.0331710427999496
-0.0311164464801549
-0.0288689229637384
-0.0263949930667877
-0.0236944630742073
-0.0207947380840778
-0.0177382864058017
-0.0145706459879875
-0.0113357715308666
-0.0080766957253217
-0.0048339683562517
-0.0016422355547547
0.0014702938497066
0.0044809933751821
0.0073727359995245
0.0101367169991135
0.0127785149961709
0.015315044671297
0.0177558548748493
0.0200883354991674
0.022283649072051
0.024313174188137
0.0261587984859943
0.0278138760477304
0.0292812176048755
0.0305718388408422
0.0317025333642959
0.0326920486986637
0.0335578918457031
0.0343129709362983
0.0349642299115657
0.035519078373909
0.0359939597547054
0.0364097692072391
0.0367744863033294
0.0370718836784362
0.0372652970254421
0.0373054929077625
0.0371305271983146
0.0366562753915786
0.035767201334238
0.0343221351504325
0.0321795977652072
0.0292313601821661
0.0254313629120588
0.0208142604678869
0.0155000444501638
0.009684887714684
0.0036208450328558
-0.002418388146907
-0.0081794615834951
-0.0134580992162227
-0.018108082935214
-0.0220411475747823
-0.0252224132418632
-0.0276607554405927
-0.0293949097394943
-0.030478335916996
-0.0309700686484575
-0.030935350805521
-0.0304503999650478
-0.029603848233819
-0.0284917764365673
-0.027205316349864
-0.0258153155446052
-0.024367369711399
-0.0228908471763134
-0.0214072037488222
-0.0199294220656156
-0.0184587650001049
-0.0169835295528173
-0.0154795497655868
-0.013913650996983
-0.0122513240203261
-0.0104633988812565
-0.0085290214046835
-0.0064406730234622
-0.0042109233327209
-0.0018740273080766
0.0005228971131145
0.0029366316739469
0.0053343004547059
0.0076812813058495
0.0099324584007263
0.0120417829602956
0.0139752756804227
0.0157124493271112
0.0172429159283638
0.0185673534870147
0.0196987763047218
0.0206591468304395
0.0214721634984016
0.0221582055091857
0.0227358285337686
0.0232231207191944
0.023637430742383
0.0240012519061565
0.0243433732539415
0.0246821548789739
0.0250086169689893
0.0252875704318285
0.0254683680832386
0.0254903081804513
0.025278303772211
0.0247368402779102
0.0237527042627334
0.0222083032131195
0.0200032480061054
0.0170800983905792
0.0134440660476684
0.009170114994049
0.0044021923094987
-0.0006534662097692
-0.0057523138821125
-0.0106556117534637
-0.0151702119037508
-0.0191611014306545
-0.0225442368537187
-0.0252769887447357
-0.0273504257202148
-0.0287816002964973
-0.0296070873737335
-0.0298810601234436
-0.0296770930290222
-0.0290863830596208
-0.0282081831246614
-0.0271375738084316
-0.0259553175419569
-0.024718303233385
-0.0234552547335624
-0.022175844758749
-0.0208842232823371
-0.0195831470191478
-0.0182714313268661
-0.0169409103691577
-0.0155744021758437
-0.0141488872468471
-0.0126430466771125
-0.0110418088734149
-0.0093373106792569
-0.0075300098396837
-0.0056288070045411
-0.0036493192892521
-0.001611219253391
0.000465135090053
0.002555233426392
0.0046182093210518
0.0065937950275838
0.0084163956344127
0.01003223285079
0.0114097278565168
0.0125426203012466
0.013446370139718
0.0141508225351572
0.0146938823163509
0.0151176489889621
0.0154644334688782
0.0157712642103433
0.0160657707601785
0.0163679420948028
0.016695262864232
0.0170608535408973
0.0174619071185588
0.0178695917129516
0.0182325281202793
0.0184939466416835
0.0186096671968698
0.0185568016022443
0.0183355417102575
0.0179660953581333
0.0174797642976045
0.0169095434248447
0.0162850134074687
0.0156302209943532
0.0149587485939264
0.0142624415457248
0.0135011747479438
0.0125962905585765
0.0114260725677013
0.0098368525505065
0.0076783280819654
0.004846952855587
0.001315638422966
-0.002856696024537
-0.0075306259095668
-0.0125048663467168
-0.0175465457141399
-0.022422470152378
-0.0269219800829887
-0.0308743305504322
-0.0341635681688785
-0.0367327257990837
-0.0385718718171119
-0.0397038832306861
-0.0401827916502952
-0.0400953590869903
-0.039552018046379
-0.0386717766523361
-0.0375686883926391
-0.0363401509821414
-0.0350586250424385
-0.0337695777416229
-0.0324935764074325
-0.0312276631593704
-0.0299453474581241
-0.0286036394536495
-0.0271584019064903
-0.0255723148584365
-0.0238112434744834
-0.0218468885868787
-0.0196718201041221
-0.017310120165348
-0.0148121444508433
-0.0122399078682065
-0.0096544735133647
-0.0071089309640228
-0.0046432595700025
-0.0022827035281807
-4.342454485595226e-05
0.002063093939796
0.0040334612131118
0.0058754594065248
0.0076068118214607
0.0092541966587305
0.0108492709696292
0.0124147571623325
0.0139489574357867
0.0154249332845211
0.0168045163154602
0.0180540420114994
0.019152857363224
0.0200948696583509
0.0208871066570281
0.0215470436960458
0.0220981240272521
0.0225637201219797
0.0229619666934013
0.0233029890805482
0.0235889572650194
0.0238191913813352
0.0239997077733278
0.0241453666239976
0.0242669098079204
0.0243586283177137
0.0244002658873796
0.0243666805326938
0.0242384485900402
0.0240081436932086
0.0236778482794761
0.0232547912746667
0.0227507390081882
0.0221774894744157
0.0215325634926557
0.0207838993519544
0.0198641940951347
0.0186783336102962
0.0171253476291894
0.0151239037513732
0.012625552713871
0.0096223838627338
0.0061576762236654
0.0023274179548025
-0.001733009237796
-0.0058653643354773
-0.0099034858867526
-0.0136890932917594
-0.0170842856168746
-0.0199785530567169
-0.0222936980426311
-0.0239852126687765
-0.0250406712293624
-0.0254791714251041
-0.0253490656614303
-0.0247260350733995
-0.0237155091017484
-0.0224490351974964
-0.0210683457553386
-0.0197036452591419
-0.0184533335268497
-0.0173722226172685
-0.0164710227400064
-0.0157231111079454
-0.0150747951120138
-0.0144575526937842
-0.0137992277741432
-0.0130324997007846
-0.0121029485017061
-0.0109739052131772
-0.0096252895891666
-0.0080567747354507
-0.006298501510173
-0.004414380993694
-0.0024903216399252
-0.0006149378605186
0.0011377907358109
0.0027204353827983
0.00411659758538
0.0053349840454757
0.0063997185789048
0.0073456699028611
0.0082147885113954
0.0090481285005807
0.0098776658996939
0.0107247279956936
0.0116032250225543
0.0125154387205839
0.013440259732306
0.0143321799114346
0.0151365669444203
0.0158071294426918
0.0163154080510139
0.0166531912982463
0.0168312788009643
0.0168757177889347
0.0168211087584495
0.0167026445269584
0.0165501367300748
0.0163850151002407
0.0162190459668636
0.0160562116652727
0.0158995687961578
0.0157534666359424
0.0156129607930779
0.0154520962387323
0.0152212660759687
0.0148489084094762
0.0142441252246499
0.0133031383156776
0.011922400444746
0.0100181195884943
0.0075476202182471
0.0045234174467623
0.0010156347416341
-0.0028522252105176
-0.006912640761584
-0.010970614850521
-0.0148246027529239
-0.0182932410389184
-0.0212453324347734
-0.0236157719045877
-0.0253999959677457
-0.0266362763941288
-0.0273841004818677
-0.027705056592822
-0.0276536475867033
-0.0272792764008045
-0.0266320947557687
-0.0257666334509849
-0.0247424021363258
-0.0236201025545597
-0.0224537346512079
-0.0212813504040241
-0.0201171748340129
-0.0189542807638645
-0.0177809763699769
-0.0165948420763015
-0.0154019184410572
-0.0142065081745386
-0.0130024589598178
-0.0117718875408172
-0.0104891741648316
-0.0091262627393007
-0.0076584462076425
-0.0060685956850647
-0.0043489532545208
-0.0025032153353095
-0.0005498994141817
0.0014778822660446
0.0035397447645664
0.0055931620299816
0.0075889667496085
0.0094690294936299
0.0111772315576672
0.0126753263175487
0.013951008208096
0.0150169637054204
0.0159043949097394
0.0166526939719915
0.0172995254397392
0.0178765170276165
0.0184086412191391
0.0189118478447198
0.0193896107375621
0.0198352020233869
0.0202430952340364
0.0206171013414859
0.0209637954831123
0.021282298490405
0.0215610042214393
0.0217795837670564
0.0219172108918428
0.0219628177583217
0.0219160206615924
0.0217803176492452
0.0215601846575737
0.021262040361762
0.0208927113562822
0.0204592514783144
0.0199726410210132
0.0194464493542909
0.0188866574317216
0.0182754341512918
0.0175507310777902
0.0165962297469377
0.0152585599571466
0.0133850397542119
0.010862223803997
0.0076451748609542
0.0037734657526016
-0.0006319750100374
-0.0053898077458143
-0.0102857891470193
-0.0150976777076721
-0.0196164790540933
-0.0236664805561304
-0.027120528742671
-0.0299032311886549
-0.0319874323904514
-0.0333938151597976
-0.0341872572898864
-0.0344624929130077
-0.0343268662691116
-0.0338875316083431
-0.0332411602139472
-0.0324645228683948
-0.0316103249788284
-0.030709421262145
-0.0297736544162035
-0.0287985987961292
-0.0277683530002832
-0.0266595631837844
-0.0254414342343807
-0.0240755658596754
-0.0225267428904771
-0.0207829885184764
-0.0188634172081947
-0.0168066397309303
-0.014655222184956
-0.0124469697475433
-0.0102123562246561
-0.0079745249822735
-0.0057491473853588
-0.0035446863621473
-0.0013645272701978
0.0007901918143033
0.0029179137200117
0.005013134330511
0.0070663560181856
0.0090712290257215
0.0110266469419002
0.0129240052774548
0.0147356148809194
0.0164218321442604
0.0179484374821186
0.0192973148077726
0.0204680301249027
0.021475151181221
0.0223424825817346
0.0230960417538881
0.0237593036144971
0.0243516732007265
0.0248885639011859
0.0253811981528997
0.0258381105959415
0.0262699108570814
0.0266885980963706
0.0270953737199306
0.0274709556251764
0.0277811214327812
0.0279890615493059
0.0280641987919807
0.0279872883111238
0.0277524944394826
0.027365293353796
0.0268326122313737
0.0261435955762863
0.025250831618905
0.0240640994161367
0.0224599577486515
0.0203087478876113
0.0175123494118452
0.0140301026403903
0.0098842959851026
0.0051597412675619
1.4798715710639954e-06
-0.0053961002267897
-0.0108091700822114
-0.016010807827115
-0.020796675235033
-0.025002310052514
-0.0285123102366924
-0.0312630869448185
-0.0332396887242794
-0.0344689488410949
-0.0350112356245517
-0.0349504277110099
-0.034381128847599
-0.0334015861153602
-0.0321181565523147
-0.0306489542126655
-0.0291146878153085
-0.0276194550096988
-0.0262325443327426
-0.0249812472611665
-0.0238552838563919
-0.0228163003921508
-0.0218061953783035
-0.0207532793283462
-0.0195808745920658
-0.0182204917073249
-0.0166246965527534
-0.014773073606193
-0.0126699721440672
-0.0103414598852396
-0.0078365765511989
-0.0052249748259782
-0.0025851614773273
8.996576070785522e-06
0.0024976208806037
0.0048413630574941
0.0070227459073066
0.0090408809483051
0.010905091650784
0.0126307867467403
0.0142363291233778
0.0157403815537691
0.017159879207611
0.0185111947357654
0.0198150593787431
0.0210929680615663
0.0223491564393043
0.0235588178038597
0.0246788524091243
0.0256674662232399
0.0264950636774301
0.0271477848291397
0.0276290941983461
0.0279571171849966
0.0281584113836288
0.0282629877328872
0.028299156576395
0.0282830595970153
0.0282020829617977
0.0279997661709785
0.0275704450905323
0.0267603881657123
0.0253768116235733
0.0232174322009086
0.0201162789016962
0.0159855838865041
0.0108430190011858
0.0048220166936516
-0.0018382235430181
-0.0088226553052663
-0.01578189432621
-0.0223765186965465
-0.0283165331929922
-0.0333876833319664
-0.03746098279953
-0.0404849052429199
-0.0424664504826068
-0.0434605181217193
-0.0435718931257724
-0.0429495722055435
-0.0417683832347393
-0.0402100197970867
-0.0384453684091568
-0.0366150438785553
-0.0348123647272586
-0.0330778434872627
-0.0314083285629749
-0.0297719649970531
-0.0281207896769046
-0.026400476694107
-0.0245575103908777
-0.0225400682538747
-0.0202951375395059
-0.0177782792598009
-0.0149760004132986
-0.0119141526520252
-0.0086454097181558
-0.005233759060502
-0.0017452016472816
0.0017561204731464
0.0052107032388448
0.0085690077394247
0.0117953158915042
0.0148664573207497
0.0177694223821163
0.020499924197793
0.0230612605810165
0.02546794898808
0.0277495775371789
0.0299383793026208
0.0320437029004097
0.0340395905077457
0.0358770191669464
0.037504144012928
0.0388797782361507
0.0399809144437313
0.0408050268888473
0.0413681417703628
0.041702963411808
0.0418560542166233
0.0418802872300148
0.0418241098523139
0.0417227894067764
0.0415961742401123
0.041453942656517
0.041298784315586
0.0411194264888763
0.040883544832468
0.0405419021844863
0.0400413423776626
0.0393373295664787
0.0383951142430305
0.0371750369668006
0.0356098152697086
0.0335885062813758
0.0309597067534923
0.0275569334626197
0.0232355650514364
0.0179069899022579
0.0115660903975367
0.0043118027970194
-0.0036526368930935
-0.0120485983788967
-0.0205635949969291
-0.0288858748972415
-0.0367299243807792
-0.0438584834337234
-0.050099279731512
-0.0553486198186874
-0.0595608651638031
-0.0627336576581001
-0.064898669719696
-0.0661159381270408
-0.0664671659469604
-0.0660496801137924
-0.0649715587496757
-0.0633468925952911
-0.0612942948937416
-0.0589374490082263
-0.056398544460535
-0.0537819638848304
-0.0511565096676349
-0.0485461242496967
-0.0459334589540958
-0.0432719737291336
-0.0404999330639839
-0.0375543050467968
-0.0343830995261669
-0.0309537462890148
-0.0272569432854652
-0.0233063399791717
-0.0191331431269645
-0.0147773288190364
-0.010285023599863
-0.0057164784520864
-0.0011524800211191
0.0033134333789348
0.0075928913429379
0.0116181075572967
0.0153479855507612
0.0187674313783645
0.0218855943530797
0.0247317012399435
0.0273460149765014
0.0297712422907352
0.0320476032793521
0.0342097207903862
0.0362858884036541
0.0382990986108779
0.0402619242668151
0.0421635173261165
0.0439639016985893
0.0456051267683506
0.047030322253704
0.0481997281312942
0.0490970611572265
0.0497258864343166
0.0501050353050231
0.0502667389810085
0.0502511337399482
0.0500966534018516
0.0498327575623989
0.0494771227240562
0.049037616699934
0.0485142916440963
0.0478831492364406
0.0470581017434597
0.0458642467856407
0.0440529100596904
0.0413511544466018
0.0375194251537323
0.0324000269174575
0.0259500797837972
0.0182559788227081
0.0095304567366838
9.388476610183716e-05
-0.0096603743731975
-0.0193123165518045
-0.0284663587808609
-0.0367954894900321
-0.0440626144409179
-0.050124030560255
-0.0549304261803627
-0.0585160069167614
-0.0609689652919769
-0.0624044723808765
-0.0629522874951362
-0.0627497360110282
-0.0619351379573345
-0.0606416016817092
-0.0589904263615608
-0.0570863373577594
-0.0550144426524639
-0.0528366714715957
-0.0505888238549232
-0.0482755675911903
-0.0458647422492504
-0.04329789057374
-0.0405193157494068
-0.037497129291296
-0.0342224650084972
-0.030699772760272
-0.0269420929253101
-0.0229746103286743
-0.0188392363488674
-0.014590379782021
-0.0102852815762162
-0.0059801051393151
-0.0017289659008383
0.0024223485961556
0.0064409645274281
0.0103051979094743
0.0140043115243315
0.0175369959324598
0.0209013633430004
0.0240856185555458
0.0270694624632596
0.0298321321606636
0.0323592089116573
0.0346449427306652
0.0366920866072177
0.0385122299194335
0.0401251092553138
0.0415546521544456
0.0428235419094562
0.0439492128789424
0.0449438206851482
0.0458196885883808
0.0465943031013011
0.0472836904227733
0.0478868596255779
0.0483780354261398
0.0487075895071029
0.048796534538269
0.0485231764614582
0.0477168262004852
0.0461697056889534
0.0436666794121265
0.0400269329547882
0.0351477414369583
0.0290360692888498
0.0218185074627399
0.0137309003621339
0.0050943810492753
-0.0037159342318773
-0.0123106334358453
-0.0203348826617002
-0.0275102481245994
-0.0336526073515415
-0.0386684238910675
-0.0425386503338813
-0.0452985577285289
-0.0470213219523429
-0.0478069745004177
-0.0477749183773994
-0.0470587946474552
-0.0458004176616668
-0.0441410243511199
-0.0422126576304435
-0.0401283539831638
-0.0379699692130088
-0.0357831828296184
-0.0335854552686214
-0.03137693926692
-0.029145173728466
-0.0268661640584468
-0.0245067346841096
-0.0220289453864097
-0.0193964876234531
-0.0165819022804498
-0.0135719450190663
-0.0103701259940862
-0.0069977538660168
-0.0034943013451993
8.51806253194809e-05
0.0036787330172955
0.0072297919541597
0.0106907002627849
0.0140129998326301
0.0171425510197877
0.0200287848711013
0.0226346049457788
0.0249395966529846
0.0269418135285377
0.0286589823663234
0.0301230400800704
0.0313693508505821
0.0324305295944213
0.0333360470831394
0.0341113805770874
0.0347762964665889
0.0353455729782581
0.0358324274420738
0.0362485498189926
0.0365965291857719
0.0368624217808246
0.037018921226263
0.0370375663042068
0.0368981659412384
0.0365879535675048
0.0360975414514541
0.035423170775175
0.0345720723271369
0.0335628986358642
0.0324207246303558
0.031170779839158
0.0298308804631233
0.0283990539610385
0.0268369913101196
0.0250522159039974
0.0228870250284671
0.0201317146420478
0.0165679976344108
0.0120248608291149
0.0064244493842124
-0.0001934804022312
-0.0076692588627338
-0.0157394781708717
-0.0240686945617198
-0.0322923921048641
-0.0400613732635974
-0.0470801405608654
-0.0531338341534137
-0.0580939278006553
-0.0619056224822998
-0.0645769536495208
-0.0661763250827789
-0.0668244957923889
-0.0666757076978683
-0.0658969208598136
-0.0646512731909751
-0.0630859658122062
-0.0613231360912323
-0.0594537481665611
-0.0575358867645263
-0.0555957481265068
-0.0536283925175666
-0.0516016259789466
-0.0494673997163772
-0.0471726655960083
-0.0446619465947151
-0.0418834313750267
-0.0388066284358501
-0.0354361049830913
-0.0318089909851551
-0.02798368409276
-0.024029167369008
-0.0200163703411817
-0.016011219471693
-0.0120701463893055
-0.0082381330430507
-0.0045478385873138
-0.0010198964737355
0.0023337770253419
0.0055064316838979
0.0084978602826595
0.0113192368298769
0.013990412466228
0.0165245719254016
0.0189147349447011
0.0211361143738031
0.0231602601706981
0.0249689780175685
0.0265599600970745
0.0279446728527545
0.0291447006165981
0.0301908589899539
0.0311215575784444
0.0319745615124702
0.0327761881053447
0.0335360132157802
0.03425058349967
0.0349152646958828
0.0355307608842849
0.0360930413007736
0.0365821681916713
0.0369653068482875
0.0372039712965488
0.0372529923915863
0.0370503924787044
0.0365051962435245
0.0354948975145816
0.0338783338665962
0.0315189845860004
0.0283128339797258
0.0242162682116031
0.0192671213299036
0.0135929742828011
0.0074036419391632
0.0009649507701396
-0.0054412018507719
-0.0115537140518426
-0.0171555280685424
-0.0220842100679874
-0.0262326560914516
-0.0295434799045324
-0.0320006683468818
-0.0336222313344478
-0.0344556793570518
-0.0345742776989936
-0.0340731143951416
-0.0330651812255382
-0.0316751450300216
-0.0300257802009582
-0.02821846306324
-0.0263251848518848
-0.024400720372796
-0.0224930457770824
-0.0206371564418077
-0.0188446417450904
-0.0170996338129043
-0.0153624871745705
-0.013580547645688
-0.0117014730349183
-0.0096840662881731
-0.0075050774030387
-0.0051615256816148
-0.0026674757245928
-4.807882942259312e-05
0.0026649525389075
0.0054372074082493
0.0082317860797047
0.0110021755099296
0.0136878862977027
0.016221709549427
0.018542356789112
0.0206061489880085
0.0223955027759075
0.0239191893488168
0.0252048000693321
0.0262899659574031
0.0272134058177471
0.0280056167393922
0.0286842696368694
0.0292561631649732
0.0297254063189029
0.0301059037446975
0.0304232742637395
0.0306978393346071
0.0309285521507263
0.0310944784432649
0.0311643630266189
0.0311044417321681
0.0308867581188678
0.0304965618997812
0.0299340020865201
0.0292117837816476
0.0283522941172122
0.0273847915232181
0.0263410843908786
0.0252505429089069
0.0241394713521003
0.0230278335511684
0.021906005218625
0.0207014568150043
0.019269349053502
0.0174187924712896
0.0149581152945756
0.011741004884243
0.007701663300395
0.0028710290789604
-0.0026259403675794
-0.0085848774760961
-0.0147447120398283
-0.0208207480609416
-0.0265440009534358
-0.031694259494543
-0.0361153371632099
-0.0397096648812294
-0.0424290187656879
-0.0442778542637825
-0.0453163236379623
-0.0456473752856254
-0.045396015048027
-0.0446925163269043
-0.0436622127890586
-0.042420744895935
-0.0410706363618373
-0.0396955348551273
-0.0383529923856258
-0.0370711013674736
-0.0358521789312362
-0.0346769019961357
-0.0335033908486366
-0.0322693549096584
-0.0309064537286758
-0.0293603520840406
-0.0276023633778095
-0.0256312005221843
-0.0234701596200466
-0.0211591366678476
-0.0187422595918178
-0.0162596553564071
-0.0137483207508921
-0.0112434439361095
-0.0087721394374966
-0.0063468003645539
-0.0039688642136752
-0.0016395838465541
0.0006364441360346
0.0028580876532942
0.0050289407372474
0.0071446020156145
0.0091826738789677
0.0111099239438772
0.0128980763256549
0.0145340301096439
0.0160194709897041
0.017363104969263
0.0185729954391717
0.0196545831859111
0.0206124279648065
0.0214521456509828
0.0221825428307056
0.0228159241378307
0.0233673155307769
0.0238561406731605
0.0243032947182655
0.0247187167406082
0.0250926315784454
0.0254007279872894
0.0256156306713819
0.0257143564522266
0.0256807524710893
0.025507353246212
0.0251980144530534
0.0247680023312568
0.0242394283413887
0.0236320346593856
0.0229481477290391
0.0221539065241813
0.0211689919233322
0.0198745597153902
0.0181325115263462
0.0158088132739067
0.0128027964383363
0.0090771904215216
0.0046765310689806
-0.0002716872841119
-0.0055705280974507
-0.0109772998839616
-0.0162363201379776
-0.0211163572967052
-0.0254373587667942
-0.0290779508650302
-0.0319724753499031
-0.0341046266257762
-0.035495389252901
-0.0361872501671314
-0.0362381115555763
-0.0357289388775825
-0.0347688868641853
-0.033486608415842
-0.0320124477148056
-0.0304615516215562
-0.028923075646162
-0.0274541229009628
-0.0260771736502647
-0.0247827749699354
-0.0235371626913547
-0.0222900547087192
-0.020982589572668
-0.0195580255240201
-0.0179683566093444
-0.0161728281527757
-0.0141415698453783
-0.0118710231035947
-0.0093936584889888
-0.0067700212821364
-0.0040741767734289
-0.0013831090182065
0.0012325812131166
0.0037194406613707
0.0060478262603282
0.0082114292308688
0.0102226166054606
0.0121034951880574
0.013874789699912
0.0155501645058393
0.0171409323811531
0.018664114177227
0.0201370567083358
0.0215613320469856
0.0229171384125947
0.0241708531975746
0.0252850539982318
0.0262284409254789
0.0269846990704536
0.0275563932955265
0.0279637575149536
0.0282398276031017
0.0284211449325084
0.0285397134721279
0.0286210887134075
0.0286832302808761
0.0287367142736911
0.0287900753319263
0.0288484878838062
0.0288972035050392
0.0288827661424875
0.0287053622305393
0.0282246302813291
0.0272777713835239
0.0257053039968013
0.0233790855854749
0.020229211077094
0.0162641517817974
0.011578319594264
0.0063461596146225
0.0008027122821658
-0.0047881472855806
-0.0101661151275038
-0.0150955207645893
-0.0193825811147689
-0.0228980910032987
-0.025593040511012
-0.0274916198104619
-0.0286650620400905
-0.0292043723165988
-0.0292056854814291
-0.0287675186991691
-0.0279916021972894
-0.0269797891378402
-0.0258273240178823
-0.0246174801141023
-0.0234175063669681
-0.0222733523696661
-0.0212017446756362
-0.020182667300105
-0.0191658493131399
-0.0180959608405828
-0.016935097053647
-0.0156646724790334
-0.0142753403633832
-0.0127606987953186
-0.0111173521727323
-0.0093455370515584
-0.0074492041021585
-0.0054383780807256
-0.0033307708799839
-0.0011484194546937
0.0010840538889169
0.0033358903601765
0.0055728359147906
0.007768646813929
0.0099081099033355
0.0119758676737546
0.0139476405456662
0.0157922990620136
0.0174791365861892
0.0189868938177824
0.0203089565038681
0.0214490015059709
0.0224147569388151
0.0232187062501907
0.0238808933645486
0.0244268737733364
0.0248808804899454
0.0252579115331172
0.0255629979074001
0.0258013345301151
0.0259850360453128
0.0261242017149925
0.0262133702635765
0.0262246802449226
0.0261000990867614
0.0257395878434181
0.0249994006007909
0.0237099435180425
0.0217070076614618
0.0188661720603704
0.0151346148923039
0.0105537977069616
0.0052620037458837
-0.0005267590750008
-0.006554436404258
-0.0125468634068965
-0.0182415377348661
-0.0234206337481737
-0.0279350578784942
-0.0317063182592392
-0.0347121357917785
-0.036967821419239
-0.0385106615722179
-0.0393897034227848
-0.039661768823862
-0.0393937341868877
-0.0386653319001197
-0.0375647209584713
-0.0361778549849987
-0.0345795936882495
-0.0328283160924911
-0.0309607163071632
-0.0289933010935783
-0.0269356649369001
-0.0248024854809045
-0.0226124860346317
-0.020379152148962
-0.0181029923260211
-0.015770848840475
-0.0133635401725769
-0.0108657702803611
-0.0082719344645738
-0.0055871345102787
-0.002824118360877
1.695007085800171e-07
0.0028652194887399
0.0057474188506603
0.0086215566843748
0.0114592155441641
0.0142236491665244
0.0168684013187885
0.019343577325344
0.0216057933866977
0.023626122623682
0.0253936368972063
0.0269150324165821
0.0282122194766998
0.0293196123093366
0.0302792247384786
0.0311324670910835
0.0319113582372665
0.0326325148344039
0.0332993157207965
0.0339121222496032
0.0344722270965576
0.0349724628031253
0.0353907868266105
0.0356973707675933
0.035865232348442
0.0358766764402389
0.0357254482805728
0.0354149676859378
0.0349547825753688
0.0343529395759105
0.0335958041250705
0.032619260251522
0.031293798238039
0.0294401012361049
0.0268704108893871
0.0234364680945873
0.0190624464303255
0.0137570742517709
0.0076171359978616
0.0008271369151771
-0.006354933604598
-0.013630436733365
-0.0206998959183692
-0.0272933077067136
-0.0331887677311897
-0.0382272750139236
-0.0423220247030258
-0.0454542487859725
-0.0476575717329978
-0.0490006953477859
-0.0495708957314491
-0.0494574382901191
-0.0487466342747211
-0.0475348830223083
-0.0459399037063121
-0.0440930649638175
-0.0421199724078178
-0.0401220917701721
-0.0381643734872341
-0.0362703539431095
-0.0344258472323417
-0.0325878895819187
-0.0306950360536575
-0.0286815911531448
-0.0264940448105335
-0.0240989923477172
-0.0214787926524877
-0.0186247900128364
-0.0155420340597629
-0.0122648905962705
-0.0088644325733184
-0.0054357349872589
-0.0020757066085934
0.0011316938325762
0.004121714271605
0.0068546086549758
0.0093200672417879
0.0115356016904115
0.0135401198640465
0.0153843872249126
0.0171207934617996
0.0187971852719783
0.0204558819532394
0.0221353750675916
0.0238663852214813
0.0256569795310497
0.0274813584983348
0.0292868614196777
0.0310115534812212
0.0325997173786163
0.0340113677084445
0.0352242328226566
0.0362297594547271
0.0370284579694271
0.0376267880201339
0.038036435842514
0.0382743924856185
0.0383608043193817
0.0383185558021068
0.0381756909191608
0.037959199398756
0.0376790203154087
0.0373208001255989
0.036851592361927
0.0362183675169944
0.0353338532149791
0.0340673774480819
0.0322522930800914
0.0297081917524337
0.0262737348675727
0.0218443907797336
0.0164040867239236
0.0100382948294281
0.0029267268255352
-0.0046739010140299
-0.0124501716345548
-0.0200655609369277
-0.0272119455039501
-0.0336528569459915
-0.0392363779246807
-0.043886911123991
-0.0475887954235076
-0.0503672882914543
-0.0522727668285369
-0.0533704869449138
-0.0537373013794422
-0.0534640587866306
-0.0526563078165054
-0.0514290481805801
-0.0498966760933399
-0.0481589958071708
-0.0462861619889736
-0.0443147048354148
-0.042260568588972
-0.0401327162981033
-0.0379328019917011
-0.0356484241783618
-0.0332530587911605
-0.0307146329432725
-0.0280049741268157
-0.0251045301556587
-0.0220043361186981
-0.0187088847160339
-0.0152406711131334
-0.0116419661790132
-0.0079710315912961
-0.0042927330359816
-0.0006626807153224
0.002883574925363
0.0063227242790162
0.0096288677304983
0.0127708995714783
0.01572085916996
0.0184601694345474
0.0209796335548162
0.0232793949544429
0.0253702066838741
0.0272701755166053
0.0289976168423891
0.0305674877017736
0.0319921597838401
0.0332824066281318
0.0344506837427616
0.0355166979134082
0.0365034528076648
0.0374201126396656
0.0382496789097785
0.0389549285173416
0.0394953116774559
0.0398422256112098
0.03998464345932
0.0399262122809886
0.0396812707185745
0.0392711423337459
0.0387196280062198
0.0380497947335243
0.0372798852622509
0.0364126563072204
0.0354198478162288
0.0342304818332195
0.0327249392867088
0.0307379961013793
0.0280819609761238
0.0245872214436531
0.0201451256871223
0.0147427450865507
0.0084790587425231
0.0015563201159238
-0.0057471301406621
-0.0131129985675215
-0.0202217698097229
-0.0267875790596008
-0.0325822308659553
-0.0374466329813003
-0.0412908196449279
-0.0440847836434841
-0.0458518341183662
-0.0466702654957771
-0.0466702505946159
-0.0460177510976791
-0.0448916852474212
-0.0434613674879074
-0.0418687984347343
-0.0402206294238567
-0.0385881252586841
-0.0370081923902034
-0.0354875847697258
-0.0340115055441856
-0.0325491651892662
-0.0310560092329978
-0.0294754039496183
-0.0277407281100749
-0.0257857497781515
-0.0235640108585357
-0.0210627261549234
-0.0183030348271131
-0.0153325833380222
-0.0122164506465196
-0.0090269315987825
-0.0058324048295617
-0.0026895003393292
0.0003573795547708
0.0032731506507843
0.0060329078696668
0.0086260428652167
0.0110574830323457
0.0133448950946331
0.0155142024159431
0.0175887700170278
0.0195722617208957
0.0214409381151199
0.0231546573340892
0.0246763844043016
0.0259856320917606
0.027079539373517
0.0279655642807483
0.0286557748913764
0.0291683040559291
0.0295298192650079
0.0297715403139591
0.0299230217933654
0.0300094839185476
0.0300527308136224
0.0300740785896778
0.0300906412303447
0.0301019102334976
0.0300820786505937
0.029987858608365
0.0297731515020132
0.0294010192155838
0.0288496892899274
0.0281074699014425
0.0271531641483306
0.0259313806891441
0.0243381150066852
0.0222276840358972
0.019442293792963
0.0158530715852975
0.0113989170640707
0.006112078204751
0.0001176688820123
-0.0063916016370058
-0.0131842903792858
-0.0200119763612747
-0.0266288015991449
-0.0328110009431839
-0.0383754819631576
-0.043191835284233
-0.0471819974482059
-0.0503109842538833
-0.0525758787989616
-0.0539994463324546
-0.0546289831399917
-0.0545339360833168
-0.0537976324558258
-0.0525067001581192
-0.0507502257823944
-0.0486330576241016
-0.046283908188343
-0.0438423715531826
-0.0414377339184284
-0.0391771532595157
-0.0371430367231369
-0.0353944860398769
-0.0339712314307689
-0.0328951627016067
-0.0321649424731731
-0.0317479148507118
-0.0315751507878303
-0.0315400324761867
-0.0315001793205738
-0.0312873907387256
-0.0307328272610902
-0.0296997316181659
-0.0281015411019325
-0.025901909917593
-0.0231120809912681
-0.0197893995791673
-0.0160298086702823
-0.0119545012712478
-0.0076984465122222
-0.0034026689827442
0.0007969588041305
0.0047855656594038
0.0084801828488707
0.0118303699418902
0.0148161016404628
0.0174502320587635
0.0197750534862279
0.0218435246497392
0.023700401186943
0.0253780893981456
0.026902113109827
0.0282974224537611
0.0295920241624116
0.030817124992609
0.0320049114525318
0.0331855304539203
0.0343854539096355
0.0356281325221061
0.0369315296411514
0.0383002273738384
0.0397213958203792
0.0411672927439212
0.0425943695008754
0.0439398325979709
0.0451266504824161
0.0460782200098037
0.0467323884367942
0.0470416545867919
0.046958178281784
0.0464191883802413
0.0453472584486007
0.0436652861535549
0.0413168407976627
0.0382834337651729
0.0345963649451732
0.0303424689918756
0.0256616920232772
0.0207355394959449
0.0157634429633617
0.010929986834526
0.0063799447380006
0.00221360148862
-0.0015039881691336
-0.0047331368550658
-0.0074548940174281
-0.0096696382388472
-0.0113955959677696
-0.012665731832385
-0.0135232713073492
-0.014017385430634
-0.0142012927681207
-0.0141326123848557
-0.0138677563518285
-0.0134472930803895
-0.0128917703405022
-0.0122185833752155
-0.0114557547494769
-0.0106358779594302
-0.0097839795053005
-0.0089117269963026
-0.0080157592892646
-0.0070778243243694
-0.0060696969740092
-0.0049628969281911
-0.0037375374231487
-0.002387297572568
-0.000921671045944
0.0006349680479615
0.0022492967545986
0.0038884149398654
0.0055236108601093
0.0071240649558603
0.0086533036082983
0.0100757107138633
0.0113622527569532
0.0124912979081273
0.01345020160079
0.0142366336658597
0.0148573741316795
0.0153276110067963
0.0156706180423498
0.0159145481884479
0.0160859525203704
0.0162032544612884
0.0162764806300401
0.0163122378289699
0.0163124930113554
0.0162655003368854
0.0161420963704586
0.0159037485718727
0.015514469705522
0.0149496775120496
0.0142008420079946
0.0132710710167884
0.0121577158570289
0.0108314957469701
0.0092275105416774
0.0072551574558019
0.0048221983015537
0.0018604323267936
-0.0016540456563234
-0.0056847054511308
-0.0101319961249828
-0.0148517778143286
-0.0196764841675758
-0.0244246795773506
-0.0289094988256692
-0.0329563058912754
-0.0364227965474128
-0.0392092503607273
-0.0412570983171463
-0.0425430610775947
-0.043076679110527
-0.0429020896553993
-0.0420980006456375
-0.0407725684344768
-0.0390502139925956
-0.0370517633855342
-0.0348845496773719
-0.0326496586203575
-0.0304473005235195
-0.0283663086593151
-0.0264693778008222
-0.0247859545052051
-0.0233091823756694
-0.0219965428113937
-0.0207799188792705
-0.0195820555090904
-0.018330980092287
-0.0169682744890451
-0.0154514927417039
-0.0137543389573693
-0.0118665639311075
-0.009790152311325
-0.0075370222330093
-0.0051357285119593
-0.0026367860846221
-0.0001075987238436
0.0023782141506671
0.0047541419044137
0.0069728884845972
0.0090095736086368
0.0108576882630586
0.0125247687101364
0.0140280229970812
0.0153894489631056
0.0166332796216011
0.0177824106067419
0.018848592415452
0.0198175478726625
0.0206292606890201
0.0211615040898323
0.0212383214384317
0.0206686556339263
0.0192935355007648
0.0170227941125631
0.0138566307723522
0.009890872053802
0.0053058369085192
0.0003414170350879
-0.0047344779595732
-0.0096562290564179
-0.0141861904412508
-0.018134232610464
-0.0213699229061603
-0.0238241553306579
-0.0254820622503757
-0.0263771880418062
-0.0265865307301282
-0.0262178517878055
-0.0253920201212167
-0.0242296904325485
-0.0228427425026893
-0.0213255397975444
-0.0197476502507925
-0.0181511938571929
-0.016552772372961
-0.0149498777464032
-0.0133275194093585
-0.0116601977497339
-0.0099111041054129
-0.0080350022763013
-0.0059916395694017
-0.0037652906030416
-0.0013730376958847
0.0011440142989158
0.003733716905117
0.0063411863520741
0.0089158779010176
0.0114188035950064
0.0138255637139081
0.0161241572350263
0.0183115862309932
0.0203920677304267
0.0223740134388208
0.0242645572870969
0.0260693002492189
0.0277985855937004
0.0294642765074968
0.0310623198747634
0.03256331756711
0.0339230522513389
0.0350991673767566
0.0360617972910404
0.0367973707616329
0.0373092517256736
0.0376159697771072
0.0377405881881713
0.0376882813870906
0.0374219939112663
0.0368500277400016
0.0358328148722648
0.0342109054327011
0.0318469293415546
0.0286588557064533
0.0246310252696275
0.0198162272572517
0.0143386237323284
0.0083878934383392
0.0021975629497319
-0.0039860541000962
-0.0099308304488658
-0.0154336970299482
-0.0203274320811033
-0.0244864057749509
-0.0278321243822574
-0.0303351003676652
-0.0320110842585563
-0.0329105742275714
-0.0331033691763877
-0.0326703526079654
-0.0317100808024406
-0.0303438436239957
-0.0287035591900348
-0.0269121248275041
-0.0250693969428539
-0.0232442319393157
-0.0214723423123359
-0.0197600871324539
-0.0180897749960422
-0.0164241343736648
-0.0147134726867079
-0.0129080330953001
-0.0109697449952363
-0.0088737001642584
-0.0066022174432873
-0.0041491212323307
-0.0015361029654741
0.0011814655736088
0.0039268396794795
0.0066186357289552
0.0091849919408559
0.0115749798715114
0.0137642156332731
0.015751464292407
0.0175490919500589
0.0191749464720487
0.020649466663599
0.0219958536326885
0.0232392009347677
0.0244042091071605
0.0255148038268089
0.0265907496213912
0.0276365838944911
0.0286349337548017
0.0295520722866058
0.0303470194339752
0.0309799686074256
0.031422022730112
0.0316617116332054
0.0317037813365459
0.0315591879189014
0.0312249530106782
0.0306598860770463
0.0297704245895147
0.028418006375432
0.0264502875506877
0.0237429775297641
0.0202295519411563
0.0159106999635696
0.0108547275885939
0.0051973043009638
-0.0008652312681078
-0.0070963841862976
-0.0132497372105717
-0.0190977901220321
-0.0244517587125301
-0.0291701611131429
-0.0331600829958915
-0.0363752245903015
-0.0388081558048725
-0.0404791086912155
-0.0414282083511352
-0.0417108945548534
-0.0413993708789348
-0.0405901372432708
-0.0394023582339286
-0.0379623137414455
-0.0363861061632633
-0.0347672775387764
-0.033167764544487
-0.0316113829612731
-0.0300830788910388
-0.0285363383591175
-0.0269073937088251
-0.0251328162848949
-0.0231638140976429
-0.0209712889045476
-0.0185414720326662
-0.0158691052347421
-0.0129601703956723
-0.0098451189696788
-0.0065869083628058
-0.0032729478552937
2.0638108253479004e-06
0.0031514088623225
0.006108125206083
0.0088326726108789
