bvp
0.0175104942172765
0.0200257673859596
0.0224964004009962
0.0249179061502218
0.0272832792252302
0.0295716151595115
0.031740054488182
0.0337318331003189
0.0354928895831108
0.0369884297251701
0.0382100045680999
0.0391698628664016
0.0398921892046928
0.040407970547676
0.0407524816691875
0.0409619510173797
0.0410673767328262
0.0410891249775886
0.0410387627780437
0.0409268848598003
0.0407634600996971
0.0405455715954303
0.0402503535151481
0.0398450568318367
0.0393023304641246
0.0386073552072048
0.0377550572156906
0.0367407575249671
0.0355455391108989
0.034117691218853
0.0323594808578491
0.0301297344267368
0.0272624008357524
0.0235964246094226
0.0190158635377883
0.0134911984205245
0.0070979874581098
2.8740614652633667e-06
-0.0075659053400158
-0.0153476297855377
-0.0230734162032604
-0.0304858721792697
-0.0373579114675521
-0.0435089170932769
-0.0488096624612808
-0.0531753897666931
-0.0565592423081398
-0.058954507112503
-0.060396559536457
-0.0609559491276741
-0.0607275068759918
-0.0598181895911693
-0.0583396218717098
-0.0564132034778595
-0.0541736334562301
-0.0517550706863403
-0.0492685437202453
-0.0467856153845787
-0.0443316586315631
-0.0418879091739654
-0.0394042581319808
-0.0368195101618766
-0.0340770743787288
-0.0311312153935432
-0.027951430529356
-0.0245264694094657
-0.0208610445261001
-0.016968622803688
-0.0128750354051589
-0.008633148856461
-0.0043257987126708
-4.678405821323395e-05
0.0041207270696759
0.0081122210249304
0.0118810748681426
0.0153974825516343
0.0186476446688175
0.0216306261718273
0.0243520736694335
0.0268187187612056
0.0290386229753494
0.0310241915285587
0.0327938385307788
0.034372255206108
0.0357839316129684
0.0370403230190277
0.0381341613829135
0.0390447825193405
0.0397479832172393
0.0402278825640678
0.0404864437878131
0.0405455455183982
0.0404433086514472
0.0402283072471618
0.0399512164294719
0.039654191583395
0.0393623448908329
0.0390812903642654
0.0388028137385845
0.0385162867605686
0.0382133871316909
0.0378781966865062
0.0374780669808387
0.0369691550731658
0.036307618021965
0.03545518592
0.0343768186867237
0.0330301113426685
0.0313503071665763
0.0292412042617797
0.0265810973942279
0.0232427362352609
0.0191195793449878
0.014153741300106
0.0083615891635417
0.0018459279090166
-0.0052167437970638
-0.0126071767881512
-0.0200901068747043
-0.0274297967553138
-0.0344046801328659
-0.0408229790627956
-0.0465322807431221
-0.0514202639460563
-0.0554103329777717
-0.0584579110145568
-0.0605510994791984
-0.0617159903049469
-0.0620214417576789
-0.0615762397646904
-0.0605164356529712
-0.0589852184057235
-0.0571173429489135
-0.0550368167459964
-0.0528550967574119
-0.0506602823734283
-0.0485047809779644
-0.0463983640074729
-0.0443107672035694
-0.0421844199299812
-0.0399516001343727
-0.0375502184033393
-0.0349342636764049
-0.0320773720741272
-0.0289727579802274
-0.0256318803876638
-0.0220788139849901
-0.0183411221951246
-0.0144504057243466
-0.0104550402611494
-0.0064259115606546
-0.0024460451677441
0.0014040870591998
0.0050561195239424
0.0084604620933532
0.0115919541567564
0.0144502744078636
0.0170552916824817
0.0194403268396854
0.021642692387104
0.0236943420022726
0.0256182067096233
0.0274327620863914
0.02916045114398
0.0308256652206182
0.0324394516646862
0.0339898690581321
0.0354480966925621
0.036782506853342
0.0379697531461715
0.0389951989054679
0.0398470759391784
0.0405156761407852
0.040997814387083
0.0412993133068084
0.041435319930315
0.0414293110370636
0.0413028746843338
0.0410537719726562
0.0406327061355114
0.0399262867867946
0.0387524403631687
0.0368823558092117
0.0340901315212249
0.0302093289792537
0.0251755751669406
0.0190465822815895
0.011998045258224
0.0042977007105946
-0.003733173944056
-0.0117583535611629
-0.019458407536149
-0.0265561714768409
-0.0328365564346313
-0.0381522290408611
-0.0424114167690277
-0.0455673672258853
-0.0476238131523132
-0.0486405193805694
-0.0487245172262191
-0.0480148755013942
-0.0466695427894592
-0.0448518134653568
-0.0427146442234516
-0.0403877794742584
-0.0379704907536506
-0.0355281233787536
-0.0330909714102745
-0.0306573621928691
-0.0282030925154685
-0.0256922878324985
-0.0230830460786819
-0.0203348137438297
-0.0174227003008127
-0.0143461637198925
-0.0111252013593912
-0.0077922530472278
-0.0043850056827068
-0.0009389910846948
0.0025172624737024
0.0059604607522487
0.0093666994944214
0.0127084981650114
0.0159565731883049
0.019081737846136
0.0220581647008657
0.0248731523752212
0.0275348126888275
0.0300609078258276
0.0324542336165905
0.0346927642822265
0.0367426015436649
0.0385724529623985
0.0401590541005134
0.0414904505014419
0.0425669625401496
0.0433971732854843
0.0439951568841934
0.0443809032440185
0.0445784330368042
0.0446122400462627
0.0445058345794677
0.0442819818854332
0.0439640320837497
0.0435734912753105
0.0431190095841884
0.0425880774855613
0.0419530384242534
0.041185088455677
0.0402651280164718
0.0391870737075805
0.0379554033279418
0.036580853164196
0.0350765250623226
0.0334529690444469
0.0317050404846668
0.0297877639532089
0.0275966841727495
0.0249752551317214
0.0217502228915691
0.0177688095718622
0.0129206031560897
0.0071554630994796
0.0005044266581535
-0.0069086328148841
-0.0148750953376293
-0.0231263935565948
-0.0313657075166702
-0.0392985343933105
-0.0466581881046295
-0.0532252863049507
-0.0588397532701492
-0.0634026676416397
-0.0668689161539077
-0.0692352801561355
-0.0705321356654167
-0.0708277225494384
-0.0702383741736412
-0.0689246952533721
-0.0670695826411247
-0.0648539066314697
-0.0624392516911029
-0.0599547736346721
-0.0574875548481941
-0.0550788193941116
-0.0527267903089523
-0.0503957606852054
-0.0480302684009075
-0.0455708503723144
-0.0429650023579597
-0.0401689857244491
-0.0371444821357727
-0.0338622964918613
-0.030318085104227
-0.026546211913228
-0.0226156543940305
-0.0186100155115127
-0.0146087165921926
-0.0106802005320787
-0.0068798903375864
-0.0032437462359666
0.0002181753516197
0.0035194987431168
0.0066866362467408
0.0097465552389621
0.0127187129110097
0.0156141156330704
0.0184410139918327
0.021205561235547
0.0239001922309398
0.0264952406287193
0.0289458557963371
0.0312047824263572
0.033232495188713
0.03500447422266
0.0365152582526207
0.0377790555357933
0.0388268083333969
0.0397003404796123
0.0404447764158248
0.0410994514822959
0.0416903793811798
0.0422315895557403
0.0427352935075759
0.0432140380144119
0.0436664707958698
0.0440653748810291
0.0443621464073658
0.0444974899291992
0.0444024614989757
0.0439861677587032
0.0431216098368167
0.0416439361870288
0.0393676683306694
0.0361213721334934
0.0317884944379329
0.026338031515479
0.0198373235762119
0.0124506670981645
0.0044293664395809
-0.0039139483124017
-0.0122523568570613
-0.020292542874813
-0.0278000496327877
-0.0346035584807395
-0.0405898168683052
-0.0456924177706241
-0.0498756915330886
-0.0531211793422699
-0.0554236099123954
-0.0567962415516376
-0.0572789274156093
-0.0569426678121089
-0.0558893159031868
-0.0542436949908733
-0.052136592566967
-0.0496919937431812
-0.0470271855592727
-0.044249664992094
-0.0414426811039447
-0.0386542193591594
-0.0358976870775222
-0.0331578776240348
-0.0303981155157089
-0.0275687538087368
-0.0246173813939094
-0.0215014219284057
-0.0181978102773427
-0.0147029105573892
-0.0110266953706741
-0.0071874801069498
-0.0032083801925182
0.0008792150765657
0.0050266236066818
0.0091664912179112
0.0132213225588202
0.0171152651309967
0.0207868330180645
0.0241966843605041
0.0273266118019819
0.0301764421164989
0.0327622294425964
0.0351114943623542
0.0372552014887332
0.0392196886241436
0.0410196930170059
0.0426578074693679
0.0441346764564514
0.0454569160938262
0.0466306842863559
0.0476523227989673
0.0485078394412994
0.0491778925061225
0.0496444851160049
0.0498983860015869
0.0499439463019371
0.0497986264526844
0.0494861081242561
0.049026072025299
0.0484281443059444
0.0476930886507034
0.0468163676559925
0.0457924157381057
0.0446217842400074
0.0433120429515838
0.0418646372854709
0.0402587912976741
0.0384411215782165
0.0363167487084865
0.0337451249361038
0.0305526927113533
0.0265638679265975
0.0216392651200294
0.0157095417380332
0.0087972171604633
0.0010219272226095
-0.007410068064928
-0.0162283554673194
-0.0251275673508644
-0.0337944254279136
-0.0419348552823066
-0.0493074506521225
-0.0557469315826892
-0.0611630603671073
-0.0655250251293182
-0.0688433423638343
-0.0711551159620285
-0.0725173577666282
-0.0730065107345581
-0.0727177336812019
-0.0717606917023658
-0.0702522024512291
-0.0683066248893737
-0.0660263150930404
-0.0634939670562744
-0.0607667602598667
-0.0578781627118587
-0.0548495277762413
-0.051700547337532
-0.048450656235218
-0.0451140776276588
-0.0416957437992095
-0.0381918586790561
-0.0345928333699703
-0.0308875311166048
-0.0270701237022876
-0.0231448095291852
-0.0191241912543773
-0.0150281442329287
-0.0108863776549696
-0.0067354384809732
-0.0026074508205056
0.001474842429161
0.0054875845089554
0.0093941213563084
0.0131465941667556
0.0166981425136327
0.0200161486864089
0.0230877213180065
0.0259162820875644
0.0285156182944774
0.0309053771197795
0.0331071652472019
0.0351413339376449
0.0370252281427383
0.0387723445892334
0.0403947085142135
0.0419079028069973
0.0433275401592254
0.0446548834443092
0.0458686649799346
0.0469316989183425
0.0478046014904975
0.0484577268362045
0.0488753505051136
0.0490532554686069
0.0489925406873226
0.0486862398684024
0.0480963289737701
0.0471303611993789
0.0456361696124076
0.0434234216809272
0.0403053201735019
0.0361484512686729
0.0309084616601467
0.0246351584792137
0.0174618102610111
0.0095946099609136
0.0012954995036125
-0.0071448637172579
-0.0154338404536247
-0.0232971087098121
-0.0304951667785644
-0.0368355363607406
-0.0421754531562328
-0.0464168936014175
-0.0495035909116268
-0.0514264404773712
-0.0522297583520412
-0.0520066320896148
-0.0508911050856113
-0.0490570738911628
-0.0467096082866191
-0.0440585650503635
-0.0412878394126892
-0.0385339669883251
-0.035877775400877
-0.0333462581038475
-0.0309210699051618
-0.0285529401153326
-0.0261754877865314
-0.0237133614718914
-0.0210920069366693
-0.0182535424828529
-0.015168166719377
-0.0118308365345001
-0.0082543473690748
-0.0044733900576829
-0.0005475748330354
0.003448081202805
0.007433533668518
0.0113294254988431
0.0150647293776273
0.0185861364006996
0.0218634754419326
0.0248880162835121
0.02766546420753
0.0302073322236537
0.0325247049331665
0.0346270650625228
0.036525659263134
0.0382385179400444
0.0397870801389217
0.0411821976304054
0.0424154847860336
0.043463684618473
0.0442989245057106
0.0448989868164062
0.045257069170475
0.0453883446753025
0.0453268811106681
0.0451144836843013
0.0447893440723419
0.044378750026226
0.0438974536955356
0.0433496087789535
0.0427321046590805
0.0420408248901367
0.041272833943367
0.0404176227748394
0.0394499972462654
0.0383369699120521
0.0370533838868141
0.0355919040739536
0.0339589826762676
0.0321630164980888
0.03019948489964
0.0280290264636278
0.0255573038011789
0.0226340871304273
0.0190737769007682
0.0146910808980464
0.0093474499881267
0.0029964186251163
-0.0042949840426445
-0.0123589020222425
-0.020956814289093
-0.0298087913542985
-0.0386181809008121
-0.0470940060913562
-0.0549714006483554
-0.062027171254158
-0.068090334534645
-0.0730492025613784
-0.0768522322177887
-0.0795017927885055
-0.0810454189777374
-0.0815700441598892
-0.0811979919672012
-0.0800771266222
-0.0783685892820358
-0.0762408524751663
-0.0738605409860611
-0.0713725090026855
-0.0688816606998443
-0.0664454251527786
-0.06407231092453
-0.0617245808243751
-0.0593290254473686
-0.056795097887516
-0.054034449160099
-0.0509781166911125
-0.0475870743393898
-0.0438527837395668
-0.0397880524396896
-0.035415306687355
-0.0307672191411256
-0.0258990731090307
-0.0208923295140266
-0.0158421751111745
-0.0108390990644693
-0.0059533892199397
-0.0012291800230741
0.0033115176483988
0.0076628047972917
0.0118306754156947
0.0158280823379755
0.0196673180907964
0.0233512613922357
0.0268702954053878
0.0302082486450672
0.0333518087863922
0.0362934991717338
0.0390237569808959
0.0415217354893684
0.0437555536627769
0.0456910878419876
0.0473035722970962
0.0485861413180828
0.0495503470301628
0.0502213835716247
0.0506355464458465
0.050837967544794
0.0508757755160331
0.050790574401617
0.0506136082112789
0.0503670237958431
0.0500711947679519
0.0497387275099754
0.0493451431393623
0.0488004609942436
0.0479432791471481
0.0465578846633434
0.0444105304777622
0.0412950031459331
0.037073191255331
0.0317040644586086
0.0252566989511251
0.0179037004709243
0.0098981838673353
0.0015404769219458
-0.006857918575406
-0.015002672560513
-0.0226323083043098
-0.0295303519815206
-0.0355410911142826
-0.0405769273638725
-0.044607076793909
-0.0476368702948093
-0.0496933497488498
-0.0508240647614002
-0.0511023141443729
-0.050628300756216
-0.0495239123702049
-0.0479225665330886
-0.0459534861147403
-0.0437257476150989
-0.0413218103349208
-0.038797803223133
-0.0361811742186546
-0.0334733203053474
-0.0306655243039131
-0.0277519710361957
-0.0247294679284095
-0.0215958915650844
-0.0183522813022136
-0.0150016415864229
-0.0115446392446756
-0.0079782623797655
-0.0042988080531358
-0.0005071870982646
0.0033857319504022
0.0073560681194067
0.011365502141416
0.0153626538813114
0.0192899368703365
0.0230879113078117
0.0266905128955841
0.0300231352448463
0.0330131351947784
0.0356046892702579
0.0377693548798561
0.0395118407905101
0.0408702790737152
0.0419085323810577
0.0427018702030181
0.0433208905160427
0.0438204184174537
0.0442385226488113
0.044602382928133
0.0449336171150207
0.0452491454780101
0.0455555766820907
0.0458396710455417
0.0460663400590419
0.0461915135383605
0.0461833626031875
0.0460391826927661
0.0457880981266498
0.0454793199896812
0.0451644472777843
0.044880423694849
0.0446352250874042
0.044399082660675
0.0441058427095413
0.0436648204922676
0.0429794117808342
0.0419696159660816
0.0405874028801918
0.0388128161430358
0.0366413220763206
0.0340788885951042
0.031140811741352
0.0278424210846424
0.024180345237255
0.0201150923967361
0.0155689194798469
0.0104425027966499
0.0046424455940723
-0.0018891915678977
-0.0091504342854022
-0.0170654989778995
-0.0254818592220544
-0.0341783016920089
-0.0428895689547061
-0.0513462238013744
-0.0593108162283897
-0.0665937215089798
-0.0730520114302635
-0.0785831958055496
-0.0831192731857299
-0.0866213664412498
-0.0890779942274093
-0.0905081108212471
-0.0909633561968803
-0.090527094900608
-0.0893111154437065
-0.0874489843845367
-0.0850843787193298
-0.0823539793491363
-0.0793738067150116
-0.0762368738651275
-0.0730139091610908
-0.0697509497404098
-0.0664676427841186
-0.0631566271185875
-0.0597858354449272
-0.0563084371387958
-0.0526762008666992
-0.0488504320383071
-0.044809740036726
-0.040553655475378
-0.0361017361283302
-0.031488362699747
-0.0267549324780702
-0.0219416059553623
-0.017084090039134
-0.0122214285656809
-0.0074058966711163
-0.0027009397745132
0.0018316516652703
0.0061437268741428
0.0102052148431539
0.0140032395720481
0.0175396259874105
0.0208283457905054
0.0238921977579593
0.0267572756856679
0.0294470898807048
0.0319799184799194
0.0343710482120513
0.0366376712918281
0.0387985967099666
0.0408647656440734
0.0428305268287658
0.0446762628853321
0.0463785454630851
0.0479184724390506
0.049285389482975
0.0504772067070007
0.0514988899230957
0.052359789609909
0.0530687868595123
0.0536296889185905
0.054040253162384
0.054294217377901
0.0543854646384716
0.0543096847832202
0.054051075130701
0.0535557977855205
0.0527147054672241
0.0513667538762092
0.0493175387382507
0.0463709272444248
0.0423704721033573
0.0372361205518245
0.0309847332537174
0.0237344689667224
0.0156954266130924
0.007149264216423
-0.0015805047005414
-0.0101658850908279
-0.01830879971385
-0.0257600471377372
-0.0323285199701786
-0.0378905050456523
-0.0423885621130466
-0.0458158589899539
-0.0482021272182464
-0.0496073774993419
-0.0501183159649372
-0.0498450435698032
-0.0489150919020175
-0.0474619232118129
-0.0456097945570945
-0.0434630662202835
-0.0411050431430339
-0.0386016145348548
-0.0360007435083389
-0.0333264470100402
-0.0305798221379518
-0.0277513694018125
-0.0248323418200016
-0.0218196399509906
-0.0187155678868293
-0.015525265596807
-0.0122568951919674
-0.0089222062379121
-0.0055343899875879
-0.002107648178935
0.0013393405824899
0.0047789560630917
0.0081743886694312
0.0114859081804752
0.0146797886118292
0.017735818400979
0.020647769793868
0.0234133079648017
0.0260234326124191
0.028462216258049
0.0307131074368953
0.0327634029090404
0.0346054434776306
0.0362364053726196
0.0376573801040649
0.0388731062412261
0.0398929864168167
0.0407315306365489
0.0414051041007041
0.0419266074895858
0.042305901646614
0.0425552800297737
0.042688388377428
0.0427106209099292
0.04261339828372
0.0423785299062728
0.0419863536953926
0.0414230078458786
0.0406860150396823
0.0397839397192001
0.038729939609766
0.0375382080674171
0.0362262688577175
0.0348162725567817
0.0333319380879402
0.0317910574376583
0.0301924906671047
0.0285003669559955
0.026628378778696
0.0244293101131916
0.0217065885663032
0.0182533077895641
0.0138984490185976
0.0085428208112716
0.0021839048713445
-0.0050710700452327
-0.0130110252648592
-0.0213489104062318
-0.0297635346651077
-0.0379405692219734
-0.0456011295318603
-0.0525156632065773
-0.058506716042757
-0.0634472668170929
-0.0672632306814193
-0.0699394792318344
-0.0715192854404449
-0.0720960944890976
-0.0718036815524101
-0.0708033815026283
-0.0692655891180038
-0.0673506557941436
-0.0651955157518386
-0.0629056915640831
-0.0605500116944313
-0.0581589862704277
-0.0557289496064186
-0.0532299950718879
-0.0506131052970886
-0.0478161536157131
-0.0447777993977069
-0.0414614081382751
-0.0378710031509399
-0.0340461991727352
-0.0300460364669561
-0.0259360373020172
-0.0217800606042146
-0.0176329910755157
-0.0135381473228335
-0.0095318648964166
-0.0056447908282279
-0.0018945969641208
0.0017192950472235
0.0052106915973126
0.0085974559187889
0.0118965869769454
0.0151164131239056
0.0182407461106777
0.0212238617241382
0.0240074507892131
0.0265435334295034
0.0288079492747783
0.0308018364012241
0.0325453877449035
0.0340696685016155
0.0354094728827476
0.0365995541214942
0.0376748144626617
0.0386689230799675
0.0396081916987896
0.0405079573392868
0.0413749292492866
0.0422049425542354
0.0429734997451305
0.0436339378356933
0.0441301688551902
0.0444147400557994
0.0444610565900802
0.0442637093365192
0.0438292548060417
0.0431642904877662
0.0422606095671653
0.0410745106637477
0.0395095199346542
0.0374194271862506
0.0346353352069854
0.0310063734650611
0.0264411587268114
0.0209333114326
0.0145613085478544
0.0074765952304005
-0.0001063803210854
-0.0079270573332905
-0.0157066229730844
-0.0231757257133722
-0.0300975013524293
-0.0362834446132183
-0.0415964014828205
-0.0459452308714389
-0.0492812953889369
-0.0515980497002601
-0.0529283620417118
-0.0533367618918418
-0.0529097914695739
-0.0517524667084217
-0.04999291151762
-0.0477835051715374
-0.0452882088720798
-0.0426589623093605
-0.0400121994316577
-0.0374167747795581
-0.0348957851529121
-0.0324352383613586
-0.0299930684268474
-0.0275079607963562
-0.0249095018953084
-0.022129651159048
-0.0191154442727565
-0.0158389955759048
-0.0122985299676656
-0.0085170287638902
-0.0045470669865608
-0.0004707518965005
0.0036143399775028
0.0076141385361552
0.0114521300420165
0.0150753296911716
0.0184534396976232
0.0215766597539186
0.0244548674672842
0.0271118227392435
0.0295724365860223
0.031853899359703
0.033965203911066
0.0359102375805377
0.0376921072602272
0.0393128171563148
0.0407662913203239
0.0420364066958427
0.0431033857166767
0.0439499765634536
0.0445656701922416
0.0449513606727123
0.0451215878129005
0.0451024621725082
0.0449281483888626
0.0446363613009452
0.0442611463367939
0.0438253805041313
0.0433364026248455
0.0427889823913574
0.0421767979860305
0.0414981320500373
0.0407469719648361
0.0399047806859016
0.0389447063207626
0.0378415584564209
0.0365779474377632
0.0351423434913158
0.0335182771086692
0.0316646471619606
0.0294953286647796
0.0268755257129669
0.0236418843269348
0.0196367818862199
0.0147456228733062
0.0089307539165019
0.0022527687251567
-0.0051352605223655
-0.0130190756171941
-0.0211560223251581
-0.0292952191084623
-0.0371926836669445
-0.0446280352771282
-0.0514183640480041
-0.0574239045381546
-0.0625453293323516
-0.0667173117399215
-0.0699056759476661
-0.072109967470169
-0.0733647048473358
-0.0737356320023536
-0.0733139291405677
-0.0722090154886245
-0.07054403424263
-0.068456083536148
-0.0660880804061889
-0.0635679364204406
-0.0609888173639774
-0.0584001541137695
-0.0558109134435653
-0.0532008036971092
-0.0505306050181388
-0.0477494299411773
-0.044803898781538
-0.0416495390236377
-0.038259919732809
-0.0346321053802967
-0.0307845026254653
-0.0267457216978073
-0.0225498564541339
-0.0182451866567134
-0.0138985086232423
-0.0095867505297064
-0.0053842533379793
-0.0013521220535039
0.0024666059762239
0.006047282833606
0.0093819284811615
0.0124740218743681
0.0153311975300312
0.0179623048752546
0.0203809645026922
0.0226081907749176
0.0246718376874923
0.0266074948012828
0.0284525081515312
0.0302290935069322
0.0319356322288513
0.033554445952177
0.0350632593035697
0.036442719399929
0.0376801639795303
0.0387709960341453
0.0397186055779457
0.0405317172408103
0.0412204079329967
0.0417936220765113
0.0422563850879669
0.0426070392131805
0.042840514332056
0.0429580919444561
0.0429695695638656
0.0428773798048496
0.0426536872982978
0.0422231256961822
0.0414567328989505
0.0401827432215213
0.0382112823426723
0.0353663824498653
0.0315218530595302
0.0266326069831848
0.0207521170377731
0.0140326311811804
0.0067088915966451
-0.0009290839079767
-0.0085652470588684
-0.0158838499337434
-0.0225991457700729
-0.0284913517534732
-0.0334304310381412
-0.0373716354370117
-0.0403319001197814
-0.0423638150095939
-0.0435378104448318
-0.0439386516809463
-0.0436696037650108
-0.0428496599197387
-0.0416017770767211
-0.0400425046682357
-0.0382762141525745
-0.0363870561122894
-0.0344289019703865
-0.0324206687510013
-0.0303518399596214
-0.0281974207609891
-0.0259324647486209
-0.0235379412770271
-0.0210014134645462
-0.0183184221386909
-0.0154938725754618
-0.0125400722026824
-0.0094740875065326
-0.0063191559165716
-0.0031065139919519
0.0001281965523958
0.0033493787050247
0.0065216040238738
0.0096121709793806
0.0126003744080662
0.0154800321906805
0.0182456970214843
0.020878555253148
0.0233490522950887
0.0256305802613496
0.0277090519666671
0.0295833423733711
0.03126160800457
0.032756682485342
0.0340825095772743
0.0352545194327831
0.0362889356911182
0.0371961295604705
0.0379758067429065
0.038622610270977
0.0391378849744796
0.0395328812301158
0.039817675948143
0.0399902984499931
0.0400368645787239
0.0399390868842601
0.0396845713257789
0.0392742417752742
0.038720816373825
0.0380420759320259
0.0372565016150474
0.0363806299865245
0.0354260839521884
0.0343985296785831
0.0332994647324085
0.0321290381252765
0.0308824591338634
0.0295296777039766
0.0279848463833332
0.0260907486081123
0.0236344914883375
0.0203913524746894
0.0161812044680118
0.0109143629670143
0.004612622782588
-0.0025915428996086
-0.0104718822985887
-0.0187391228973865
-0.0270785056054592
-0.0351841412484645
-0.0427860915660858
-0.0496663078665733
-0.0556599199771881
-0.0606522038578987
-0.0645828694105148
-0.0674489736557006
-0.0692966729402542
-0.0702093616127967
-0.0702983140945434
-0.0696926712989807
-0.0685278624296188
-0.0669354647397995
-0.0650356113910675
-0.0629302486777305
-0.060695357620716
-0.0583720728754997
-0.055963858962059
-0.0534441955387592
-0.0507661961019039
-0.047875128686428
-0.0447314567863941
-0.0413296185433864
-0.0376976355910301
-0.0338855609297752
-0.0299523286521434
-0.0259534586220979
-0.0219352822750806
-0.0179369021207094
-0.0139922695234417
-0.0101294592022895
-0.0063692117109894
-0.0027234135195612
0.0008041253313422
0.0042162155732512
0.0075242277234792
0.010745788924396
0.0138923600316047
0.0169575363397598
0.0199151579290628
0.0227261390537023
0.0253504030406475
0.0277576558291912
0.0299328994005918
0.0318781957030296
0.033611424267292
0.0351617857813835
0.0365633182227611
0.0378480330109596
0.039041444659233
0.0401646383106708
0.0412392243742942
0.0422807186841964
0.0432820431888103
0.0442098639905452
0.045019045472145
0.04566640406847
0.0461152419447898
0.0463383235037326
0.0463204756379127
0.0460542850196361
0.0455248169600963
0.0446857400238513
0.0434397831559181
0.0416383817791938
0.0391049124300479
0.0356757454574108
0.0312428642064332
0.0257794000208377
0.0193456597626209
0.0120857656002044
0.0042168828658759
-0.0039916173554956
-0.0122437523677945
-0.0202443301677703
-0.0277276374399662
-0.0344780720770359
-0.0403366684913635
-0.0451974421739578
-0.0490000210702419
-0.0517255216836929
-0.053394928574562
-0.0540633760392665
-0.0538116358220577
-0.0527433194220066
-0.0509893856942653
-0.0487065725028514
-0.0460617840290069
-0.0432112328708171
-0.0402837246656417
-0.0373717062175273
-0.0345289856195449
-0.0317710787057876
-0.0290787890553474
-0.0264093335717916
-0.0237121190875768
-0.0209411475807428
-0.0180631168186664
-0.0150609202682971
-0.0119282975792884
-0.008665332570672
-0.0052871946245431
-0.0018346980214118
0.0016293041408061
0.0050360430032014
0.0083291111513972
0.0114749558269977
0.0144627634435892
0.017298150807619
0.0199937187135219
0.0225601177662611
0.0250031594187021
0.0273256078362464
0.0295275468379259
0.0316065549850463
0.0335603654384613
0.0353836603462696
0.0370577163994312
0.0385490246117115
0.0398214608430862
0.0408492982387542
0.0416231825947761
0.0421506986021995
0.0424567610025405
0.0425820462405681
0.0425729528069496
0.0424686893820762
0.0422958359122276
0.0420696400105953
0.0417960472404956
0.0414755009114742
0.0411102436482906
0.0407052002847194
0.0402577929198741
0.0397497937083244
0.0391468964517116
0.0383947305381298
0.0374049246311187
0.0360429137945175
0.0341333001852035
0.0314841978251934
0.0279216580092906
0.0233260430395603
0.0176626462489366
0.0109986718744039
0.0035014729946851
-0.0045802164822816
-0.0129447691142559
-0.0212745461612939
-0.0292785558849573
-0.0367235504090786
-0.0434428751468658
-0.0493304282426834
-0.054328016936779
-0.0584097579121589
-0.061568260192871
-0.0638083964586258
-0.0651510581374168
-0.0656423941254615
-0.0653595775365829
-0.0644081085920333
-0.062911070883274
-0.0609923005104064
-0.0587588958442211
-0.0562937185168266
-0.053662396967411
-0.050921693444252
-0.0481156036257743
-0.0452646277844905
-0.042361531406641
-0.0393777750432491
-0.0362764224410057
-0.0330261699855327
-0.0296104084700346
-0.0260283984243869
-0.0222928058356046
-0.0184271521866321
-0.0144635373726487
-0.0104386378079652
-0.0063863219693303
-0.0023369891569018
0.0016710823401808
0.0055858325213193
0.0093508148565888
0.0129189658910036
0.0162613447755575
0.0193685013800859
0.0222463533282279
0.0249097272753715
0.0273730419576168
0.0296423062682151
0.0317165777087211
0.0335949622094631
0.0352793298661708
0.0367746353149414
0.0380923077464103
0.0392499640583992
0.0402617007493972
0.0411286763846874
0.0418408326804637
0.0423872135579586
0.0427652969956398
0.0429840832948684
0.043060690164566
0.0430136173963546
0.0428593084216117
0.0426113121211528
0.042277805507183
0.041859783232212
0.041351318359375
0.0407384261488914
0.0399893783032894
0.0390302538871765
0.0377204604446888
0.0358596332371234
0.0332315117120742
0.0296572316437959
0.0250347889959812
0.019361425191164
0.0127417277544736
0.005378920584917
-0.0024526845663785
-0.0104460036382079
-0.0182979051023721
-0.0257362835109233
-0.0325352475047111
-0.0385188646614551
-0.0435566678643226
-0.0475632473826408
-0.050507515668869
-0.0524167194962501
-0.0533682703971862
-0.0534785613417625
-0.0528925657272338
-0.0517714098095893
-0.0502763278782367
-0.0485519208014011
-0.0467141047120094
-0.044844701886177
-0.0429909639060497
-0.0411688089370727
-0.0393680892884731
-0.0375551469624042
-0.0356729738414287
-0.0336527042090892
-0.0314409881830215
-0.0290218088775873
-0.026414580643177
-0.0236559528857469
-0.0207835771143436
-0.0178299210965633
-0.0148218143731355
-0.0117811951786279
-0.0087258629500865
-0.0056684454903006
-0.0026143081486225
0.0004364126361906
0.0034834314137697
0.0065267430618405
0.0095721827819943
0.0126275103539228
0.0156855843961238
0.0187121517956256
0.0216497667133808
0.0244309827685356
0.026991693302989
0.029280949383974
0.0312664881348609
0.0329353623092174
0.0342900604009628
0.0353445746004581
0.0361238457262516
0.0366623625159263
0.0369984060525894
0.0371706560254097
0.0372192300856113
0.0371797904372215
0.0370711125433445
0.0368910767138004
0.0366240143775939
0.036247331649065
0.0357280112802982
0.0350110754370689
0.0340063236653804
0.0325812399387359
0.0305703040212392
0.0278040990233421
0.0241481475532054
0.0195357091724872
0.0139866024255752
0.0076135946437716
0.0006166500970721
-0.00674201361835
-0.0141801843419671
-0.0214342158287763
-0.0282793957740068
-0.0345360673964023
-0.0400675162672996
-0.044773980975151
-0.0485882498323917
-0.0514749698340892
-0.0534306466579437
-0.0544806793332099
-0.0546759366989135
-0.0540922209620475
-0.0528291463851928
-0.0510022118687629
-0.048728059977293
-0.0461159236729145
-0.0432717949151992
-0.0402997024357318
-0.0372904017567634
-0.0343077108263969
-0.0313826464116573
-0.0285149291157722
-0.0256778821349143
-0.0228264015167951
-0.0199093110859394
-0.0168841145932674
-0.0137275736778974
-0.0104371756315231
-0.0070269126445055
-0.0035198777914047
6.146915256977081e-05
0.0036973617970943
0.0073617175221443
0.0110172526910901
0.0146224815398454
0.0181410834193229
0.0215455684810876
0.0248152203857898
0.0279335640370845
0.030888695269823
0.0336713977158069
0.0362683311104774
0.0386577844619751
0.0408122912049293
0.0427043475210666
0.0443159155547618
0.0456495061516761
0.0467270649969577
0.047574121505022
0.0482059195637702
0.0486261434853076
0.0488346889615058
0.0488363616168499
0.0486436747014522
0.0482736229896545
0.0477431826293468
0.0470666848123073
0.0462563298642635
0.0453246794641017
0.0442865565419197
0.0431576110422611
0.0419511348009109
0.0406740680336952
0.0393095798790454
0.0377847477793693
0.0359528958797454
0.033611100167036
0.0305423960089683
0.0265642888844013
0.0215691365301609
0.0155462156981229
0.0085813477635383
0.0008380208164453
-0.0074664689600467
-0.0160798318684101
-0.0247346498072147
-0.0331727042794227
-0.0411612764000892
-0.0484956800937652
-0.0549999326467514
-0.0605320110917091
-0.0649861991405487
-0.0682903304696083
-0.0704061388969421
-0.0713359490036964
-0.0711303353309631
-0.0698914229869842
-0.0677707493305206
-0.0649625733494758
-0.0616920962929725
-0.0581959933042526
-0.0546969212591648
-0.0513781607151031
-0.0483601577579975
-0.0456835404038429
-0.0433142930269241
-0.0411722362041473
-0.0391609668731689
-0.0371855422854423
-0.0351618528366088
-0.033024575561285
-0.030734397470951
-0.028280721977353
-0.0256781075149774
-0.0229587107896804
-0.0201656557619571
-0.017348850145936
-0.0145590128377079
-0.0118381977081298
-0.0092074535787105
-0.0066561568528413
-0.0041474569588899
-0.0016424600034952
0.0008800979703664
0.0034246277064085
0.0059901587665081
0.0085779149085283
0.0111904134973883
0.0138269579038023
0.0164827052503824
0.019150473177433
0.0218199975788593
0.0244769882410764
0.0271058715879917
0.0296931713819503
0.0322308242321014
0.0347195342183113
0.0371612012386322
0.039538525044918
0.0418046042323112
0.04389388859272
0.0457415804266929
0.0473037287592887
0.0485742315649986
0.0495896711945533
0.0504179745912551
0.0511349514126777
0.051795907318592
0.0524063184857368
0.0528955832123756
0.0531062707304954
0.0528139099478721
0.0517756603658199
0.0497815944254398
0.0466864071786403
0.0424263849854469
0.0370320491492748
0.030633732676506
0.023450706154108
0.0157630071043968
0.0078776003792881
9.70953842625022e-05
-0.0073069236241281
-0.0141116334125399
-0.0201496016234159
-0.025307297706604
-0.0295202806591987
-0.0327672399580478
-0.035062626004219
-0.0364530645310878
-0.0370225943624973
-0.0368969663977623
-0.0362329632043838
-0.0351937487721443
-0.0339246205985546
-0.0325402468442916
-0.0311204046010971
-0.0297076441347599
-0.0283081382513046
-0.0268958508968353
-0.0254145637154579
-0.0237755794078111
-0.0218574628233909
-0.0195184089243412
-0.0166253745555877
-0.0130928717553615
-0.0089170271530747
-0.0041897678747773
0.0009109899401664
0.0061463131569325
0.0112485326826572
0.0159567315131425
0.0200476497411727
0.0233579538762569
0.0257997959852218
0.0273653902113437
0.0281161926686763
0.0281637348234653
0.0276516582816839
0.0267410539090633
0.0255953352898359
0.0243593007326126
0.0231370646506547
0.0219859406352043
0.0209294483065605
0.0199732035398483
0.0191136840730905
0.0183423329144716
0.0176508761942386
0.0170373544096946
0.0165054630488157
0.0160584039986133
0.0156952701508998
0.0154102593660354
0.015188556164503
0.01499545853585
0.0147629296407103
0.0143776694312691
0.0136764599010348
0.0124625517055392
0.0105436705052852
0.0077744163572788
0.0040885414928197
-0.0004864614456892
-0.0058319745585322
-0.0117528149858117
-0.0180010665208101
-0.0243034679442644
-0.0303852185606956
-0.0359899215400218
-0.0408971831202507
-0.044933944940567
-0.0479759201407432
-0.0499500036239624
-0.0508477240800857
-0.050734095275402
-0.0497368276119232
-0.0480257272720336
-0.0457938760519027
-0.0432396121323108
-0.0405486188828945
-0.0378783196210861
-0.0353442877531051
-0.0330100655555725
-0.0308854300528764
-0.0289346352219581
-0.0270898416638374
-0.0252623278647661
-0.0233503226190805
-0.0212548747658729
-0.0189045276492834
-0.0162685588002204
-0.0133526241406798
-0.010188790038228
-0.0068247742019593
-0.0033146156929433
0.0002846838906407
0.0039132130332291
0.0075101936236023
0.0110196452587842
0.0143981343135237
0.0176186859607696
0.0206684898585081
0.0235474742949008
0.0262701250612735
0.028857547789812
0.0313168987631797
0.0336301624774932
0.0357625596225261
0.0376768857240676
0.0393431223928928
0.0407429710030555
0.0418721809983253
0.0427412763237953
0.0433738380670547
0.0438031181693077
0.0440631844103336
0.0441695041954517
0.0440921783447265
0.0437380746006965
0.0429574139416217
0.041564792394638
0.0393599383533
0.0361572653055191
0.0318281278014183
0.0263372845947742
0.0197585932910442
0.012269152328372
0.0041270805522799
-0.0043597789481282
-0.0128675764426589
-0.0210871547460556
-0.0287466309964656
-0.0356231555342674
-0.0415456146001815
-0.0463906563818454
-0.0500766187906265
-0.0525677651166915
-0.0538891702890396
-0.0541329383850097
-0.0534473694860935
-0.0520164221525192
-0.0500350184738636
-0.0476851314306259
-0.0451186597347259
-0.0424482002854347
-0.0397436954081058
-0.0370356068015098
-0.0343243442475795
-0.0315915197134017
-0.0288075283169746
-0.0259333699941635
-0.0229230988770723
-0.0197350718080997
-0.0163480620831251
-0.0127705289050936
-0.0090395985171198
-0.005213308148086
-0.0013594711199402
0.0024550464004278
0.0061723971739411
0.0097487587481737
0.0131557704880833
0.0163780506700277
0.0194085147231817
0.0222455617040395
0.0248923674225807
0.027356993407011
0.029655210673809
0.031809989362955
0.0338393934071064
0.0357423350214958
0.0374959670007228
0.039063137024641
0.0404034405946731
0.0414847731590271
0.0422910563647747
0.0428247153759002
0.0431063659489154
0.0431707873940467
0.0430578663945198
0.04280336946249
0.0424356535077095
0.041977509856224
0.0414479225873947
0.0408595092594623
0.0402126759290695
0.0394948050379753
0.0386871397495269
0.0377718731760978
0.0367326997220516
0.035545241087675
0.034157708287239
0.0324729532003402
0.0303464271128177
0.0276044588536024
0.0240767486393451
0.0196322761476039
0.014209259301424
0.0078358855098485
0.0006382185965776
-0.0071728695183992
-0.0153343770653009
-0.0235663261264562
-0.0315967611968517
-0.0391796715557575
-0.0461089387536048
-0.0522245988249778
-0.0574109740555286
-0.0615903437137603
-0.0647170841693878
-0.0667778477072715
-0.0677964240312576
-0.067836657166481
-0.0670008584856987
-0.0654215514659881
-0.0632465779781341
-0.0606277547776699
-0.0577181726694107
-0.0546666234731674
-0.0516030043363571
-0.0486233532428741
-0.0457804203033447
-0.0430794134736061
-0.0404814630746841
-0.0379162579774856
-0.0352981351315975
-0.0325403027236461
-0.0295672677457332
-0.0263271983712911
-0.0228020045906305
-0.0190064795315265
-0.0149762630462646
-0.0107608558610081
-0.0064276293851435
-0.0020626955665647
0.0022387448698282
0.006387086585164
0.0103124435991048
0.0139725171029567
0.017349736765027
0.0204429570585489
0.0232636164873838
0.0258356109261512
0.0281909387558698
0.0303609147667884
0.0323701947927475
0.0342366248369216
0.0359718576073646
0.0375771149992942
0.0390368178486824
0.0403180345892906
0.0413789637386798
0.0421845316886901
0.0427203103899955
0.042994275689125
0.0430309921503067
0.0428675040602684
0.0425486490130424
0.0421200357377529
0.0416229590773582
0.0410908684134483
0.0405439138412475
0.0399861000478267
0.0394089445471763
0.0387876257300376
0.0380594879388809
0.0371054857969284
0.0357540920376777
0.033804215490818
0.0310614127665758
0.0273792520165443
0.0226896554231643
0.0170149151235818
0.0104677528142929
0.0032430682331323
-0.0044028125703334
-0.0121837677434086
-0.0198150556534528
-0.027034243568778
-0.0336131155490875
-0.0393707752227783
-0.0441878624260425
-0.0480090975761413
-0.0508333593606948
-0.0527018681168556
-0.0536866337060928
-0.0538772568106651
-0.0533713847398757
-0.0522731728851795
-0.0506941713392734
-0.0487489998340606
-0.0465457737445831
