bvp
0.1883802413940429
0.1753870695829391
0.1617145836353302
0.1476180106401443
0.1333613097667694
0.1191905885934829
0.1053197234869003
0.0919252932071685
0.0791429728269577
0.0670626163482666
0.0557279959321022
0.0451453030109405
0.0352898128330707
0.0261023361235857
0.017486285418272
0.0093193463981151
0.0014783265069127
-0.006137809716165
-0.0135982856154441
-0.0209410078823566
-0.0281749106943607
-0.0352832861244678
-0.0422295480966568
-0.0489631742238998
-0.0554258376359939
-0.0615589395165443
-0.0673074424266815
-0.0726204141974449
-0.0774605870246887
-0.0818213000893592
-0.0857321619987487
-0.0892480909824371
-0.0924319624900817
-0.0953399986028671
-0.0980117842555046
-0.1004646942019462
-0.1026929467916488
-0.104670226573944
-0.1063571572303772
-0.1077130809426307
-0.108706459403038
-0.1093224212527275
-0.1095658093690872
-0.1094575822353363
-0.1090360432863235
-0.1083656549453735
-0.107535146176815
-0.106639489531517
-0.1057611107826232
-0.1049618571996688
-0.1042825132608413
-0.103739783167839
-0.1033210605382919
-0.1029859408736229
-0.1026763021945953
-0.1023279428482055
-0.1018785610795021
-0.1012760251760482
-0.1004855930805206
-0.0994890853762626
-0.0982874408364296
-0.0969213992357254
-0.0954935252666473
-0.0941668972373008
-0.0931415259838104
-0.0926215723156929
-0.0927789956331253
-0.0937192887067794
-0.0954605489969253
-0.0979312658309936
-0.1009815782308578
-0.1044025793671608
-0.1079519242048263
-0.111381821334362
-0.1144597381353378
-0.1169788539409637
-0.1187700033187866
-0.1197171136736869
-0.1197593882679939
-0.1188788786530494
-0.1170918196439743
-0.1144489049911499
-0.1110333353281021
-0.1069514751434326
-0.1023212522268295
-0.0972636044025421
-0.0918976366519928
-0.0863357931375503
-0.0806748420000076
-0.074983537197113
-0.0692920833826065
-0.0635907799005508
-0.0578440055251121
-0.0520123317837715
-0.0460668727755546
-0.0399924628436565
-0.0337878093123436
-0.0274656079709529
-0.0210511926561594
-0.0145793054252862
-0.008088843896985
-0.0016196873039007
0.0047855824232101
0.0110813472419977
0.01722327247262
0.0231728293001651
0.028902780264616
0.0344046503305435
0.0396878235042095
0.0447649806737899
0.0496365763247013
0.0542863234877586
0.0586883351206779
0.0628200769424438
0.0666714161634445
0.0702446475625038
0.0735496580600738
0.0765995532274246
0.0794083848595619
0.0819892808794975
0.0843524634838104
0.0865064859390258
0.0884609445929527
0.0902266353368759
0.0918112322688102
0.093204952776432
0.0943575352430343
0.0951605066657066
0.0954466983675956
0.0950120687484741
0.0936554968357086
0.0912195295095443
0.0876185446977615
0.0828566923737526
0.0770381540060043
0.0703630521893501
0.0631050541996955
0.0555770546197891
0.0480973497033119
0.0409631431102752
0.0344269573688507
0.0286762900650501
0.0238276328891515
0.0199346970766782
0.0169976130127906
0.0149692259728908
0.0137628559023141
0.0132608618587255
0.0133235901594161
0.0138005334883928
0.0145426914095878
0.0154141020029783
0.0163022577762603
0.0171281807124614
0.0178538560867309
0.0184814780950546
0.0190414004027843
0.0195743627846241
0.0201188344508409
0.0207060053944587
0.0213561281561851
0.022075816988945
0.0228622499853372
0.0237106513231992
0.0246161557734012
0.0255716349929571
0.0265668835490942
0.0275887437164783
0.0286202747374773
0.0296402238309383
0.0306260213255882
0.0315601900219917
0.0324313528835773
0.0332258678972721
0.0339205153286457
0.0344826802611351
0.0348757393658161
0.0350680612027645
0.0350410901010036
0.0347911342978477
0.0343264788389205
0.0336647741496562
0.0328309386968612
0.0318543463945388
0.0307665094733238
0.0295986048877239
0.0283790510147809
0.0271327383816242
0.025875424966216
0.0246005281805992
0.0232741329818964
0.0218481160700321
0.0202792435884475
0.0185417495667934
0.0166321657598018
0.01456780731678
0.0123809427022933
0.0101113244891166
0.0077970623970031
0.0054609440267086
0.0030924007296562
0.0006324648857116
-0.0020281262695789
-0.0050340704619884
-0.0085420869290828
-0.0126967839896678
-0.017604935914278
-0.0233075022697448
-0.0297555886209011
-0.0368035286664962
-0.0442258417606353
-0.0517495274543762
-0.0590881928801536
-0.065970279276371
-0.0721611753106117
-0.0774786993861198
-0.0817994251847267
-0.0850575268268585
-0.0872377008199691
-0.088364653289318
-0.0884995609521865
-0.0877454280853271
-0.0862473025918006
-0.084178440272808
-0.0817174613475799
-0.07902642339468
-0.0762357115745544
-0.0734360069036483
-0.0706743001937866
-0.0679534524679184
-0.0652376264333725
-0.0624648928642272
-0.0595671571791172
-0.0564917549490928
-0.0532107017934322
-0.0497135296463966
-0.0460022650659084
-0.0420990623533725
-0.0380506850779056
-0.0339206345379352
-0.0297794789075851
-0.0256978534162044
-0.0217370595782995
-0.0179391968995332
-0.0143226720392704
-0.0108848139643669
-0.0076103452593088
-0.0044800136238336
-0.0014746692031621
0.00142268743366
0.0042278133332729
0.0069601591676473
0.009639342315495
0.0122697092592716
0.0148323383182287
0.0172934904694557
0.0196171812713146
0.0217742659151554
0.0237498432397842
0.0255463197827339
0.027178306132555
0.0286638028919696
0.0300187561661005
0.0312545895576477
0.0323739573359489
0.0333673655986785
0.0342201478779315
0.0349283032119274
0.0355027988553047
0.0359546579420566
0.0362812615931034
0.0364673547446727
0.0364942140877246
0.0363479927182197
0.0360227301716804
0.0355201996862888
0.0348515883088111
0.0340397767722606
0.0331160724163055
0.0321073979139328
0.0310175865888595
0.0298123508691787
0.0284163691103458
0.0267243944108486
0.0246178284287452
0.0219804234802722
0.0187195241451263
0.0147933745756745
0.0102311130613088
0.0051363697275519
-0.0003248248249292
-0.0059467162936925
-0.011507767252624
-0.0167910810559988
-0.0216034501791
-0.0257887355983257
-0.0292310379445552
-0.0318537205457687
-0.0336179584264755
-0.0345201306045055
-0.0345958694815635
-0.0339319705963134
-0.0326663926243782
-0.0309679396450519
-0.0290106534957885
-0.0269535426050424
-0.0249240342527627
-0.0230029337108135
-0.021214073523879
-0.019522862508893
-0.0178459733724594
-0.0160750430077314
-0.0141096664592623
-0.0118847116827964
-0.0093799345195293
-0.006615187972784
-0.0036482168361544
-0.0005811098963022
0.0024419850669801
0.0052592810243368
0.0077278204262256
0.0097536239773035
0.0113041829317808
0.0124037265777587
0.0131213814020156
0.0135577283799648
0.0138278901576995
0.014043997041881
0.0143027193844318
0.014679099433124
0.0152266044169664
0.0159805007278919
0.0169545952230691
0.01813062466681
0.0194567814469337
0.0208623148500919
0.0222750455141067
0.0236302502453327
0.0248743165284395
0.0259729139506816
0.0269204936921596
0.0277363210916519
0.0284459814429283
0.0290648825466632
0.0295930802822113
0.0300165694206953
0.0303147789090871
0.0304733645170927
0.0304858777672052
0.030340202152729
0.0300079621374607
0.0294468030333518
0.0286135487258434
0.0274816118180751
0.0260517224669456
0.0243510864675045
0.0224255044013261
0.0203319527208805
0.0181335192173719
0.0158914849162101
0.0136517696082592
0.0114292139187455
0.0091966865584254
0.0068860873579978
0.0043987296521663
0.0016177650541067
-0.0015727933496236
-0.0052573969587683
-0.009458721615374
-0.0141244661062955
-0.0191329084336757
-0.0243084300309419
-0.0294417981058359
-0.0343149676918983
-0.0387279018759727
-0.0425190478563308
-0.0455746166408062
-0.047830194234848
-0.0492653548717498
-0.0498912185430526
-0.0497456938028335
-0.0489027015864849
-0.0474742576479911
-0.0455962345004081
-0.043412011116743
-0.0410592854022979
-0.038655687123537
-0.0362848900258541
-0.0339910387992858
-0.0317857153713703
-0.0296583734452724
-0.0275815594941377
-0.0255160816013813
-0.0234185792505741
-0.0212450064718723
-0.0189516767859458
-0.0165052134543657
-0.0138995926827192
-0.0111637217923998
-0.0083533227443695
-0.0055350111797451
-0.0027717119082808
-0.0001142295077443
0.0024022758007049
0.00476058665663
0.006961730774492
0.0090195499360561
0.0109518747776746
0.0127741917967796
0.0144958179444074
0.0161199532449245
0.0176503863185644
0.0190950632095336
0.0204583462327718
0.021733034402132
0.022902900353074
0.0239508766680955
0.0248648598790168
0.0256397314369678
0.0262769870460033
0.0267832428216934
0.0271690320223569
0.0274489074945449
0.027641974389553
0.0277690142393112
0.0278443358838558
0.0278716031461954
0.0278521236032247
0.0277901589870452
0.0276811085641384
0.0275017134845256
0.0272191539406776
0.0268061123788356
0.0262477770447731
0.0255420394241809
0.0246958546340465
0.0237141586840152
0.0225810669362545
0.0212457291781902
0.0196239780634641
0.0176122225821018
0.0151083907112479
0.0120403207838535
0.0083939051255583
0.0042223422788083
-0.0003698291257023
-0.005250072106719
-0.0102705676108598
-0.015271633863449
-0.020087270066142
-0.0245587788522243
-0.0285507962107658
-0.0319593176245689
-0.0347099192440509
-0.0367559120059013
-0.0380837768316268
-0.038720466196537
-0.0387319512665271
-0.0382097475230693
-0.0372514799237251
-0.0359482839703559
-0.0343877226114273
-0.0326618179678916
-0.030862733721733
-0.0290668308734893
-0.027321133762598
-0.0256395861506462
-0.0240061860531568
-0.0223817154765129
-0.0207152850925922
-0.0189584009349346
-0.0170737709850072
-0.0150365401059389
-0.012832885608077
-0.0104581657797098
-0.0079137757420539
-0.0052097104489803
-0.0023782216012477
0.0005167536437511
0.0033899750560522
0.0061578135937452
0.0087590049952268
0.0111645758152008
0.0133739439770579
0.0154028544202446
0.0172731820493936
0.0190086271613836
0.0206331629306077
0.0221681427210569
0.0236272811889648
0.0250143278390169
0.0263294428586959
0.0275739170610904
0.0287400502711534
0.0298025868833065
0.0307293161749839
0.0314959250390529
0.0320894718170166
0.0325068309903144
0.0327542796730995
0.0328455083072185
0.0327989645302295
0.0326365754008293
0.0323810800909996
0.0320524461567401
0.031667273491621
0.0312407407909631
0.0307886935770511
0.0303248725831508
0.029850922524929
0.0293501801788806
0.0287909023463726
0.0281295478343963
0.0273098647594451
0.0262591149657964
0.024881862103939
0.023059319704771
0.0206632763147354
0.0175804607570171
0.0137369381263852
0.0091185187920928
0.0037847119383513
-0.0021288199350237
-0.0084204953163862
-0.0148466955870389
-0.0211572404950857
-0.0271290987730026
-0.0325859114527702
-0.0374020114541053
-0.0414963439106941
-0.0448238030076026
-0.0473692417144775
-0.0491434037685394
-0.0501788072288036
-0.0505287498235702
-0.050268780440092
-0.0494926534593105
-0.0483029522001743
-0.0468001589179039
-0.0450706891715526
-0.0431855730712413
-0.0412141904234886
-0.039229329675436
-0.0372902862727642
-0.0354212634265422
-0.0336028560996055
-0.0317782908678054
-0.029867373406887
-0.0277829207479953
-0.0254482850432395
-0.0228123664855957
-0.0198584776371717
-0.0166069380939006
-0.0131107531487941
-0.0094436090439558
-0.0056845173239707
-0.0019106715917587
0.0017968937754631
0.0053498465567827
0.0086638834327459
0.0116760991513729
0.0143542103469371
0.0166968610137701
0.0187301561236381
0.0204984247684478
0.0220508202910423
0.0234322473406791
0.0246815402060747
0.0258342809975147
0.0269260443747043
0.0279932245612144
0.0290698837488889
0.0301771350204944
0.0313109271228313
0.0324433334171772
0.0335355177521705
0.0345470011234283
0.0354399420320987
0.0361854135990142
0.0367682054638862
0.0371861942112445
0.0374479666352272
0.0375682935118675
0.0375592224299907
0.0374235138297081
0.0371558368206024
0.0367499738931655
0.0362094044685363
0.0355493538081646
0.0347763374447822
0.0338535755872726
0.0326763987541198
0.0310753043740987
0.0288472939282655
0.0257992893457412
0.0217886995524168
0.0167566388845443
0.010744959115982
0.0038901688531041
-0.0035944860428571
-0.0114383110776543
-0.0193362589925527
-0.0269752666354179
-0.0340610928833484
-0.0403491966426372
-0.0456741414964199
-0.0499583967030048
-0.053196657449007
-0.055432241410017
-0.0567376054823398
-0.0572025366127491
-0.05692945048213
-0.0560312531888484
-0.0546282641589641
-0.0528412573039531
-0.050781674683094
-0.0485441908240318
-0.0462019853293895
-0.0438004732131958
-0.0413518063724041
-0.0388430655002594
-0.0362568609416484
-0.0335813872516155
-0.0308039113879203
-0.0279046110808849
-0.0248610638082027
-0.0216589756309986
-0.0182988084852695
-0.0147943068295717
-0.0111671593040227
-0.0074420347809791
-0.0036448091268539
0.0001949332654476
0.0040431190282106
0.0078669469803571
0.0116395708173513
0.0153342187404632
0.0189121700823307
0.0223185401409864
0.0254907645285129
0.028373347595334
0.0309312585741281
0.0331561788916587
0.0350642167031765
0.036688532680273
0.038071434944868
0.0392588935792446
0.0402964204549789
0.0412248969078063
0.0420764870941638
0.0428717210888862
0.0436210669577121
0.044325366616249
0.0449689105153083
0.0455178245902061
0.0459316074848175
0.0461763404309749
0.046231672167778
0.0460913218557834
0.0457579866051673
0.0452360808849334
0.0445257723331451
0.0436213873326778
0.0425134263932704
0.0411900766193866
0.03963403403759
0.0378127284348011
0.0356657430529594
0.0330925844609737
0.0299463309347629
0.0260495245456695
0.0212377645075321
0.0154098309576511
0.0085589028894901
0.0007823780179023
-0.0077210003510117
-0.0166689213365316
-0.0257298536598682
-0.0345635488629341
-0.0428562052547931
-0.0503456592559814
-0.0568360835313797
-0.0621991977095603
-0.0663626417517662
-0.069301389157772
-0.0710424035787582
-0.0716688334941864
-0.0713120847940445
-0.0701359510421752
-0.0683201774954795
-0.0660452097654342
-0.063476413488388
-0.0607496388256549
-0.0579602420330047
-0.0551583729684352
-0.0523535907268524
-0.049525361508131
-0.0466340258717536
-0.043627992272377
-0.0404470898211002
-0.0370322614908218
-0.0333453379571437
-0.0293828248977661
-0.0251741204410791
-0.0207712799310684
-0.0162365101277828
-0.0116318799555301
-0.0070137046277523
-0.002430111169815
0.002076830714941
0.0064683984965085
0.0107135623693466
0.0147944567725062
0.0187025815248489
0.0224316492676734
0.0259790830314159
0.0293482858687639
0.0325379632413387
0.035530112683773
0.0382935255765914
0.040797334164381
0.0430227369070053
0.0449688360095024
0.046651192009449
0.0480961687862873
0.0493373796343803
0.0504119358956813
0.0513509064912796
0.0521697029471397
0.0528676137328147
0.0534367300570011
0.0538733154535293
0.05418087169528
0.0543596148490905
0.0543945617973804
0.0542572662234306
0.0539174452424049
0.053352203220129
0.0525482296943664
0.0514951758086681
0.0501682087779045
0.0485065169632434
0.0463980808854103
0.043678592890501
0.0401531085371971
0.0356399491429328
0.0300215501338243
0.0232862513512372
0.0155461560934782
0.0070194248110055
-0.0020100716501474
-0.0112288417294621
-0.0203171987086534
-0.0289675705134868
-0.0369039699435234
-0.0439024269580841
-0.0498058199882507
-0.0545259155333042
-0.0580354519188404
-0.0603613853454589
-0.0615826100111007
-0.0618233084678649
-0.0612350329756736
-0.0599759332835674
-0.0582036450505256
-0.0560798235237598
-0.0537685342133045
-0.0514223389327526
-0.0491612926125526
-0.0470539294183254
-0.0451110936701297
-0.0432938188314437
-0.0415263175964355
-0.0397115647792816
-0.0377513021230697
-0.0355655327439308
-0.033105731010437
-0.0303601697087287
-0.0273477621376514
-0.024100387468934
-0.0206508934497833
-0.0170407239347696
-0.0133302332833409
-0.0095912609249353
-0.005889416206628
-0.0022744070738554
0.0012187254615128
0.0045693810097873
0.007777078077197
0.0108635816723108
0.0138639546930789
0.0168110579252243
0.0197236128151416
0.022601943463087
0.0254313386976718
0.0281917937099933
0.0308619402348995
0.0334103666245937
0.03578956797719
0.0379434153437614
0.0398206189274787
0.0413843803107738
0.0426164045929908
0.043518204241991
0.0441082194447517
0.0444135889410972
0.0444620735943317
0.0442767478525638
0.0438743121922016
0.0432682633399963
0.0424739383161067
0.0415122807025909
0.0404062047600746
0.0391659289598465
0.037771351635456
0.0361574180424213
0.034203827381134
0.0317361801862716
0.0285469498485326
0.024434745311737
0.019249141216278
0.0129282101988792
0.0055214241147041
-0.0028062742203474
-0.0117912199348211
-0.0211041457951068
-0.030386846512556
-0.0392843447625637
-0.0474782064557075
-0.0547219142317771
-0.0608618184924125
-0.0658323913812637
-0.0696339011192321
-0.0723065584897995
-0.073912613093853
-0.0745295211672782
-0.0742489546537399
-0.07317815721035
-0.0714396834373474
-0.0691649988293647
-0.0664849802851677
-0.063521608710289
-0.0603756196796894
-0.0571112968027591
-0.0537557788193225
-0.0503169298171997
-0.0467994771897792
-0.0432071909308433
-0.0395394079387187
-0.0357898510992527
-0.0319458246231079
-0.027986891567707
-0.0238879658281803
-0.019627645611763
-0.0151941459625959
-0.0105850156396627
-0.005806291475892
-0.0008744485676288
0.0041825696825981
0.0093261701986193
0.0145033178851008
0.0196382123976945
0.0246325898915529
0.0293806213885545
0.0337894298136234
0.0377937033772468
0.0413580536842346
0.0444711670279502
0.0471396557986736
0.0493846386671066
0.0512410402297973
0.0527562201023101
0.0539858117699623
0.0549885481595993
0.0558216832578182
0.0565379634499549
0.0571803003549575
0.0577693581581115
0.0582925155758857
0.0587073490023613
0.0589585192501544
0.0589947737753391
0.0587783679366111
0.0582887679338455
0.0575228333473205
0.0564940646290779
0.0552324093878269
0.0537817552685737
0.0521934479475021
0.0505170598626136
0.0487890392541885
0.0470155328512191
0.0451433211565017
0.0430311448872089
0.0404492877423763
0.0371177457273006
0.0327682718634605
0.0272086784243583
0.0203711651265621
0.012333633378148
0.0033109225332736
-0.0063771530985832
-0.0163479261100292
-0.0262002516537904
-0.0355574637651443
-0.044102419167757
-0.0515960827469825
-0.0578778088092803
-0.0628593191504478
-0.0665234699845314
-0.068921573460102
-0.0701616406440734
-0.0703921616077423
-0.0697865337133407
-0.0685269087553024
-0.0667870491743087
-0.0647172331809997
-0.0624339766800403
-0.0600156150758266
-0.057504154741764
-0.0549107603728771
-0.0522207245230674
-0.0493986755609512
-0.0463975295424461
-0.043173424899578
-0.0397037789225578
-0.0359978899359703
-0.0320932939648628
-0.0280430577695369
-0.0239032041281461
-0.0197253860533237
-0.0155532648786902
-0.0114207081496715
-0.0073526194319128
-0.0033675655722618
0.0005201222375035
0.0043003605678677
0.0079675335437059
0.0115198334679007
0.0149605609476566
0.0182950254529714
0.0215172637253999
0.0246026515960693
0.0275177266448736
0.0302343443036079
0.0327372401952743
0.035026229918003
0.0371143259108066
0.0390218123793602
0.0407680310308933
0.0423628576099872
0.0438031665980815
0.0450783930718898
0.0461783371865749
0.0470974445343017
0.0478367246687412
0.0483992174267768
0.0487798415124416
0.0489618182182312
0.0489222928881645
0.0486394986510276
0.0480996593832969
0.0473031662404537
0.0462652891874313
0.045011468231678
0.0435703285038471
0.0419641211628913
0.0401965752243995
0.0382390953600406
0.0360175631940364
0.0334101617336273
0.0302622430026531
0.0264090746641159
0.0217018965631723
0.0160415321588516
0.0094128437340259
0.0019035190343856
-0.0063017234206199
-0.0149442423135042
-0.0237199775874614
-0.0323089957237243
-0.0404044575989246
-0.0477382540702819
-0.0541001372039318
-0.0593468695878982
-0.0634016916155815
-0.0662481784820556
-0.0679217353463172
-0.0685062408447265
-0.0681381523609161
-0.0670016184449195
-0.0653058737516403
-0.0632580816745758
-0.0610403083264827
-0.0587902329862117
-0.0565900169312953
-0.0544667020440101
-0.052399918437004
-0.0503332838416099
-0.0481904670596122
-0.045892097055912
-0.0433668009936809
-0.0405569709837436
-0.0374234989285469
-0.0339534245431423
-0.0301691778004169
-0.0261296071112155
-0.0219194293022155
-0.0176346972584724
-0.0133699318394064
-0.0092078698799014
-0.0052106147632002
-0.0014137632679194
0.0021702605299651
0.0055415765382349
0.0087052714079618
0.0116696339100599
0.0144464615732431
0.0170534029603004
0.0195163153111934
0.0218616835772991
0.024099139496684
0.0262128915637731
0.028172006830573
0.0299471784383058
0.0315209925174713
0.0328898206353187
0.0340599529445171
0.0350433550775051
0.035855982452631
0.0365162305533885
0.0370437800884246
0.0374584235250949
0.0377767905592918
0.0380116030573844
0.0381755195558071
0.0382793545722961
0.0383210815489292
0.0382807925343513
0.0381301715970039
0.0378455035388469
0.0374144501984119
0.0368371345102787
0.0361199937760829
0.0352578461170196
0.0342086739838123
0.0328751243650913
0.0311051942408084
0.0287133622914552
0.0255153216421604
0.0213705115020275
0.0162224639207124
0.0101188775151968
0.0032052118331193
-0.0042959982529282
-0.0121112531051039
-0.0199461169540882
-0.0275148954242467
-0.0345645248889923
-0.0408907532691955
-0.0463463589549064
-0.0508394017815589
-0.0543245784938335
-0.0567949377000331
-0.05827646702528
-0.0588258877396583
-0.0585297793149948
-0.057499710470438
-0.0558637008070945
-0.053760290145874
-0.0513340644538402
-0.0487240850925445
-0.0460439510643482
-0.0433647148311138
-0.040710587054491
-0.0380656458437442
-0.0353858992457389
-0.032612856477499
-0.0296857468783855
-0.0265540424734354
-0.0231916345655918
-0.0196033418178558
-0.0158152151852846
-0.011857533827424
-0.0077609159052371
-0.0035688430070877
0.0006552226841449
0.0048370137810707
0.0089047765359282
0.0127974590286612
0.0164706483483314
0.0199027061462402
0.0230944864451885
0.0260606817901134
0.0288223884999752
0.0314043350517749
0.0338304676115512
0.0361162163317203
0.0382656678557395
0.0402785092592239
0.042153775691986
0.0438812896609306
0.0454360172152519
0.0467859506607055
0.047903936356306
0.0487743988633155
0.0493943132460117
0.0497682765126228
0.0499010011553764
0.0497966706752777
0.0494660437107086
0.0489316657185554
0.0482252538204193
0.0473812520503997
0.0464356206357479
0.0454293638467788
0.0444038733839988
0.043385524302721
0.0423746183514595
0.0413448363542556
0.0402416475117206
0.0389743782579898
0.0374108552932739
0.0353819206357002
0.0326990708708763
0.0291864294558763
0.0247190035879611
0.0192544963210821
0.0128504205495119
0.0056633781641721
-0.0020653251558542
-0.0100333467125892
-0.0179148018360137
-0.0254104807972908
-0.0322890132665634
-0.038398265838623
-0.0436523929238319
-0.0480124726891517
-0.0514693520963192
-0.054032988846302
-0.055733323097229
-0.056627981364727
-0.0568049848079681
-0.0563757456839084
-0.0554630383849144
-0.0541884526610374
-0.0526585802435874
-0.0509532392024993
-0.0491257160902023
-0.0472123324871063
-0.0452372841536998
-0.0432115532457828
-0.0411326624453067
-0.0389859825372695
-0.0367472022771835
-0.0343864038586616
-0.0318733528256416
-0.0291837118566036
-0.0263049770146608
-0.0232408586889505
-0.0200125034898519
-0.0166562125086784
-0.0132167777046561
-0.0097363675013184
-0.0062508881092071
-0.0028002765029668
0.0005638459697365
0.0037841326557099
0.0068092760629951
0.0096032340079545
0.0121507514268159
0.0144607694819569
0.0165640469640493
0.0185015462338924
0.0203104261308908
0.0220176819711923
0.0236409939825534
0.0251879841089248
0.0266560278832912
0.0280397571623325
0.0293355528265237
0.0305330567061901
0.0316068790853023
0.0325223989784717
0.0332507044076919
0.0337799340486526
0.0341172739863395
0.0342823341488838
0.0342968702316284
0.0341789051890373
0.0339437648653984
0.0336067974567413
0.0331810861825943
0.0326707325875759
0.0320682972669601
0.0313522294163703
0.0304675474762916
0.0292975176125764
0.0276587828993797
0.0253326650708913
0.0221168436110019
0.0178768932819366
0.0125822164118289
0.0063188290223479
-0.0007200744003057
-0.0082600349560379
-0.0159806422889232
-0.0235533732920885
-0.0306750610470771
-0.0370936691761016
-0.0426222532987594
-0.0471370220184326
-0.0505729839205741
-0.0529279671609401
-0.0542604885995388
-0.0546737909317016
-0.0542971342802047
-0.053272470831871
-0.0517465211451053
-0.0498627126216888
-0.0477507635951042
-0.0455173067748546
-0.0432386212050914
-0.0409566685557365
-0.0386804789304733
-0.0363938882946968
-0.0340652130544185
-0.0316514074802398
-0.0291046630591154
-0.0263890698552131
-0.0234928596764802
-0.0204264465719461
-0.0172127485275268
-0.0138774095103144
-0.010444177314639
-0.0069355349987745
-0.0033749379217624
0.0002103019505739
0.0037865601480007
0.0073150275275111
0.0107573335990309
0.0140836471691727
0.0172789506614208
0.020343167707324
0.0232832599431276
0.0260996110737323
0.0287765115499496
0.0312859453260898
0.0336014218628406
0.0357086025178432
0.0376045815646648
0.0392931252717971
0.0407829172909259
0.0420868694782257
0.0432216376066207
0.044204905629158
0.045047640800476
0.0457480549812316
0.0462967790663242
0.046688076108694
0.0469191744923591
0.0469778403639793
0.0468395166099071
0.0464786514639854
0.0458791181445121
0.0450364165008068
0.0439561381936073
0.0426518097519874
0.0411423854529857
0.0394524447619915
0.0376141592860221
0.0356631949543952
0.0336275212466716
0.0315133444964885
0.0292886644601821
0.026868924498558
0.0241127777844667
0.0208352021872997
0.0168433804064989
0.0119858644902706
0.0061945673078298
-0.0004915669560432
-0.0079228579998016
-0.015855748206377
-0.0239865537732839
-0.0319919735193252
-0.0395675748586654
-0.0464587099850177
-0.0524792596697807
-0.0575157925486564
-0.0615152940154075
-0.0644625574350357
-0.066367968916893
-0.0672759413719177
-0.0672761052846908
-0.0665003135800361
-0.0651084706187248
-0.0632707104086875
-0.061149027198553
-0.0588807687163353
-0.0565659403800964
-0.0542617514729499
-0.051985140889883
-0.0497177019715309
-0.0474110804498195
-0.0449972562491893
-0.0424030534923076
-0.0395635776221752
-0.0364351980388164
-0.0330080166459083
-0.0293097980320453
-0.0253981575369834
-0.0213455371558666
-0.0172228999435901
-0.0130886640399694
-0.0089852157980203
-0.0049403849989175
-0.0009711701422929
0.0029117856174707
0.0066991336643695
0.0103789921849966
0.013937210664153
0.0173615720123052
0.0206464361399412
0.0237905662506818
0.0267879292368888
0.0296232961118221
0.0322763249278068
0.0347273498773574
0.0369612611830234
0.0389695316553115
0.0407512374222278
0.0423119515180587
0.0436608865857124
0.0448097810149192
0.0457725450396537
0.0465633198618888
0.0471949279308319
0.0476794838905334
0.0480291359126567
0.0482513234019279
0.0483402349054813
0.0482763685286045
0.0480378493666648
0.0476131699979305
0.0470046922564506
0.0462237223982811
0.04528534039855
0.0442050360143184
0.0429918728768825
0.0416308268904686
0.0400565825402736
0.0381387770175933
0.0356939770281314
0.0325218699872493
0.0284553300589323
0.0234017968177795
0.0173568949103355
0.0104024708271026
0.0027065882459282
-0.0054813744500279
-0.0138533255085349
-0.0220798701047897
-0.0298490673303604
-0.0368955694139003
-0.0430170223116874
-0.0480797812342643
-0.0520158037543296
-0.0548136308789253
-0.0565094351768493
-0.0571796149015426
-0.0569321364164352
-0.0559009574353694
-0.0542446039617061
-0.0521382950246334
-0.0497568733990192
-0.0472554340958595
-0.0447526648640632
-0.0423218160867691
-0.0399900041520595
-0.0377403460443019
-0.0355175621807575
-0.0332435630261898
-0.0308401864022016
-0.028245773166418
-0.025420656427741
-0.0223472565412521
-0.0190256405621767
-0.0154704041779041
-0.0117182619869709
-0.0078351078554987
-0.0039078025147318
-2.707820385694504e-05
0.0037259273231029
0.0072861234657466
0.0106073748320341
0.0136635275557637
0.0164454653859138
0.0189565308392047
0.0212100185453891
0.0232254937291145
0.0250231884419918
0.0266246944665908
0.0280605293810367
0.0293707530945539
0.0305923987179994
0.0317483842372894
0.0328517630696296
0.0339162573218345
0.034957081079483
0.0359830111265182
0.0369905531406402
0.0379646345973014
0.0388817824423313
0.0397115349769592
0.0404171012341976
0.0409575439989566
0.0412929989397525
0.0413920246064662
0.0412353575229644
0.0408110730350017
0.0401058942079544
0.0391042605042457
0.0377969369292259
0.0361901894211769
0.0343094542622566
0.0321969985961914
0.029900824651122
0.0274495910853147
0.0248200893402099
0.0219172686338424
0.018581848591566
0.0146229043602943
0.0098634082823991
0.0041894242167472
-0.0024099573493003
-0.0098304711282253
-0.0178715102374553
-0.0262683257460594
-0.0347236990928649
-0.0429379791021347
-0.0506361499428749
-0.0575874112546443
-0.063614584505558
-0.0685953497886657
-0.072459265589714
-0.0751843005418777
-0.0767944231629371
-0.077355571091175
-0.0769696235656738
-0.0757650732994079
-0.0738810896873474
-0.0714547634124755
-0.068621315062046
-0.0655140280723571
-0.0622515007853508
-0.0589208267629146
-0.0555694624781608
-0.0522083826363086
-0.0488197728991508
-0.0453644469380378
-0.0417923256754875
-0.0380573831498622
-0.0341313779354095
-0.0300107970833778
-0.025716483592987
-0.0212859418243169
-0.0167609043419361
-0.0121820466592907
-0.0075954012572765
-0.0030569303780794
0.0013714786618947
0.0056302985176444
0.0096738496795296
0.0134796472266316
0.0170487388968467
0.0203992016613483
0.0235577076673507
0.0265514235943555
0.0294021666049957
0.0321245230734348
0.0347256921231746
0.0372054316103458
0.0395597629249095
0.0417836531996727
0.0438645556569099
0.0457765236496925
0.0474861711263656
0.0489646047353744
0.0501945689320564
0.0511701479554176
0.0518974773585796
0.0523995757102966
0.0527144782245159
0.0528837405145168
0.0529421530663967
0.0529129616916179
0.0528046414256095
0.0526126883924007
0.0523303896188735
0.0519547276198864
0.0514757633209228
0.0508661642670631
0.0500859096646308
0.0490877255797386
0.0478066131472587
0.0461405739188194
0.0439423471689224
0.0410353280603885
0.0372509658336639
0.0324716381728649
0.0266618710011243
0.0198801476508378
0.0122737307101488
0.0040649287402629
-0.0044644474983215
-0.0129978824406862
-0.0212254989892244
-0.0288836248219013
-0.0357734039425849
-0.0417625159025192
-0.0467776097357273
-0.0507920831441879
-0.0538149699568748
-0.0558821745216846
-0.0570511594414711
-0.0574006102979183
-0.057029616087675
-0.0560533255338668
-0.0545970611274242
-0.052785437554121
-0.0507267490029335
-0.0485052429139614
-0.0461859218776226
-0.0438184291124343
-0.0414326004683971
-0.0390331745147705
-0.0365986041724681
-0.0340843684971332
-0.0314331538975238
-0.0285907704383134
-0.0255227405577898
-0.0222259908914566
-0.0187298785895109
-0.0150872571393847
-0.0113638825714588
-0.0076269265264272
-0.0039299270138144
-0.0003073383122682
0.0032138689421117
0.0066027482971549
0.0098244901746511
0.0128451418131589
0.0156357269734144
0.0181762762367725
0.0204593427479267
0.0224924907088279
0.0242980644106864
0.0259070508182048
0.0273489318788051
0.0286428779363632
0.0297946073114871
0.030801573768258
0.0316612347960472
0.032371811568737
0.0329246036708354
0.0333005562424659
0.0334783010184764
0.0334456898272037
0.033208142966032
0.0327928029000759
0.03224578499794
0.0316231362521648
0.0309785567224025
0.0303486250340938
0.0297405254095792
0.0291318669915199
0.0284852758049964
0.0277692843228578
0.0269709751009941
0.0260846279561519
0.0250765737146139
0.023851741105318
0.0222473964095115
0.0200576484203338
0.0170759484171867
0.0131420418620109
0.008181694895029
0.0022259466350078
-0.0045926887542009
-0.0120569057762622
-0.0198878459632396
-0.0277746170759201
-0.0354077592492103
-0.0425077602267265
-0.0488413795828819
-0.0542337894439697
-0.0585829690098762
-0.061862789094448
-0.0641075074672699
-0.0653901845216751
-0.0658055916428566
-0.065459981560707
-0.0644663497805595
-0.0629394873976707
-0.0609897039830684
-0.0587191954255104
-0.056220281869173
-0.0535726211965084
-0.0508365891873836
-0.0480427294969558
-0.0451852492988109
-0.0422290153801441
-0.0391277968883514
-0.0358404964208602
-0.0323381461203098
-0.0286059249192476
-0.024644237011671
-0.0204687882214784
-0.0161093473434448
-0.0116064045578241
-0.007005475461483
-0.002351950854063
0.0023107286542654
0.0069401338696479
0.011493481695652
0.0159288644790649
0.0202101580798625
0.024306708946824
0.0281827598810195
0.0317922495305538
0.0350877195596694
0.0380319729447364
0.0406049080193042
0.042806576937437
0.0446590594947338
0.0462080724537372
0.0475177615880966
0.0486554577946662
0.0496769323945045
0.0506206043064594
0.0515099130570888
0.0523647218942642
0.0532166734337806
0.0541088134050369
0.055075392127037
0.0561268366873264
0.0572521612048149
0.0584243834018707
0.0596003904938697
0.0607216209173202
0.0617203414440155
0.062527485191822
0.0630767196416854
0.0633069425821304
0.0631654784083366
0.0626060366630554
0.0615777820348739
0.0600111335515975
0.0578077659010887
0.0548386499285697
0.0509554296731948
0.0460211150348186
0.0399520248174667
0.0327522754669189
0.0245302505791187
0.0154956243932247
0.0059384945780038
-0.0038030389696359
-0.0133800748735666
-0.0224712900817394
-0.0308157391846179
-0.0382300242781639
-0.0446069911122322
-0.0499035790562629
-0.0541283525526523
-0.057336863130331
-0.0596326477825641
-0.0611598119139671
-0.0620824620127677
-0.0625609755516052
-0.0627345293760299
-0.062711663544178
-0.0625655651092529
-0.0623335093259811
-0.0620195046067237
-0.0615961030125618
-0.0610079057514667
-0.0601831749081611
-0.0590514056384563
-0.057555116713047
-0.0556509718298912
-0.0533140301704406
-0.0505515411496162
-0.0474088117480278
-0.0439578406512737
-0.0402800664305686
-0.0364544615149498
-0.0325523689389228
-0.0286354795098304
-0.0247529130429029
-0.0209379531443119
-0.0172091908752918
-0.0135752633213996
-0.0100376727059483
-0.0065935887396335
-0.0032411902211606
2.0014005713164806e-05
0.003192423377186
0.0062747187912464
0.0092519428580999
0.0120953833684325
0.0147727373987436
0.0172589924186468
0.0195407271385192
0.0216150861233472
0.0234875511378049
0.0251697115600109
0.0266776494681835
0.0280299242585897
0.0292436629533767
0.0303308200091123
0.0312975198030471
0.032146792858839
0.0328797250986099
0.033490601927042
0.0339621715247631
0.0342688634991645
0.0343846566975116
0.0342865213751792
0.0339493341743946
0.033331848680973
0.0323571115732193
0.0309027321636676
0.0288159009069204
0.0259484127163887
0.0221947133541107
0.0175207592546939
0.0119811259210109
0.0057224929332733
-0.001034821383655
-0.008033825084567
-0.015014411881566
-0.0217327997088432
-0.02797482162714
-0.0335676595568656
-0.0383872762322425
-0.0423589795827865
-0.0454502888023853
-0.0476596541702747
-0.0490078553557395
-0.0495357774198055
-0.0493074133992195
-0.0484111830592155
-0.0469520799815654
-0.0450374893844127
-0.0427710227668285
-0.0402573384344577
-0.0376012846827507
-0.034894973039627
-0.032205794006586
-0.0295741148293018
-0.0270204134285449
-0.0245568454265594
-0.0221932232379913
-0.0199330076575279
-0.0177668444812297
-0.0156690329313278
-0.0135952252894639
-0.0114819072186946
-0.0092473570257425
-0.0067950095981359
-0.0040302760899066
-0.00089056417346
0.0026333332061767
0.0064964983612298
0.0106131248176097
0.0148742441087961
0.0191625822335481
0.0233641136437654
0.0273797549307346
0.03113404661417
0.0345764011144638
0.0376772098243236
0.0404241122305393
0.0428202338516712
0.0448841825127601
0.0466512665152549
0.0481677055358886
0.0494734868407249
0.0505891814827919
0.051517903804779
0.0522545576095581
0.052794262766838
0.0531378090381622
0.0532944872975349
0.0532833747565746
0.0531303808093071
0.0528600513935089
0.0524870678782463
0.0520136728882789
0.0514347106218338
0.0507470294833183
0.049956988543272
0.049076858907938
0.0481093749403953
0.0470329336822032
0.0457921773195266
0.0442894026637077
0.0423826463520526
0.0399001985788345
0.0366680920124053
0.032542660832405
0.0274427346885204
0.0213712286204099
0.0144193898886442
0.0067594293504953
-0.0013685096055269
-0.0096766427159309
-0.0178586766123771
-0.0256271883845329
-0.0327517203986644
-0.0390808209776878
-0.044539850205183
-0.0491122081875801
-0.052815243601799
-0.0556804984807968
-0.057744100689888
-0.0590453967452049
-0.0596295110881328
-0.0595525950193405
-0.0588873997330665
-0.0577234923839569
-0.0561595261096954
-0.0542913451790809
-0.0521986931562423
-0.0499373897910118
-0.0475464761257171
-0.0450590476393699
-0.0425009243190288
-0.0398855954408645
-0.0372169911861419
-0.0344951003789901
-0.0317158624529838
-0.0288662612438201
-0.0259256903082132
-0.0228783190250396
-0.0197252985090017
-0.0164860133081674
-0.0131886862218379
-0.0098575372248888
-0.0065090185962617
-0.0031635053455829
0.0001406066585332
0.0033468122128397
0.006392269860953
0.0092207388952374
0.0117943417280912
0.0141019392758607
0.0161583367735147
0.0179956797510385
0.019652172923088
0.0211611315608024
0.0225445367395877
0.0238136667758226
0.0249733664095401
0.0260273553431034
0.0269850045442581
0.0278625693172216
0.0286730453372001
0.0294144563376903
0.0300677176564931
0.030603814870119
0.0309937056154012
0.0312160216271877
0.0312625542283058
0.0311388988047838
0.0308577250689268
0.0304309986531734
0.0298625938594341
0.0291325114667415
0.0281758122146129
0.0268774926662445
0.0250933989882469
0.0226812791079282
0.0195252262055873
0.0155556295067071
0.010770246386528
0.005249748006463
-0.0008429121226072
-0.0072813732549548
-0.0138048836961388
-0.0201489254832267
-0.0260730013251304
-0.0313811898231506
-0.0359330028295517
-0.039644069969654
-0.0424770042300224
-0.0444281026721
-0.0455183982849121
-0.0457955673336982
-0.0453441888093948
-0.0442872270941734
-0.0427701286971569
-0.0409393273293972
-0.0389245823025703
-0.0368286818265914
-0.0347265116870403
-0.0326677374541759
-0.0306769758462905
-0.0287518706172704
-0.0268640182912349
-0.0249671004712581
-0.0230079852044582
-0.0209320932626724
-0.0186861418187618
-0.0162298996001482
-0.0135534163564443
-0.0106836836785078
-0.0076762652024626
