bvp
-0.0145541969686746
-0.0185966212302446
-0.0220046676695346
-0.0245878901332616
-0.0262253060936927
-0.026874590665102
-0.0265762843191623
-0.0254476759582757
-0.0236637070775032
-0.0214324463158845
-0.0189756676554679
-0.0165107585489749
-0.0142275765538215
-0.0122673586010932
-0.0107113840058445
-0.0095772482454776
-0.0088200401514768
-0.008340667001903
-0.0080034183338284
-0.00766047462821
-0.0071784686297178
-0.0064613698050379
-0.0054618939757347
-0.0041777146980166
-0.0026399416383355
-0.0009046244085766
0.0009501951280981
0.002828037366271
0.0046218838542699
0.0062204487621784
0.007509022951126
0.0083699757233262
0.0086872326210141
0.0083566308021545
0.0073038032278418
0.0055053904652595
0.0030039243865758
-8.81877786014229e-05
-0.0035935947671532
-0.0072815543971955
-0.0108858477324247
-0.0141314724460244
-0.0167688261717557
-0.0186053663492202
-0.0195252764970064
-0.0194972418248653
-0.0185726713389158
-0.0168733354657888
-0.0145709291100502
-0.0118638183921575
-0.0089541021734476
-0.006027496419847
-0.0032387971878051
-0.0007031578570604
0.0015095239505171
0.0033780266530811
0.0049273720942437
0.0062159448862075
0.0073169488459825
0.0083051854744553
0.0092504722997546
0.010213897563517
0.0112456902861595
0.0123806726187467
0.0136317601427435
0.0149895474314689
0.0164277255535125
0.0179067328572273
0.0193742476403713
0.0207623150199651
0.0219797361642122
0.022908067330718
0.0234101302921772
0.0233438462018966
0.0225751996040344
0.0209997817873954
0.0185733325779438
0.0153334494680166
0.0114027559757232
0.0069798822514712
0.0023241676390171
-0.0022674985229969
-0.0064926338382065
-0.0100774690508842
-0.0128067918121814
-0.0145481247454881
-0.0152656566351652
-0.015014698728919
-0.0139194466173648
-0.0121518513187766
-0.0099187362939119
-0.0074461419135332
-0.0049560056068003
-0.0026414631865918
-0.0006460617296397
0.0009513720870018
0.0021437066607177
0.0029887370765209
0.0035887919366359
0.0040648393332958
0.0045328252017498
0.0050889425911009
0.0058057429268956
0.0067324610427021
0.0078927408903837
0.0092778466641902
0.0108408685773611
0.012503064237535
0.0141725018620491
0.0157607514411211
0.0171866659075021
0.0183673985302448
0.0192045383155345
0.019577782601118
0.0193542446941137
0.0184104945510625
0.0166601184755563
0.014080174267292
0.0107299955561757
0.0067565785720944
0.0023831683211028
-0.0021173499990254
-0.0064578098244965
-0.0103710629045963
-0.0136352758854627
-0.016089629381895
-0.0176438651978969
-0.0182834435254335
-0.0180676206946373
-0.0171176511794328
-0.0155979050323367
-0.0136942518875002
-0.0115939732640981
-0.009470971301198
-0.0074742101132869
-0.0057152472436428
-0.0042560948058962
-0.0031046748626977
-0.0022237286902964
-0.0015474737156182
-0.0009964229539036
-0.0004899993073195
4.1171442717313766e-05
0.0006482088938355
0.001365375239402
0.0022123665548861
0.0031924536451697
0.0042915591038763
0.005479731131345
0.0067128594964742
0.0079366248100996
0.0090929083526134
0.0101219452917575
0.0109525918960571
0.011486031115055
0.0115925977006554
0.0111304568126797
0.0099744377657771
0.0080457860603928
0.005338910035789
0.0019356980919837
-0.0019982969388365
-0.0062314099632203
-0.0104900756850838
-0.0144859021529555
-0.0179454609751701
-0.0206417590379714
-0.022420072928071
-0.0232089459896087
-0.023020202293992
-0.0219477899372577
-0.0201591663062572
-0.0178711749613285
-0.0153198549523949
-0.0127334920689463
-0.0103079667314887
-0.0081861466169357
-0.0064462102018296
-0.0051006991416215
-0.0041060331277549
-0.0033785831183195
-0.0028131445869803
-0.0023017402272671
-0.0017463560216128
-0.0010624048300087
-0.0001833273563534
0.0009257118217647
0.0022564763203263
0.0037617201451212
0.0053709778003394
0.007008153013885
0.008604310452938
0.0101019740104675
0.0114496909081935
0.0125907529145479
0.0134544288739562
0.0139540825039148
0.0139929251745343
0.0134758027270436
0.0123246796429157
0.0104997130110859
0.0080198915675282
0.0049695903435349
0.0014920458197593
-0.0022205486893653
-0.0059404633939266
-0.009426430799067
-0.0124519113451242
-0.0148303601890802
-0.0164334177970886
-0.0172034949064254
-0.0171571653336286
-0.0163775496184825
-0.0149995945394039
-0.0131908245384693
-0.011130828410387
-0.008992264047265
-0.0069256769493222
-0.005050138104707
-0.0034465482458472
-0.002152478788048
-0.0011615897528827
-0.0004270452191121
0.0001299442956224
0.0006040393491275
0.0010890294797718
0.0016667306190356
0.0023973705247044
0.0033117241691797
0.0044114259071648
0.0056748925708234
0.0070649771951138
0.008538850583136
0.0100516015663743
0.0115488218143582
0.0129598900675773
0.0141985472291708
0.0151657182723283
0.0157526731491088
0.0158470943570137
0.0153444595634937
0.014165042899549
0.0122717162594199
0.0096839256584644
0.0064874035306274
0.0028373287059366
-0.0010490897111594
-0.0049115060828626
-0.0084760189056396
-0.011492209509015
-0.0137679129838943
-0.0151912486180663
-0.0157375186681747
-0.0154626984149217
-0.0144857615232467
-0.012966364622116
-0.0110862432047724
-0.0090343877673149
-0.0069882431998848
-0.0050909672863781
-0.0034357174299657
-0.0020631339866667
-0.0009682435775175
-0.0001103656250052
0.000578032748308
0.0011803678935393
0.0017797355540096
0.0024444747250527
0.0032206471078097
0.0041292151436209
0.0051675220020115
0.0063148010522127
0.007539726793766
0.0088080931454896
0.0100873988121747
0.0113457711413502
0.0125467739999294
0.0136443637311458
0.0145805645734071
0.0152863841503858
0.0156844966113567
0.015689980238676
0.0152106853201985
0.0141559028998017
0.0124566676095128
0.0100910924375057
0.0071052415296435
0.0036209197714924
-0.0001732050441205
-0.0040426678024232
-0.0077339196577668
-0.0110032185912132
-0.0136450510472059
-0.0155151393264532
-0.0165430307388305
-0.0167320948094129
-0.0161488000303506
-0.0149101726710796
-0.0131754567846655
-0.0111341401934623
-0.0089828558266162
-0.006897475104779
-0.0050119673833251
-0.003409351222217
-0.0021235542371869
-0.0011474873172119
-0.0004418883472681
5.667516961693764e-05
0.0004280044231563
0.000760268419981
0.0011397819034755
0.0016395620768889
0.002313113072887
0.0031916873995214
0.0042769382707774
0.0055351443588733
0.0069031952880322
0.0083025405183434
0.0096540749073028
0.0108905546367168
0.0119617329910397
0.0128285689279437
0.013449627906084
0.0137689672410488
0.0137126734480261
0.0131941083818674
0.0121280569583177
0.0104563534259796
0.0081778615713119
0.005363421048969
0.0021478203125298
-0.0012886319309473
-0.0047400300391018
-0.007996623404324
-0.0108662424609065
-0.0131925139576196
-0.0148666854947805
-0.0158325750380754
-0.0160889383405447
-0.0156879015266895
-0.0147244874387979
-0.0133213596418499
-0.0116174053400754
-0.00975838676095
-0.0078819887712597
-0.0061027561314404
-0.0045058955438435
-0.0031445394270122
-0.0020379368215799
-0.0011754361912608
-0.000522312708199
-2.4362467229366302e-05
0.0003845803439617
0.0007724212482571
0.001200505066663
0.0017197080887854
0.0023673395626246
0.0031607896089553
0.0040928917005658
0.0051358258351683
0.006251472979784
0.0073983259499073
0.0085285454988479
0.0095817781984806
0.0104838646948337
0.011149046011269
0.0114834560081362
0.0113912969827651
0.0107851829379796
0.0096003953367471
0.0078113195486366
0.0054474780336022
0.0026023644022643
-0.0005716923624277
-0.0038797571323812
-0.0071047218516469
-0.0100298011675477
-0.0124638816341757
-0.0142661910504102
-0.0153609169647097
-0.0157382935285568
-0.0154476501047611
-0.0145876184105873
-0.0132944341748952
-0.0117254871875047
-0.0100384503602981
-0.0083733554929494
-0.0068417731672525
-0.0055204471573233
-0.004448153078556
-0.0036261174827814
-0.0030203328933566
-0.0025666933506727
-0.0021843661088496
-0.0017973737558349
-0.0013525797985494
-0.0008231357205659
-0.0002008236479014
0.0005120481364428
0.001305210404098
0.0021597989834845
0.0030501610599458
0.0039483211003243
0.0048277657479047
0.0056643960997462
0.0064329616725444
0.0070983837358653
0.0076067834161221
0.0078855911269783
0.0078516788780689
0.0074190460145473
0.0065109231509268
0.0050807357765734
0.0031316531822085
0.000726705417037
-0.0020112958736717
-0.0049096625298261
-0.0077644987031817
-0.0103664882481098
-0.0125297019258141
-0.01411516033113
-0.0150429112836718
-0.0152934482321143
-0.0149006024003028
-0.0139397447928786
-0.0125200478360056
-0.0107814548537135
-0.0088837789371609
-0.0069847991690039
-0.0052192769944667
-0.0036851745098829
-0.0024352874606847
-0.001473912037909
-0.0007612691260874
-0.0002273241989314
0.0002108039334416
0.0006356979720294
0.0011209910735487
0.0017233989201486
0.0024782794062048
0.0034023108892142
0.0044939736835658
0.0057280589826405
0.0070563023909926
0.0084157167002558
0.0097369374707341
0.0109517592936754
0.011997346766293
0.012813014909625
0.0133335264399647
0.0134874684736132
0.0132053196430206
0.0124347973614931
0.0111561585217714
0.0093914624303579
0.0072099063545465
0.0047293654642999
0.0021044318564236
-0.0004974869079887
-0.002915212418884
-0.0050039673224091
-0.0066455723717808
-0.007759204134345
-0.0083079896867275
-0.0083007048815488
-0.0077886297367513
-0.0068571809679269
-0.0056131961755454
-0.0041708745993673
-0.0026407772675156
-0.0011222162283957
0.0003055571578443
0.0015919958241283
0.0027138646692037
0.0036648460663855
0.0044499314390122
0.0050875982269644
0.0056113880127668
0.006065989844501
0.006498347967863
0.0069484119303524
0.0074439663439989
0.0079997461289167
0.008620292879641
0.0093035222962498
0.0100405095145106
0.0108133070170879
0.0115959607064723
0.0123568996787071
0.0130522400140762
0.0136097148060798
0.013922831043601
0.0138674620538949
0.0133295711129903
0.0122297424823045
0.0105409193783998
0.0082981903105974
0.0055989455431699
0.0025939487386494
-0.0005295171285979
-0.0035705808550119
-0.0063389292918145
-0.0086738895624876
-0.0104554034769535
-0.0116080055013298
-0.0121037503704428
-0.0119689898565411
-0.0112864607945084
-0.0101819857954978
-0.0088023925200104
-0.0072962045669555
-0.0057978951372206
-0.0044150501489639
-0.0032228310592472
-0.0022648249287158
-0.0015529653755947
-0.001065902877599
-0.0007534525357186
-0.0005487407324835
-0.0003792091738432
-0.0001728399656713
0.0001333283726125
0.0005822589737363
0.0011910138418897
0.0019501269562169
0.002827659714967
0.0037791687063872
0.0047573246993124
0.005716516636312
0.0066142985597252
0.0074082668870687
0.0080494526773691
0.0084789404645562
0.0086276996880769
0.0084189474582672
0.0077799223363399
0.0066637685522437
0.0050679091364145
0.0030364606063812
0.0006531418766826
-0.0019641991239041
-0.0046706073917448
-0.0073065785691142
-0.0097123002633452
-0.011742191389203
-0.013279803097248
-0.014249924570322
-0.0146251153200864
-0.0144276795908808
-0.01372901070863
-0.0126415695995092
-0.0112986862659454
-0.0098302103579044
-0.0083486475050449
-0.0069485334679484
-0.0057055978104472
-0.0046677608042955
-0.0038461827207356
-0.0032152426429092
-0.0027224407531321
-0.0023042391985654
-0.0019007052760571
-0.0014632819220423
-0.0009558637393638
-0.0003530189860612
0.0003601710195653
0.0011862843530252
0.0021166675724089
0.0031355947721749
0.0042195711284875
0.0053309728391468
0.0064167147502303
0.0074137691408395
0.0082520339637994
0.0088544012978672
0.0091407420113682
0.0090364627540111
0.0084841633215546
0.0074558602645993
0.0059606456197798
0.0040469961240887
0.0018030777573585
-0.0006463762838393
-0.0031491131521761
-0.0055371727794408
-0.0076423152349889
-0.0093185435980558
-0.0104643600061535
-0.0110341738909482
-0.0110372118651866
-0.0105289053171873
-0.0095996707677841
-0.0083636939525604
-0.0069482834078371
-0.0054823784157633
-0.0040833475068211
-0.0028428519144654
-0.0018157192971557
-0.0010176035575568
-0.0004287576302886
1.2470409274101255e-06
0.0003420752473175
0.000661983853206
0.0010099487844854
0.0014121793210506
0.001880376599729
0.0024191038683056
0.0030277911573648
0.0037023823242634
0.0044362377375364
0.0052176229655742
0.0060270046815276
0.0068362252786755
0.0076085850596427
0.0082991505041718
0.0088535966351628
0.0092071061953902
0.0092843510210514
0.0090013314038515
0.0082785384729504
0.0070656901225447
0.0053619872778654
0.0032226433977484
0.0007544051622971
-0.0018956226995214
-0.0045556183904409
-0.0070469444617629
-0.0092023061588406
-0.0108832707628607
-0.0119949001818895
-0.0124938320368528
-0.0123872682452201
-0.0117261931300163
-0.0106009915471076
-0.0091383066028356
-0.007487803697586
-0.0057994066737592
-0.0042035626247525
-0.0027979584410786
-0.0016377954743802
-0.0007339613512158
-6.188265979290009e-05
0.0004270509816706
0.0007970007136464
0.0011193701066076
0.0014643445611
0.0018940647132694
0.0024573088157922
0.0031855613924562
0.0040890988893806
0.0051531121134757
0.0063390773721039
0.0075926231220364
0.0088522946462035
0.0100560383871197
0.0111432829871773
0.0120512042194604
0.0127102676779031
0.0130447456613183
0.0129790753126144
0.0124499518424272
0.0114223128184676
0.00990198738873
0.0079408586025238
0.0056378375738859
0.0031321302521973
0.0005838342476636
-0.0018483269959688
-0.004022535867989
-0.0058242958039045
-0.0071739172562956
-0.0080313337966799
-0.0083979461342096
-0.0083120269700884
-0.007837776094675
-0.0070560569874942
-0.0060599129647016
-0.0049483124166727
-0.0038149419706314
-0.0027358443476259
-0.0017583395820111
-0.0008966026362031
-0.0001420001499354
0.000520471483469
0.0011066964361816
0.0016364303883165
0.0021330418530851
0.002620511688292
0.0031225830316543
0.0036625296343117
0.0042605642229318
0.0049294377677142
0.0056705903261899
0.006472366861999
0.0073114717379212
0.008159109391272
0.0089891534298658
0.0097776036709547
0.0104868859052658
0.0110489288344979
0.0113658895716071
0.0113293481990695
0.0108451833948493
0.0098527325317263
0.0083361538127064
0.0063303257338702
0.0039204349741339
0.0012349896132946
-0.0015649391571059
-0.0042998734861612
-0.0067910254001617
-0.0088805612176656
-0.0104468436911702
-0.0114159006625413
-0.0117704607546329
-0.0115502998232841
-0.0108420411124825
-0.0097647178918123
-0.0084555493667721
-0.0070552001707255
-0.0056922426447272
-0.0044690240174531
-0.0034505932126194
-0.0026602076832205
-0.0020843469537794
-0.0016834979178383
-0.0014038907829672
-0.0011860933154821
-0.0009686525445431
-0.0006945439381524
-0.0003236801130697
0.000159824732691
0.0007501461077481
0.0014249680098146
0.0021526452619582
0.0029026812408119
0.0036528066266328
0.0043869442306458
0.005087929777801
0.0057313423603773
0.0062810266390442
0.0066865198314189
0.0068850610405206
0.0068094911985099
0.0064008114859461
0.0056164315901696
0.0044308197684586
0.0028421347960829
0.0008877622894942
-0.0013467301614582
-0.0037343823350965
-0.0061251670122146
-0.0083675347268581
-0.0103268940001726
-0.0118968766182661
-0.0130025222897529
-0.0136009445413947
-0.0136846862733364
-0.013283877633512
-0.0124616473913192
-0.0113040851429104
-0.009911217726767
-0.0083929831162095
-0.0068642343394458
-0.0054323421791195
-0.0041819768957793
-0.0031641260720789
-0.0023917781654745
-0.0018417406827211
-0.0014610043726861
-0.00117769674398
-0.0009157962631434
-0.0006090885726734
-0.0002107885666191
0.0003025730838999
0.0009360715048387
0.001687163603492
0.0025493209250271
0.0035048238933086
0.0045198481529951
0.0055497460998594
0.0065473713912069
0.0074661644175648
0.0082565443590283
0.0088606104254722
0.0092123383656144
0.0092433476820588
0.0088903149589896
0.008104233071208
0.006862168200314
0.0051806503906846
0.0031281863339245
0.0008280868642032
-0.0015573822893202
-0.0038564284332096
-0.0059151193127036
-0.0076137231662869
-0.0088730435818433
-0.0096544064581394
-0.0099566960707306
-0.0098115783184766
-0.0092765241861343
-0.0084276851266622
-0.0073534399271011
-0.006146018858999
-0.0048921611160039
-0.0036667129024863
-0.0025280693080276
-0.0015123125631362
-0.0006299188244156
0.000128057989059
0.000777652603574
0.001335228793323
0.001818680902943
0.0022488576360046
0.0026499861851334
0.0030510430224239
0.0034830784425139
0.0039715529419481
0.0045309769921004
0.0051643294282257
0.0058622430078685
0.0066006109118461
0.0073435949161648
0.0080534871667623
0.0086934398859739
0.0092150131240487
0.0095463609322905
0.009597860276699
0.0092810522764921
0.0085274949669837
0.0073010586202144
0.0056059849448502
0.0034929406829178
0.0010586481075733
-0.0015644954983144
-0.0042241523042321
-0.0067617651075124
-0.0090241013094782
-0.0108758127316832
-0.0122118908911943
-0.012971251271665
-0.0131503129377961
-0.0128045519813895
-0.0120344208553433
-0.0109673244878649
-0.0097425216808915
-0.0084958784282207
-0.0073424261063337
-0.0063615147955715
-0.0055914260447025
-0.0050332769751548
-0.0046574128791689
-0.0044099176302552
-0.0042215748690068
-0.0040167858824133
-0.0037215610500425
-0.0032767744269222
-0.0026545186992734
-0.0018639131449162
-0.0009415042586624
6.41189981251955e-05
0.0011048994492739
0.0021420358680188
0.0031507303938269
0.0041186516173183
0.0050369212403893
0.0058864029124379
0.0066252201795578
0.007183589041233
0.007470553740859
0.0073937540873885
0.0068852417171001
0.0059190369211137
0.0045136092230677
0.0027280142530798
0.0006593239959329
-0.0015621704515069
-0.0037837293930351
-0.0058461776934564
-0.0076025174930691
-0.0089341681450605
-0.0097620114684104
-0.0100534185767173
-0.009824133478105
-0.0091337924823164
-0.00807611271739
-0.0067620682530105
-0.0052989553660154
-0.003778469748795
-0.0022800182923674
-0.0008769044652581
0.0003681136295199
0.0014164764434099
0.0022656531073153
0.0029491274617612
0.0035242605954408
0.0040563694201409
0.0046056932769715
0.0052189934067428
0.0059258937835693
0.0067393835633993
0.0076579661108553
0.0086677856743335
0.0097458632662892
0.0108613204210996
0.0119714029133319
0.0130192954093217
0.0139385713264346
0.0146598108112812
0.0151154324412345
0.0152413574978709
0.014978377148509
0.0142788402736186
0.013117616996169
0.0115007990971207
0.0094714881852269
0.0071147261187434
0.0045559434220194
0.0019497903995215
-0.000536932144314
-0.0027478984557092
-0.0045613516122102
-0.0059034447185695
-0.0067459065467119
-0.0070971921086311
-0.0069972090423107
-0.00651400629431
-0.0057364669628441
-0.0047625000588595
-0.0036860429681837
-0.002588088158518
-0.0015341145917773
-0.0005711987614631
0.0002793706953525
0.001026498619467
0.0017066283617168
0.0023735738359391
0.0030784967821091
0.003850994631648
0.0046960059553384
0.0056025553494691
0.0065530622377991
0.0075292903929948
0.0085143558681011
0.0094908289611339
0.010437786579132
0.0113306315615773
0.0121436985209584
0.012850934639573
0.0134224621579051
0.0138230146840214
0.0140130715444684
0.0139446593821048
0.0135551411658525
0.0127721056342124
0.0115316491574049
0.0097994580864906
0.0075848074629902
0.004945904482156
0.0019883294589817
-0.0011444590054452
-0.0042894082143902
-0.0072834608145058
-0.0099762771278619
-0.0122410729527473
-0.0139879332855343
-0.0151716414839029
-0.0157905369997024
-0.0158846601843833
-0.0155365318059921
-0.0148662375286221
-0.0140157649293541
-0.0131274070590734
-0.0123224491253495
-0.0116848750039935
-0.0112536195665597
-0.0110243130475282
-0.0109582422301173
-0.0109935663640499
-0.0110557060688734
-0.0110665690153837
-0.0109529187902808
-0.0106521463021636
-0.0101133473217487
-0.0093021132051944
-0.0082146944478154
-0.0068850619718432
-0.0053731501102447
-0.0037466981448233
-0.0020679419394582
-0.0003862779121845
0.0012591967824846
0.0028264478314667
0.0042566219344735
0.0054699168540537
0.006374049000442
0.0068829040974378
0.0069368928670883
0.0065163746476173
0.0056488411501049
0.004408124834299
0.0029004856478422
0.0012480514124035
-0.0004190558101981
-0.0019697367679327
-0.0032854529563337
-0.0042748297564685
-0.0048834113404154
-0.0050973333418369
-0.004940974060446
-0.0044696251861751
-0.0037603499367833
-0.0029017371125519
-0.0019805165939033
-0.0010693025542423
-0.0002215608255937
0.0005266715306788
0.0011520546395331
0.0016398119041696
0.001981227658689
0.0021746479906141
0.0022304528392851
0.0021731276065111
0.0020379116758704
0.0018677259795367
0.0017113200156018
0.0016181712271645
0.001630792976357
0.0017776851309463
0.0020682711619883
0.0024954911787062
0.0030448981560766
0.0036952930968254
0.0044084275141358
0.0051221894100308
0.005751485005021
0.00619149627164
0.0063258614391088
0.006045302376151
0.0052721966058015
0.0039799609221518
0.0022017082665115
2.8327107429504395e-05
-0.0024021039716899
-0.0049207750707864
-0.0073493150994181
-0.0095203630626201
-0.0112896235659718
-0.0125448554754257
-0.0132205756381154
-0.0133101185783743
-0.0128633771091699
-0.0119732543826103
-0.0107598509639501
-0.0093543119728565
-0.0078813349828124
-0.0064435987733304
-0.0051125446334481
-0.0039277118630707
-0.0029023932293057
-0.0020310564432293
-0.0012960491003468
-0.0006705282721668
-0.000117149320431
0.0004103622632101
0.0009576375596225
0.0015574315330013
0.0022244332358241
0.0029588115867227
0.0037506695371121
0.0045817736536264
0.0054278718307614
0.0062621217221021
0.0070572327822446
0.0077851302921772
0.0084142815321683
0.0089051723480224
0.0092056458815932
0.009251506999135
0.0089773964136838
0.0083313351497054
0.0072828880511224
0.0058287046849727
0.0039994940161705
0.0018640633206814
-0.0004702022997662
-0.0028625633567571
-0.0051538962870836
-0.0071869930252432
-0.0088265277445316
-0.0099757453426718
-0.0105848042294383
-0.010650148615241
-0.0102099366486072
-0.0093353511765599
-0.0081175360828638
-0.0066599855199456
-0.0050784167833626
-0.0034936033189296
-0.0020122472196817
-0.0007091052830219
0.0003791167400777
0.0012506959028542
0.001932963496074
0.0024744954425841
0.0029350602999329
0.0033756271004676
0.0038495035842061
0.0043935207650065
0.0050229481421411
0.0057370606809854
0.0065322685986757
0.0074079590849578
0.0083571150898933
0.0093532893806695
0.0103482585400342
0.0112781580537557
0.0120684262365102
0.0126384403556585
0.0129095911979675
0.0128118824213743
0.0122876120731234
0.0112978992983698
0.0098331561312079
0.0079231560230255
0.0056412620469927
0.0031009344384074
0.0004481236683204
-0.0021529751829802
-0.0045447563752532
-0.0065998542122542
-0.0082314359024167
-0.0093931080773472
-0.0100739747285842
-0.0102916229516267
-0.0100862616673111
-0.0095165269449353
-0.0086572738364338
-0.0075983246788382
-0.0064373528584837
-0.0052662761881947
-0.0041597839444875
-0.0031680974643677
-0.0023114955984055
-0.00158152426593
-0.0009514824487268
-0.0003885561600327
0.0001382280606776
0.0006548671517521
0.0011826287955045
0.0017371627036482
0.0023263613693416
0.0029515207279473
0.0036108626518398
0.0043021161109209
0.0050238841213285
0.0057740644551813
0.0065431902185082
0.0073067666962742
0.0080210482701659
0.0086189415305852
0.0090061742812395
0.0090683959424495
0.0086938347667455
0.0078009692952036
0.0063589187338948
0.0043973643332719
0.0020087345037609
-0.0006584209622815
-0.0034195419866591
-0.0060806814581155
-0.0084583722054958
-0.0103942155838012
-0.0117700640112161
-0.0125178731977939
-0.0126194022595882
-0.0121038192883133
-0.0110497632995247
-0.0095832720398902
-0.0078628193587064
-0.0060554356314241
-0.0043129310943186
-0.0027541329618543
-0.0014535759110003
-0.0004374259151518
0.0003106778021901
0.0008374663302674
0.0012090159580111
0.0015013306401669
0.0017876509809866
0.00212611281313
0.0025573284365236
0.0031077894382178
0.0037880451418459
0.0045882938429713
0.0054791900329291
0.0064175683073699
0.0073540480807423
0.0082400226965546
0.0090322047472
0.0096956128254532
0.0102013861760497
0.0105153135955333
0.0105884689837694
0.0103616630658507
0.0097780749201774
0.0087981168180704
0.0074153617024421
0.0056651122868061
0.0036204743664711
0.0013833075063303
-0.0009236608748324
-0.0031642229296267
-0.005198401864618
-0.0068968757987022
-0.0081575214862823
-0.0089185815304517
-0.0091659184545278
-0.0089322933927178
-0.008290372788906
-0.0073449672199785
-0.0062208687886595
-0.0050407140515744
-0.0039028436876833
-0.0028739471454173
-0.0019955004099756
-0.001290867337957
-0.0007667016470804
-0.0004119715304113
-0.000198017747607
-8.091353811323643e-05
-7.369904778897762e-06
7.614889182150364e-05
0.0002163657918572
0.0004515345208346
0.0008092179195955
0.0012995796278119
0.0019108884735032
0.0026142497081309
0.0033758780919015
0.0041652829386293
0.0049515767022967
0.0056958151981234
0.0063448920845985
0.006826089695096
0.0070481463335454
0.006911939010024
0.0063259033486247
0.0052234334871172
0.0035810510162264
0.0014314348809421
-0.001134849153459
-0.0039788670837879
-0.0069306707009673
-0.0098088271915912
-0.0124356588348746
-0.014650990255177
-0.0163309164345264
-0.0174060147255659
-0.0178691800683736
-0.017771940678358
-0.0172129534184932
-0.0163215585052967
-0.0152379497885704
-0.0140927182510495
-0.0129902064800262
-0.0119982184842228
-0.0111463712528347
-0.0104323271661996
-0.0098285805433988
-0.0092864222824573
-0.0087418360635638
-0.0081270188093185
-0.0073845731094479
-0.0064773289486765
-0.0053908005356788
-0.0041313343681395
-0.0027228957042098
-0.0012020040303468
0.0003898735158145
0.0020135981030762
0.0036365557461977
0.0052330000326037
0.0067782434634864
0.0082372454926371
0.0095537779852747
0.0106472102925181
0.0114210350438952
0.0117783173918724
0.01163534168154
0.010933862067759
0.0096555408090353
0.0078350501134991
0.0055647976696491
0.0029877452179789
0.0002813013270497
-0.0023612272925674
-0.0047487188130617
-0.0067109884694218
-0.00811702106148
-0.0088883452117443
-0.0090042613446712
-0.0084989434108138
-0.0074529955163598
-0.0059838676825165
-0.0042366795241832
-0.002370080910623
-0.0005352403968572
0.0011447286233305
0.0025874366983771
0.0037550423294305
0.0046512512490153
0.0053133224137127
0.0058034528046846
0.0062020290642976
0.0065978816710412
0.0070726224221289
0.0076869069598615
0.0084762629121541
0.0094544505700469
0.0106155825778841
0.0119299357756972
0.0133426552638411
0.0147824566811323
0.0161726363003253
0.0174371786415576
0.0185011867433786
0.0192887112498283
0.0197219513356685
0.0197216439992189
0.0192102864384651
0.0181232634931802
0.0164261721074581
0.0141312163323163
0.0113102365285158
0.0081014679744839
0.0046978117898106
0.0013145774137228
-0.0018436834216117
-0.0046033221296966
-0.0068318443372845
-0.0084429122507572
-0.0093976166099309
-0.0097033958882093
-0.0094119170680642
-0.0086155524477362
-0.0074386722408235
-0.0060218214057385
-0.0045032398775219
-0.0030036293901503
-0.0016144744586199
-0.0003882974851876
0.0006613568402826
0.0015460124704986
0.0022889832034707
0.0029234015382826
0.0034927735105156
0.00404545199126
0.0046268980950117
0.0052740573883056
0.0060105915181338
0.0068436185829341
0.0077637443318963
0.0087464293465018
0.0097539629787206
0.0107408314943313
0.0116611458361148
0.0124701373279094
0.0131145883351564
0.0135194212198257
0.0135843139141798
0.0131963249295949
0.0122528132051229
0.0106854867190122
0.0084796100854873
0.0056851576082408
0.0024165152572095
-0.0011603916063904
-0.0048452597111463
-0.0084169553592801
-0.0116507709026336
-0.0143457716330885
-0.0163505002856254
-0.0175754837691783
-0.0179978720843791
-0.0176659040153026
-0.0166975557804107
-0.0152640379965305
-0.0135602783411741
-0.0117750633507967
-0.0100698405876755
-0.0085645848885178
-0.0073301526717841
-0.0063896058127284
-0.0057250829413533
-0.0052882470190525
-0.0050128223374485
-0.0048221349716186
-0.0046317842788994
-0.004355133511126
-0.0039161955937743
-0.0032660970464348
-0.002391813788563
-0.001313442364335
-7.745390757918358e-05
0.0012502302415668
0.0025943866930902
0.0038825813680887
0.0050510135479271
0.0060404818505048
0.0067876270040869
0.007220085710287
0.007259720005095
0.0068310368806123
0.0058750724419951
0.0043683815747499
0.0023356638848781
-0.0001509813591837
-0.0029784813523292
-0.0059999315999448
-0.0090453317388892
-0.0119351930916309
-0.014494564384222
-0.0165674109011888
-0.0180311165750026
-0.0188098698854446
-0.0188835747539997
-0.0182902365922927
-0.017122296616435
-0.0155152790248394
-0.0136278606951236
-0.0116182900965213
-0.0096262991428375
-0.0077648097649216
-0.0061167404055595
-0.0047333012335002
-0.0036340574733912
-0.0028060877230018
-0.0022026929073035
-0.0017485129646956
-0.0013517995830625
-0.0009180401684716
-0.0003626933321356
0.0003765863366425
0.001330281374976
0.0024934541434049
0.003831333015114
0.0052936756983399
0.00682685803622
0.0083721783012151
0.0098571572452783
0.0111921727657318
0.0122727351263165
0.0129845552146434
0.013213169761002
0.0128584448248147
0.0118519468232989
0.0101749878376722
0.0078718122094869
0.0050512384623289
0.0018764364067465
-0.0014516119845211
-0.0047123576514422
-0.0076845288276672
-0.0101688699796795
-0.0120145417749881
-0.0131375100463628
-0.0135238738730549
-0.0132238967344164
-0.0123401395976543
-0.011010069400072
-0.009388037957251
-0.0076301111839711
-0.0058794696815311
-0.0042514456436038
-0.0028239227831363
-0.0016360646113753
-0.0006898866267874
4.7653913497924805e-05
0.0006379325641319
0.0011558134574443
0.0016693251673132
0.002225738717243
0.0028521728236228
0.0035635768435895
0.0043675145134329
0.0052641443908214
0.006244933232665
0.0072933388873934
0.0083884485065937
0.009506843984127
0.0106187453493475
0.0116820940747857
0.0126383267343044
0.0134123796597123
0.0139183439314365
0.0140646174550056
0.0137569643557071
0.0129099357873201
0.0114689534530043
0.0094328848645091
0.0068689491599798
0.0039137764833867
0.0007582220132462
-0.0023769102990627
-0.0052671497687697
-0.0077117001637816
-0.0095590148121118
-0.0107233067974448
-0.0111870402470231
-0.0109909893944859
-0.010218490846455
-0.0089823752641677
-0.0074183074757456
-0.0056786555796861
-0.0039191180840134
-0.002279118169099
-0.0008636681595817
0.0002682012272998
0.0011067270534113
0.0016853311099112
0.0020688970107585
0.002341633895412
0.0025933810975402
0.0029047676362097
0.0033382216934114
0.0039377403445541
0.0047319941222667
0.0057309954427182
0.0069152223877608
0.0082325786352157
0.0096106985583901
0.0109715107828378
0.0122376168146729
0.0133323688060045
0.0141764851287007
0.0146839153021574
0.0147640192881226
0.0143337063491344
0.0133331790566444
0.0117372144013643
0.0095608094707131
0.0068652736954391
0.0037673655897378
0.0004382277838885
-0.0029193619266152
-0.0061019831337034
-0.0089275278151035
-0.0112498113885521
-0.0129694286733865
-0.0140376538038253
-0.0144558530300855
-0.0142740309238433
-0.0135840596631169
-0.0125047164037823
-0.0111633772030472
-0.009679757989943
-0.008155875839293
-0.0066714682616293
-0.0052795773372054
-0.0040061809122562
-0.0028581726364791
-0.0018303878605365
-0.0009077463764697
-6.788736209273338e-05
0.0007176150102168
0.0014832532033324
0.0022643629927188
0.0030888495966792
0.0039733136072754
0.0049231527373194
0.0059315194375813
0.0069787539541721
0.0080360602587461
0.0090703545138239
0.0100462585687637
0.010921829380095
0.0116358883678913
0.0120973084121942
0.0121911345049738
0.0118005014955997
0.0108326580375432
0.0092409597709774
0.0070385076105594
0.0043028518557548
0.0011723348870873
-0.0021680435165762
-0.0055093150585889
-0.0086412793025374
-0.0113702127709984
-0.0135341081768274
-0.0150173977017402
-0.0157639905810356
-0.0157861560583114
-0.0151628125458955
-0.0140248658135533
-0.0125342831015586
-0.0108619574457407
-0.0091665713116526
-0.0075786476954817
-0.0061919135041534
-0.0050601470284163
-0.0041973595507442
-0.0035816926974803
-0.0031626338604837
-0.00286974478513
-0.0026225252076983
-0.0023401679936796
-0.0019529529381543
-0.0014167744666337
-0.0007223498541861
0.0001097610220313
0.001043985132128
0.0020400360226631
0.003053247462958
0.0040347874164581
0.0049373051151633
0.0057179131545126
0.0063330372795462
0.0067319627851247
0.0068548442795872
0.0066351518034935
0.0060099666006863
0.0049373763613402
0.0034091803245246
0.0014537000097334
-0.0008632722310721
-0.0034357563126832
-0.0061203311197459
-0.0087497411295771
-0.0111512877047061
-0.0131632778793573
-0.0146518982946872
-0.015528199262917
-0.0157586894929409
-0.0153655530884861
-0.0144168166443705
-0.0130137354135513
-0.0112808942794799
-0.0093525182455778
-0.0073574902489781
-0.0054143131710588
-0.0036283591762185
-0.002081046346575
-0.0008176839910447
0.0001578248338773
0.0008804738172329
0.0014146479079499
0.0018387431045994
0.0022293063811957
0.0026514483615756
0.0031554161105304
0.0037732934579253
0.0045147044584155
0.0053683230653405
0.0063118711113929
0.0073202000930905
0.0083610601723194
0.0093852104619145
0.0103232469409704
0.0110903345048427
0.011594065465033
0.0117433061823248
0.0114576872438192
0.0106781106442213
0.0093785189092159
0.0075754984281957
0.0053321933373808
0.002756961621344
-3.584311343729496e-06
-0.0027758264914155
-0.0053721605800092
-0.0076104174368083
-0.0093405386433005
-0.0104662748053669
-0.0109520470723509
-0.0108185205608606
-0.0101343896239995
-0.0090055624023079
-0.0075617250986397
-0.0059410841204226
-0.0042740385979413
-0.00267219170928
-0.0012243441306054
8.29482451081276e-06
0.000997161027044
0.0017469986341893
0.0022941261995583
0.0026995753869414
0.0030333660542964
0.0033581871539354
0.0037208620924502
0.0041500735096633
0.0046589449048042
0.0052514350973069
0.0059265792369842
0.0066779674962162
0.0074921776540577
0.0083499131724238
0.0092281913384795
0.0100980997085571
0.0109168644994497
0.0116199711337685
0.012122644111514
0.012330412864685
0.012150689959526
0.0115085439756512
0.0103685669600963
0.0087507823482155
0.006732802838087
0.0044414279982447
0.0020397382322698
-0.0002890629693865
-0.002364105079323
-0.0040322076529264
-0.0051871128380298
-0.0057791778817772
-0.0058172103017568
-0.0053600189276039
-0.0044987108558416
-0.0033436478115618
-0.0020216202829033
-0.0006700344383716
0.0005794694880023
0.0016206598374992
0.0023870011791586
0.0028580108191818
0.0030584533233195
0.003050273284316
0.0029167323373258
0.0027441680431365
0.0026104194112122
0.0025804329197853
0.0027032140642404
0.0030098848510533
0.0035148356109857
0.0042145233601331
0.005080830771476
0.0060579283162951
0.0070684412494301
0.0080247232690453
0.008841129951179
0.0094415806233882
0.0097580812871456
0.0097265671938657
0.0092875687405467
0.0083927605301141
0.0070174001157283
0.0051752403378486
0.0029263999313116
0.0003746156580746
-0.0023419770877808
-0.0050684479065239
-0.0076575768180191
-0.0099861659109592
-0.0119574684649705
-0.013500259257853
-0.0145709719508886
-0.0151581615209579
-0.0152851324528455
-0.0150059098377823
-0.01439655944705
-0.0135450540110468
-0.0125408479943871
-0.0114659164100885
-0.0103870360180735
-0.0093482788652181
-0.0083646271377801
-0.0074245696887373
-0.0065051596611738
-0.0055854693055152
-0.0046494249254465
-0.0036846888251602
-0.0026813980657607
-0.0016307244077324
-0.0005251864204183
0.000639705103822
0.0018645233940333
0.0031454148702323
0.0044721169397234
0.0058241877704858
0.0071679856628179
0.0084570702165365
0.00963288359344
0.0106181101873517
0.0113065410405397
0.0115670319646596
0.0112684983760118
0.0103135164827108
0.0086647951975464
0.0063566286116838
0.003493744879961
0.0002417019568383
-0.0031915712170302
-0.0065798270516097
-0.009702906012535
-0.0123704932630062
-0.0144428927451372
-0.015841132029891
-0.0165418796241283
-0.0165685899555683
-0.0159908682107925
-0.0149236284196376
-0.0135161206126213
-0.01193334069103
-0.0103333927690982
-0.0088461088016629
-0.0075599560514092
-0.0065161003731191
-0.005706915166229
-0.0050825355574488
-0.0045662270858883
-0.0040714349597692
-0.0035134023055434
-0.0028157862834632
-0.0019178744405508
-0.0007866472005844
0.0005712904967367
0.0021091171074658
0.0037519494071602
0.0054141776636242
0.0070156343281269
0.0084915589541196
0.0097924666479229
0.0108752511441707
0.011692015454173
0.0121814552694559
0.01226741168648
0.0118712000548839
0.0109344366937875
0.0094418264925479
0.0074420785531401
0.005064234137535
0.0025166571140289
6.413320079445839e-05
-0.0020092541817575
-0.0034431335516273
-0.0040409113280475
-0.003698798129335
-0.0024222421925514
-0.000329109840095
0.0023660417646169
0.0053847702220082
0.00842204131186
0.0111808506771922
0.0134043181315064
0.0149037186056375
0.0155774550512433
0.0154141522943973
0.0144795002415776
0.0128964427858591
0.0108271213248372
0.0084567256271839
0.0059744864702224
0.0035528722219169
0.0013332683593034
-0.0005803462699986
-0.0021237898617982
-0.0032718717120587
-0.0040341219864785
-0.0044476063922047
-0.0045690098777413
-0.0044669969938695
-0.0042148018255829
-0.0038907504640519
-0.0035907900892198
-0.0034370552748441
-0.003567864652723
-0.0041153351776301
-0.0051821460947394
-0.0068220198154449
-0.0090256230905652
-0.0117147592827677
-0.0147471483796834
-0.0179305132478475
-0.02104327455163
-0.0238587576895952
-0.0261683519929647
-0.0277999639511108
-0.0286313127726316
-0.0286020264029502
-0.0277247093617916
-0.0260848719626665
-0.0238244105130434
-0.0211172215640544
-0.0181475132703781
-0.0150930080562829
-0.0121089713647961
-0.009313971735537
-0.0067827180027961
-0.0045456364750862
-0.0025937287136912
-0.0008882917463779
0.0006292462348937
0.0020298669114708
0.0033894050866365
0.0047778049483895
0.0062448997050523
0.0078090075403451
0.0094556901603937
0.0111472504213452
0.0128361592069268
0.0144741348922252
0.0160146951675415
0.0174110904335975
0.0186095852404832
0.0195399466902017
0.0201113764196634
0.0202196482568979
0.0197645276784896
0.0186755862087011
0.0169396251440048
0.0146147944033145
0.0118232974782586
0.0087329149246215
0.0055408533662557
0.002459111623466
-0.0003058603033423
-0.0025758948177099
