bvp
0.0106429550796747
0.0124191120266914
0.0140581941232085
0.0154996151104569
0.0167111884802579
0.017688937485218
0.018453599885106
0.0190450958907604
0.0195147041231393
0.0199157074093818
0.020296286791563
0.0206987634301185
0.0211612749844789
0.0217144638299942
0.0223759785294532
0.0231510270386934
0.0240379031747579
0.0250280164182186
0.0260961391031742
0.0271910298615694
0.0282368250191211
0.029142428189516
0.0298097357153892
0.0301370881497859
0.030022993683815
0.0293749757111072
0.0281219594180583
0.0262295007705688
0.0237173251807689
0.0206695683300495
0.0172302015125751
0.0135907474905252
0.0099747953936457
0.0066101159900426
0.0036918930709362
0.0013600597158074
-0.0003034751862287
-0.0012736720964312
-0.0015834616497159
-0.0013200566172599
-0.0006123250350356
0.0003862110897898
0.0015140566974878
0.0026177298277616
0.0035643083974719
0.0042513478547334
0.0046184929087758
0.0046551111154258
0.0043961466290056
0.0039080660790205
0.0032703960314393
0.0025592520833015
0.0018389951437711
0.0011608190834522
0.0005630422383546
7.148366421461105e-05
-0.0002989368513226
-0.000542645342648
-0.0006628073751926
-0.0006668586283922
-0.0005601467564702
-0.0003474447876214
-4.092976450920105e-05
0.0003344258293509
0.000739668495953
0.0011186804622411
0.001390716060996
0.0014481479302048
0.0011704675853252
0.0004539284855127
-0.0007573291659355
-0.0024540368467569
-0.0045597339048981
-0.0069373473525047
-0.0094018941745162
-0.0117401657626032
-0.0137385390698909
-0.0152130424976348
-0.0160307325422763
-0.01611864939332
-0.0154650062322616
-0.0141201317310333
-0.0121966302394866
-0.00985705293715
-0.0072870356962084
-0.0046681119129061
-0.0021597947925329
0.0001138318330049
0.0020763473585247
0.0037022046744823
0.0050083678215742
0.0060438318178057
0.0068814600817859
0.0076064052991569
0.0083000864833593
0.0090294554829597
0.0098461359739303
0.0107857249677181
0.0118605084717273
0.0130549082532525
0.0143322702497243
0.0156447812914848
0.0169376712292432
0.0181529689580202
0.0192336179316043
0.0201205611228942
0.0207471624016761
0.0210389122366905
0.0209176149219274
0.0203108675777912
0.0191660728305578
0.0174629259854555
0.0152248637750744
0.0125269470736384
0.0094910748302936
0.0062729446217417
0.0030481708236038
-4.547648131847382e-06
-0.0027222163043916
-0.0049735167995095
-0.0066687576472759
-0.0077647166326642
-0.0082677844911813
-0.0082330582663416
-0.0077553205192089
-0.0069549246691167
-0.0059627071022987
-0.004903738386929
-0.0038835883606225
-0.0029853875748813
-0.0022751656360924
-0.0018027327023446
-0.0015943842008709
-0.001644690753892
-0.0019149077124893
-0.0023392499424517
-0.00283312657848
-0.0033008295577019
-0.003648710437119
-0.003803210100159
-0.0037220539525151
-0.0033956703264266
-0.0028444109484553
-0.0021090917289257
-0.0012357686646282
-0.0002695485018193
0.0007364838384091
0.0017109829932451
0.0025645871646702
0.0031963912770152
0.0035006729885935
0.0033792369067668
0.0027619409374892
0.0016252798959612
-2.514570951461792e-07
-0.002032795920968
-0.0043460270389914
-0.0067804921418428
-0.009163181297481
-0.0113296657800674
-0.013138823211193
-0.0144830252975225
-0.0153002208098769
-0.0155815528705716
-0.0153680108487606
-0.0147396996617317
-0.0138036487624049
-0.012681869789958
-0.011497801169753
-0.0103637501597404
-0.009372342377901
-0.0085885934531688
-0.0080438219010829
-0.0077357925474643
-0.0076327249407768
-0.0076775373890995
-0.0077914474532008
-0.007881031371653
-0.0078544933348894
-0.007641636300832
-0.0072063747793436
-0.0065481262281537
-0.0056927893310785
-0.0046776439994573
-0.0035401149652898
-0.0023169186897575
-0.0010478266049176
0.0002255713043268
0.0014614108949899
0.0026092927437275
0.0036000641994178
0.0043489239178597
0.0047710677608847
0.0047950283624231
0.0043673762120306
0.0034594726748764
0.0020823983941227
0.0003009650972671
-0.0017648648936301
-0.0039533348754048
-0.0060816649347543
-0.0079687712714076
-0.0094569362699985
-0.0104269180446863
-0.0108065567910671
-0.0105777690187096
-0.0097780665382742
-0.008488729596138
-0.0068154144100844
-0.0048767956905066
-0.0028042355552315
-0.0007369853556156
0.0011968528851866
0.0029019038192927
0.0043255388736724
0.0054587172344326
0.006334651261568
0.0070220069028437
0.0076103680767118
0.0081942602992057
0.008860433474183
0.0096791656687855
0.0106982588768005
0.0119388457387685
0.0133943259716033
0.0150302834808826
0.0167842172086238
0.0185704063624143
0.0202891957014799
0.0218346416950225
0.0231017954647541
0.0239940714091062
0.024426095187664
0.0243257880210876
0.0236445143818855
0.0223706159740686
0.0205341354012489
0.0182053353637456
0.0154955899342894
0.0125555992126464
0.0095646195113658
0.006709927227348
0.0041577639058232
0.0020282436162233
0.0003858241252601
-0.0007588816806674
-0.0014427714049816
-0.0017414991743862
-0.0017599035054445
-0.0016216873191297
-0.0014572897925972
-0.0013913311995565
-0.0015312978066504
-0.0019566277042031
-0.0027091745287179
-0.00378675526008
-0.0051415986381471
-0.0066913152113556
-0.0083412192761898
-0.0100008137524127
-0.0115871345624327
-0.013025814667344
-0.0142590384930372
-0.0152555834501981
-0.0160131901502609
-0.0165543295443058
-0.0169204846024513
-0.0171642750501632
-0.0173432175070047
-0.0175193883478641
-0.0177617743611335
-0.0181468985974788
-0.0187535434961318
-0.0196548290550708
-0.0209129732102155
-0.0225692633539438
-0.0246264711022377
-0.0270338747650384
-0.0296799633651971
-0.0323964990675449
-0.0349794253706932
-0.0372170507907867
-0.0389137603342533
-0.0399112291634082
-0.0401041954755783
-0.0394466444849967
-0.0379546098411083
-0.0357039719820022
-0.0328187458217144
-0.029458362609148
-0.0258076526224613
-0.0220617074519395
-0.0184033997356891
-0.0149788782000541
-0.0118785612285137
-0.0091298539191484
-0.0067025087773799
-0.0045219920575618
-0.0024850666522979
-0.0004762839525938
0.0016133692115545
0.0038693398237228
0.006343200802803
0.00905042886734
0.0119773633778095
0.0150922704488039
0.0183503739535808
0.0216935500502586
0.0250503867864608
0.0283379219472408
0.0314646735787391
0.0343307666480541
0.0368246920406818
0.0388258174061775
0.0402183607220649
0.0409099869430065
0.0408468469977378
0.0400279983878135
0.038520622998476
0.0364639461040496
0.0340544357895851
0.0315175279974937
0.0290762484073638
0.0269273333251476
0.0252243112772703
0.0240626577287912
0.0234712958335876
0.0234122518450021
0.0237843561917543
0.024434795603156
0.0251824352890253
0.0258442889899015
0.0262571293860673
0.0262965522706508
0.0258934684097766
0.0250430274754762
0.0238051116466522
0.0222925469279289
0.0206434689462184
0.0189897324889898
0.0174382999539375
0.0160687174648046
0.0149348024278879
0.0140604488551616
0.0134357884526252
0.0130221582949161
0.0127623807638883
0.0125921331346035
0.0124479960650205
0.0122655015438795
0.0119728734716773
0.0114933820441365
0.0107547156512737
0.0096905287355184
0.008233880624175
0.0063211959786713
0.003910778556019
0.0010021082125604
-0.0023503364063799
-0.0060316091403365
-0.0098732411861419
-0.0136679094284772
-0.0171885713934898
-0.0202144272625446
-0.0225588846951723
-0.0240918081253767
-0.0247545540332794
-0.0245658103376626
-0.0236152596771717
-0.0220517721027135
-0.0200713090598583
-0.0178971514105796
-0.015748593956232
-0.0138066485524177
-0.0121895233169198
-0.0109430318698287
-0.0100418683141469
-0.0093999039381742
-0.0088908644393086
-0.0083758346736431
-0.0077295275405049
-0.0068602277897298
-0.0057210852392017
-0.0043092807754874
-0.0026561534032225
-0.0008186856284737
0.0011241780593991
0.0030766418203711
0.0049376664683222
0.0066148284822702
0.0080300597473979
0.009114890359342
0.0098033417016267
0.0100285895168781
0.0097247492522001
0.0088362414389848
0.0073352046310901
0.0052376985549926
0.0026076287031173
-0.0004482381045818
-0.0037838649004697
-0.0072213998064398
-0.0105720264837145
-0.0136620998382568
-0.0163528490811586
-0.0185500308871269
-0.0202037170529365
-0.0213030446320772
-0.021871231496334
-0.0219616834074258
-0.0216534342616796
-0.0210429094731807
-0.0202312860637903
-0.0193133559077978
-0.0183721892535686
-0.0174727365374565
-0.0166500844061374
-0.015904689207673
-0.0152126476168632
-0.0145392911508679
-0.0138468565419316
-0.0131009183824062
-0.0122777596116065
-0.0113677727058529
-0.0103730699047446
-0.0093039646744728
-0.0081789242103695
-0.0070256106555461
-0.0058800913393497
-0.0047871521674096
-0.0038027251139283
-0.0029955180361866
-0.0024448791518807
-0.0022353501990437
-0.0024513714015483
-0.0031687053851783
-0.0044372919946908
-0.0062620621174573
-0.0085931159555912
-0.0113271158188581
-0.0143141550943255
-0.0173690915107727
-0.0202892161905765
-0.0228742957115173
-0.0249430369585752
-0.0263453479856252
-0.0269721802324056
-0.026761170476675
-0.0256981942802667
-0.0238211713731288
-0.0212264638394117
-0.0180664863437414
-0.0145326629281044
-0.0108315525576472
-0.0071603804826736
-0.0036833118647336
-0.000514349900186
0.0022885557264089
0.0047201085835695
0.0068172230385243
0.0086450660601258
0.0102828107774257
0.0118087995797395
0.0132883442565798
0.0147682111710309
0.0162732489407062
0.0178017579019069
0.0193255245685577
0.0207982417196035
0.0221671015024185
0.0233793072402477
0.0243795905262231
0.0251038894057273
0.0254768952727317
0.0254169069230556
0.0248485654592514
0.023718524724245
0.0220080055296421
0.019744124263525
0.0170105807483196
0.0139476843178272
0.0107326004654169
0.0075484663248062
0.0045613693073391
0.001912448555231
-0.000283358618617
-0.0019421316683292
-0.0030194269493222
-0.0035150963813066
-0.0034704562276601
-0.0029611559584736
-0.0020889109000563
-0.0009694546461105
0.0002821311354637
0.0015625692903995
0.0027898717671632
0.0039138346910476
0.0049187913537025
0.0058141569606959
0.006622340530157
0.0073710433207452
0.0080889333039522
0.008803367614746
0.0095388777554035
0.0103152357041835
0.0111450208351016
0.0120317107066512
0.0129700470715761
0.0139487367123365
0.0149518400430679
0.0159564036875963
0.0169301480054855
0.01782938092947
0.0185906514525413
0.0191210433840751
0.0193017572164535
0.0190067961812019
0.0181289259344339
0.0166081935167312
0.0144547671079635
0.0117545612156391
0.0086571630090475
0.0053553823381662
0.0020616159308701
-0.0010173190385103
-0.0037026619538664
-0.0058607757091522
-0.0074128145352005
-0.0083342911675572
-0.0086494479328393
-0.0084267063066363
-0.0077714095823466
-0.0068126460537314
-0.0056874025613069
-0.004524128511548
-0.0034283066634088
-0.0024739033542573
-0.0016986610135063
-0.0011019126977771
-0.0006508801598101
-0.0002928863978013
3.4876284189522266e-05
0.0003957978915423
0.0008438960649073
0.0014185602776706
0.0021410421468317
0.0030090163927525
0.0039932611398398
0.0050406157970428
0.0060847005806863
0.0070605729706585
0.0079163331538438
0.0086198989301919
0.0091584865003824
0.0095269586890935
0.0097111742943525
0.0096784178167581
0.0093783922493457
0.0087512480095028
0.007742840796709
0.0063249617815017
0.0045081684365868
0.002340629696846
-9.718351066112518e-05
-0.0026947697624564
-0.0053175166249275
-0.0078206956386566
-0.0100653190165758
-0.011931175366044
-0.0133281452581286
-0.014204659499228
-0.0145509745925664
-0.0143983047455549
-0.0138150164857506
-0.0128983426839113
-0.0117606362327933
-0.0105134071782231
-0.0092574590817093
-0.0080823032185435
-0.0070626963861286
-0.0062454715371131
-0.0056413225829601
-0.0052317529916763
-0.0049792909994721
-0.0048318225890398
-0.0047290716320276
-0.004613421857357
-0.0044384272769093
-0.0041747903451323
-0.0038126548752188
-0.0033577801659703
-0.0028248578310012
-0.0022314023226499
-0.0015966622158885
-0.0009465338662266
-0.0003156587481498
0.0002568839117884
0.0007307613268494
0.0010634437203407
0.0012102108448743
0.0011256709694862
0.0007638819515705
8.097849786281586e-05
-0.0009553804993629
-0.0023552095517516
-0.0041001979261636
-0.0061386562883853
-0.0083791622892022
-0.0106918746605515
-0.0129255708307027
-0.014935896731913
-0.0166107080876827
-0.0178812108933925
-0.0187188535928726
-0.0191248189657926
-0.0191214941442012
-0.0187521539628505
-0.0180825795978307
-0.0171952806413173
-0.0161783043295145
-0.0151147879660129
-0.0140743106603622
-0.0131057314574718
-0.0122314700856804
-0.0114431604743003
-0.0107046058401465
-0.009965737350285
-0.0091789755970239
-0.0083104586228728
-0.007343903183937
-0.0062768291682004
-0.0051178075373172
-0.0038894708268344
-0.0026273198891431
-0.0013698131078854
-0.000147899496369
0.0010199868120253
0.0021265125833451
0.0031689307652413
0.0041449968703091
0.005055203102529
0.0058986293151974
0.006656592246145
0.007282958831638
0.0077118286862969
0.007871164008975
0.007697217632085
0.0071520353667438
0.00623688288033
0.004996390081942
0.0035168398171663
0.0019178877118974
0.0003354486543685
-0.0010975277982652
-0.0022634323686361
-0.0030666880775243
-0.0034407214261591
-0.0033575920388102
-0.0028367205522954
-0.0019420310854911
-0.000766668934375
0.0005829157307744
0.0020008073188364
0.0033948952332139
0.0046947305090725
0.0058529241941869
0.0068450919352471
0.0076701594516634
0.0083483615890145
0.0089162262156605
0.0094197122380137
0.0099067389965057
0.0104214753955602
0.0109982155263423
0.0116521138697862
0.0123736001551151
0.0131320860236883
0.0138860857114195
0.0145944617688655
0.0152231752872467
0.0157473217695951
0.0161525569856166
0.0164344683289527
0.0165934860706329
0.0166294611990451
0.0165376923978328
0.0163022950291633
0.0158913135528564
0.0152625795453786
0.0143725387752056
0.0131796645000576
0.0116515140980482
0.0097794737666845
0.007592883426696
0.0051630879752337
0.0025937806349247
5.639274604618549e-06
-0.0024773369077593
-0.0047414419241249
-0.0066940728574991
-0.0082661202177405
-0.009411790408194
-0.0101129179820418
-0.0103819677606225
-0.0102580673992633
-0.0098026366904377
-0.0090986648574471
-0.0082448674365878
-0.0073414575308561
-0.0064769303426146
-0.0057203089818358
-0.0051155886612832
-0.0046786707825958
-0.0043996535241603
-0.0042490800842642
-0.0041846763342618
-0.0041575925424695
-0.0041181710548698
-0.0040215509943664
-0.0038320245221257
-0.0035238624550402
-0.003082720329985
-0.0025114296004176
-0.0018331920728087
-0.0010866420343518
-0.0003158377076033
0.0004410815308801
0.0011600826401263
0.0018326113931834
0.002460004761815
0.0030412108171731
0.003560229204595
0.0039824382402002
0.004259274341166
0.0043371687643229
0.0041706091724336
0.0037364528980106
0.0030421186238527
0.0021245465613901
0.0010422989726066
-0.0001346971839666
-0.0013318686978891
-0.002472547115758
-0.0034821899607777
-0.004295808263123
-0.0048645893111824
-0.0051604500040411
-0.0051788222044706
-0.0049367328174412
-0.0044664880260825
-0.0038114045746624
-0.003022747579962
-0.0021516245324164
-0.0012415827950462
-0.0003305249847471
0.0005439718952402
0.0013460264308378
0.0020487597212195
0.0026389595586806
0.0031145182438194
0.0034796888940036
0.0037451402749866
0.00392976263538
0.0040558576583862
0.0041412846185266
0.0041969022713601
0.0042262189090251
0.0042244642972946
0.0041815536096692
0.0040865130722522
0.0039279973134398
0.0036954751703888
0.0033841661643236
0.0029984849970787
0.0025515649467706
0.0020615025423467
0.001542352605611
0.0009908229112625
0.0003783032298088
-0.0003438619896769
-0.0012293325271457
-0.0023192996159195
-0.0036284178495407
-0.005136732943356
-0.0067869238555431
-0.008491164073348
-0.0101484917104244
-0.0116605442017316
-0.0129405604675412
-0.0139199793338775
-0.0145517718046903
-0.0148127814754843
-0.0147084444761276
-0.0142729897052049
-0.0135608119890093
-0.012636587023735
-0.0115684103220701
-0.0104206074029207
-0.0092485304921865
-0.0080974558368325
-0.006999849807471
-0.005973158404231
-0.0050255935639142
-0.0041639376431703
-0.0033933431841433
-0.0027123319450765
-0.002111324109137
-0.0015737481880933
-0.0010767213534563
-0.0005946790333837
-0.0001052138395607
0.0004086154513061
0.0009591043926775
0.0015533489640802
0.0021916427649557
0.0028693564236164
0.0035827038809657
0.0043311119079589
0.0051096123643219
0.0058947708457708
0.0066353799775242
0.0072576245293021
0.0076809995807707
0.0078310994431376
0.0076464843004941
0.0070856781676411
0.0061334646306931
0.0048055029474198
0.0031514032743871
0.0012515699490904
-0.0007908241823315
-0.0028560487553477
-0.0048140422441065
-0.0065368725918233
-0.0079155936837196
-0.0088745150715112
-0.0093794232234358
-0.0094378339126706
-0.0090912254527211
-0.0084048472344875
-0.0074596730992197
-0.0063432957977056
-0.0051376549527049
-0.0039110127836465
-0.0027183359488844
-0.0016023451462388
-0.000590837560594
0.0003047585487365
0.001088498160243
0.0017765378579497
0.0023878356441855
0.002936078235507
0.0034302156418561
0.0038768108934164
0.0042808540165424
0.0046506086364388
0.0050042113289237
0.005369272083044
0.0057760877534747
0.0062511060386896
0.006810727994889
0.0074536432512104
0.0081560239195823
0.0088746678084135
0.0095546431839466
0.0101308589801192
0.0105241797864437
0.0106454221531748
0.0104106944054365
0.0097612291574478
0.0086815329268574
0.0072092991322278
0.0054331552237272
0.00348003488034
0.0014973515644669
-0.0003657042980194
-0.0019769463688135
-0.003236673772335
-0.0040831733494997
-0.0044893538579344
-0.0044594807550311
-0.004031017422676
-0.0032765725627541
-0.0022968519479036
-0.0012043854221701
-0.0001063989475369
0.00090953707695
0.0017869817093014
0.0025047389790415
0.003072191029787
0.0035216081887483
0.0038993833586573
0.004253844730556
0.0046247215941548
0.0050413575954735
0.0055255102925002
0.006091640330851
0.0067442231811583
0.0074727111496031
0.0082478746771812
0.0090283351019024
0.0097755100578069
0.0104627814143896
0.0110739460214972
0.0115973632782697
0.0120196025818586
0.0123188653960824
0.0124599626287817
0.0123951341956853
0.0120713086798787
0.0114384293556213
0.0104590812698006
0.0091232005506753
0.0074591590091586
0.005530503578484
0.0034244223497807
0.0012442239094525
-0.00089304568246
-0.002864025067538
-0.004556484054774
-0.0058855954557657
-0.0067998217418789
-0.007282679900527
-0.0073532471433281
-0.0070599196478724
-0.0064716567285358
-0.0056732771918177
-0.004757385700941
-0.0038078252691775
-0.0028885568026453
-0.0020477862562984
-0.0013247260358184
-0.0007468259427696
-0.0003229351714253
-4.161917604506016e-05
0.000126184662804
0.0002242033369839
0.0003046244382858
0.0004168689483776
0.0005971642094664
0.00086360424757
0.0012181322090327
0.0016528777778148
0.0021553640253841
0.0027113601099699
0.0033033406361937
0.0039025680162012
0.0044608605094254
0.0049099973402917
0.0051693567074835
0.0051544606685638
0.0047846813686192
0.0039968863129615
0.0027611767873167
0.0010875014122575
-0.0009746453724801
-0.003334937384352
-0.0058634467422962
-0.0084038488566875
-0.0107936765998601
-0.0128792785108089
-0.0145281478762626
-0.0156447310000658
-0.01618018373847
-0.0161308143287897
-0.0155322691425681
-0.0144519954919815
-0.0129813449457287
-0.0112301902845501
-0.0093202358111739
-0.0073741041123867
-0.0055040894076228
-0.0038027497939765
-0.0023340245243161
-0.0011263624764978
-0.0001716914703138
0.0005696398438885
0.0011577496770769
0.0016547823324799
0.002108754357323
0.0025513460859656
0.0030050640925765
0.0034872135147452
0.0040083033964037
0.004571839235723
0.0051759700290858
0.0058123096823692
0.0064652124419808
0.0071145091205835
0.0077351853251457
0.0082903336733579
0.0087247751653194
0.0089660119265317
0.0089283399283885
0.0085177104920148
0.0076441401615738
0.006241725757718
0.0042879162356257
0.001817412674427
-0.0010732468217611
-0.0042349812574684
-0.0074856169521808
-0.0106299985200166
-0.0134795177727937
-0.0158732086420059
-0.0176933407783508
-0.0188715681433677
-0.0193904880434274
-0.0192814897745847
-0.0186197441071271
-0.0175193399190902
-0.0161233730614185
-0.0145851001143455
-0.013046464882791
-0.0116198835894465
-0.0103760305792093
-0.0093410238623619
-0.0085023706778883
-0.0078183226287364
-0.0072276471182703
-0.0066592167131602
-0.0060400944203138
-0.0053025679662823
-0.0043902141042053
-0.003261022735387
-0.0018923874013125
-0.000291031319648
0.0015030177310109
0.0034237208310514
0.0053892442956566
0.0073086684569716
0.0090833650901913
0.0106057897210121
0.011762460693717
0.0124424714595079
0.01254852861166
0.0120103247463703
0.0107994377613067
0.0089424233883619
0.0065301088616251
0.0037206774577498
0.0007279100827872
-0.0022096200846135
-0.0048631066456437
-0.0070351562462747
-0.0085723390802741
-0.0093782059848308
-0.0094236619770526
-0.00874631293118
-0.0074399067088961
-0.0056417360901832
-0.003518565557897
-0.001248562708497
0.0009972173720598
0.0030725705437362
0.0048751682043075
0.0063600121065974
0.0075346869416534
0.00843973364681
0.0091337617486715
0.0096905920654535
0.0101962350308895
0.010736565105617
0.0113816503435373
0.0121753411367535
0.0131304170936346
0.0142296440899372
0.0154347624629735
0.0166968181729316
0.0179615076631307
0.0191731844097375
0.0202776324003934
0.0212171748280525
0.0219165831804275
0.0222682282328605
0.0221330299973487
0.0213660467416048
0.019854050129652
0.0175455305725336
0.0144683960825204
0.0107376780360937
0.006547512486577
0.0021457143593579
-0.0021974842529743
-0.006217127200216
-0.0096801938489079
-0.0124099254608154
-0.0142961740493774
-0.0152923632413148
-0.0154148004949092
-0.0147472014650702
-0.0134368482977151
-0.0116764036938548
-0.0096770003437995
-0.0076401270925998
-0.0057340953499078
-0.0040758680552244
-0.0027208584360778
-0.0016670397017151
-0.0008696791483089
-0.0002561754081398
0.0002605188637971
0.0007667164318263
0.0013362087775021
0.0020280282478779
0.002885228022933
0.0039244480431079
0.0051255621947348
0.0064355293288826
0.0077834813855588
0.0090939626097679
0.0102902017533779
0.0112886689603328
0.011992335319519
0.0122891878709197
0.0120583306998014
0.011183338239789
0.009571935981512
0.0071789622306823
0.0040272008627653
0.0002203406766057
-0.0040614795871078
-0.0085859056562185
-0.0130980210378766
-0.0173447430133819
-0.0210956148803234
-0.0241616908460855
-0.0264107286930084
-0.0277757178992033
-0.0282560288906097
-0.0279133450239896
-0.0268623195588588
-0.0252559352666139
-0.0232690945267677
-0.0210812240839004
-0.0188557878136634
-0.0167208854109048
-0.0147599428892135
-0.0130155719816684
-0.0114987324923276
-0.0101938489824533
-0.0090607497841119
-0.0080388793721795
-0.0070551908574998
-0.006034767255187
-0.00491264462471
-0.0036446778103709
-0.0022134850732982
-0.0006272654864005
0.0010843880008906
0.0028738318942487
0.0046771098859608
0.0064103696495294
0.0079582463949918
0.0091648288071155
0.0098460065200924
0.0098250638693571
0.0089731970801949
0.0072409259155392
0.0046775713562965
0.001435371232219
-0.0022459023166447
-0.0060697230510413
-0.0097192618995904
-0.0128940856084227
-0.0153429936617612
-0.0168864652514457
-0.0174259562045335
-0.0169428661465644
-0.0154945012181997
-0.0132126398384571
-0.0102985398843884
-0.0070024235174059
-0.0035873986780643
-0.0002919696271419
0.0026961932890117
0.0052540614269673
0.0073286918923258
0.0089352978393435
0.0101460795849561
0.0110706333070993
0.0118351047858595
0.0125637855380773
0.0133609166368842
0.0142971314489841
0.0154054518789052
0.016683081164956
0.0180958919227123
0.0195859149098396
0.0210804603993892
0.022496236488223
0.023732554167509
0.0246631540358066
0.0251401122659444
0.0250076875090599
0.0241213217377662
0.0223747193813323
0.0197296999394893
0.0162355713546276
0.0120354276150465
0.0073619503527879
0.0025159455835819
-0.0021761157549917
-0.0064103016629815
-0.0099395234137773
-0.0125892730429768
-0.0142620224505662
-0.0149368271231651
-0.0146658709272742
-0.0135689908638596
-0.011824139393866
-0.0096486387774348
-0.0072726788930594
-0.0049114977009594
-0.0027400953695178
-0.0008734208531677
0.0006436535622924
0.0018302814569324
0.002747228834778
0.003472585696727
0.0040896330028772
0.004683363251388
0.0053345910273492
0.0061104446649551
0.0070568490773439
0.0081937992945313
0.0095136975869536
0.0109850242733955
0.0125579731538891
0.0141660431399941
0.0157222095876932
0.0171139426529407
0.0182034261524677
0.0188331194221973
0.0188340842723846
0.0180446617305278
0.0163449086248874
0.0136935040354728
0.010150727815926
0.0058840857818722
0.0011566416360437
-0.0037045213393867
-0.0083521073684096
-0.0124592203646898
-0.0157533790916204
-0.0180442854762077
-0.0192375369369983
-0.0193334333598613
-0.0184185877442359
-0.0166539698839187
-0.01425820030272
-0.0114844534546136
-0.0085925189778208
-0.0058194175362586
-0.0033509074710309
-0.0013002771884202
0.0002960641868412
0.0014679953455924
0.0022968030534684
0.0028971787542104
0.0033940626308321
0.0039019035175442
0.0045116855762898
0.0052844062447547
0.0062503265216946
0.0074094161391258
0.0087299523875117
0.010152505710721
0.0116005418822169
0.0129864662885665
0.0142090739682316
0.0151507025584578
0.0156791470944881
0.0156532861292362
0.0149354832246899
0.0134126227349042
0.0110195269808173
0.0077599994838237
0.0037221927195787
-0.0009190551936626
-0.0059152981266379
-0.0109721636399626
-0.0157880298793315
-0.0200896058231592
-0.0236561261117458
-0.0263356901705265
-0.0280528292059898
-0.028806384652853
-0.0286647975444793
-0.0277593433856964
-0.0262667257338762
-0.0243836380541324
-0.0223033186048269
-0.0201955027878284
-0.01819116063416
-0.0163752362132072
-0.014783427119255
-0.0134042585268616
-0.012193851172924
-0.0110953710973262
-0.0100493626669049
-0.008996844291687
-0.0078843003138899
-0.0066699837334454
-0.0053259474225342
-0.003838715609163
-0.0022114817984402
-0.0004633646458387
0.0013734372332692
0.0032534729689359
0.0051139160059392
0.0068687624298036
0.0084060952067375
0.0095887705683708
0.0102589577436447
0.0102558247745037
0.0094495769590139
0.0077809202484786
0.0052888267673552
0.0021159495227038
-0.0015054130926728
-0.0052812295034527
-0.0088919075205922
-0.0120306182652711
-0.0144402962177991
-0.0159408338367939
-0.0164410583674907
-0.01593928784132
-0.0145139247179031
-0.0123100243508815
-0.0095272129401564
-0.0064008766785264
-0.003174313576892
-6.977954762987792e-05
0.0027349716983735
0.0051220478489995
0.0070430757477879
0.0085199261084198
0.0096296500414609
0.0104791466146707
0.011181459762156
0.0118388142436742
0.0125317778438329
0.0133139360696077
0.0142105892300605
0.0152173181995749
0.0162979681044816
0.0173886232078075
0.0184108130633831
0.0192878153175115
0.0199548825621604
0.0203572697937488
0.0204381681978702
0.0201275516301393
0.0193401165306568
0.017981220036745
0.015961043536663
0.0132193323224782
0.0097525790333747
0.0056332177482545
0.0010188459418714
-0.0038558514788746
-0.0087117869406938
-0.0132690481841564
-0.0172803401947021
-0.0205495357513427
-0.0229422990232706
-0.0243910625576972
-0.0248938463628292
-0.0245119910687208
-0.0233671236783266
-0.021628888323903
-0.0194925125688314
-0.0171555615961551
-0.0147976921871304
-0.0125594567507505
-0.0105242431163787
-0.0087167294695973
-0.0071201231330633
-0.0056951376609504
-0.0043881516903638
-0.0031355847604572
-0.001871702959761
-0.0005367789417505
0.0009161432972177
0.0025145830586552
0.0042622345499694
0.0061392709612846
0.0081061497330665
0.0101107778027653
0.0120988963171839
0.0140217505395412
0.015835266560316
0.0174889154732227
0.0189073737710714
0.019980102777481
0.0205715876072645
0.020546019077301
0.0197958368808031
0.0182692985981702
0.0159915331751108
0.0130731025710701
0.0097021767869591
0.0061194817535579
0.0025849135126918
-0.0006501192692667
-0.0033631082624197
-0.0053794793784618
-0.0065883677452802
-0.0069526913575828
-0.0065128421410918
-0.0053786598145961
-0.0037101446650922
-0.001696087885648
0.0004645816516131
0.0025813560932874
0.0044929641298949
0.0060859182849526
0.0073040015995502
0.0081478944048285
0.0086665349081158
0.0089396778494119
0.0090561527758836
0.0090990588068962
0.0091417916119098
0.0092450566589832
0.0094459000974893
0.009746802970767
0.0101186530664563
0.0105140302330255
0.0108782844617962
0.0111582092940807
0.0113115003332495
0.0113111417740583
0.0111409705132246
0.0107847955077886
0.010211911983788
0.0093664117157459
0.0081682745367288
0.0065261265262961
0.004358185455203
0.0016159154474735
-0.0016982099041342
-0.0055214716121554
-0.0097282696515321
-0.0141356997191905
-0.0185192078351974
-0.0226361639797687
-0.0262520909309387
-0.0291637405753135
-0.0312188193202018
-0.0323347635567188
-0.0325088314712047
-0.0318111181259155
-0.0303673557937145
-0.0283415205776691
-0.025918286293745
-0.0232863128185272
-0.020624790340662
-0.0180881824344396
-0.0157891139388084
-0.0137881124392151
-0.0120916031301021
-0.0106564778834581
-0.009404432028532
-0.0082425512373447
-0.0070789610035717
-0.0058314595371484
-0.0044377883896231
-0.0028670150786638
-0.0011195674305781
0.0007856036536395
0.0028230680618435
0.0049622883088886
0.0071613728068768
0.0093635665252804
0.0115011101588606
0.0134999044239521
0.015279515646398
0.0167507287114858
0.0178148448467254
0.0183691456913948
0.0183211900293827
0.017608642578125
0.0162160228937864
0.0141831692308187
0.0116083323955535
0.0086481366306543
0.0055090631358325
0.0024229423142969
-0.0003902497701346
-0.0027549171354621
-0.0045539182610809
-0.0057275439612567
-0.0062699727714061
-0.0062269829213619
-0.0056887809187173
-0.0047770487144589
-0.003631095867604
-0.0023948347661644
-0.0012041461886838
-0.0001747289206832
0.0006103243213146
0.0011117509566247
0.0013367424253374
0.0013278101105242
0.0011460937093943
0.0008608584757894
0.0005438863299787
0.000262628076598
7.311650551855564e-05
1.610233448445797e-05
0.0001165845897048
0.0003839493729174
0.0008112827781587
0.0013754421379417
0.0020404323004186
0.0027640890330076
0.0035028657875955
0.0042116157710552
0.0048409104347229
0.00533132487908
0.0056056967005133
0.0055690854787826
0.0051220217719674
0.0041829980909824
0.0027120800223201
0.0007265135645866
-0.0016957824118435
-0.0044223656877875
-0.0072786146774888
-0.0100680096074938
-0.0125996684655547
-0.0147096030414104
-0.0162692498415708
-0.0171912219375371
-0.0174358151853084
-0.0170153863728046
-0.015995455905795
-0.0144887492060661
-0.0126418396830558
-0.0106165092438459
-0.0085667632520198
-0.0066175702959299
-0.0048532476648688
-0.003313866443932
-0.0019950619898736
-0.000855263788253
0.0001687230542302
0.0011454573832452
0.0021365529391914
0.0031901886686682
0.004341431427747
0.0056118741631507
0.0070031257346272
0.0084936982020735
0.0100444536656141
0.0116064567118883
0.0131284408271312
0.0145613877102732
0.0158583410084247
0.0169719085097312
0.0178498905152082
0.0184294264763593
0.0186344310641288
0.0183820277452468
0.0175978541374206
0.0162350628525018
0.0142933866009116
0.0118315750733017
0.0089657688513398
0.0058578024618327
0.002701090183109
-0.0002945095766335
-0.0029208809137344
-0.0049949130043387
-0.0063833249732851
-0.0070201647467911
-0.0069108889438211
-0.0061263917014002
-0.0047950083389878
-0.0030919627752155
-0.0012204250087961
0.0006149751134216
0.0022364910691976
0.0035136914812028
0.0043674921616911
0.0047635519877076
0.0047075347974896
0.0042460621334612
0.0034653081092983
0.002478297566995
0.0014067245647311
0.0003680828958749
-0.0005352845182642
-0.0012311338214203
-0.0016875421861186
-0.0019089893903583
-0.0019236399093642
-0.0017695286078378
-0.0014829968567937
-0.0010971394367516
-0.0006518672453239
-0.0002042049600277
0.0001681753783486
0.0003701102104969
0.0002978507545776
-0.0001494789030402
-0.001055305590853
-0.0024667042307555
-0.0043795928359031
-0.0067357411608099
-0.0094270128756761
-0.0123007139191031
-0.0151718258857727
-0.0178459249436855
-0.0201409291476011
-0.0219020303338766
-0.0230172500014305
-0.0234312992542982
-0.0231476482003927
-0.0222172886133193
-0.0207247622311115
-0.0187817886471748
-0.0165218599140644
-0.0140844583511352
-0.0115957651287317
-0.0091580208390951
-0.0068448530510067
-0.0046978937461972
-0.0027284333482384
-0.0009222971275448
0.0007573133334517
0.0023617651313543
0.0039382381364703
0.005514692980796
0.007101263385266
0.0086981635540723
0.0102967536076903
0.0118778701871633
0.0134171191602945
0.0148935383185744
0.0162909179925918
0.0175915118306875
0.0187701620161533
0.019790630787611
0.0206012986600399
0.0211334824562072
0.0213076695799827
0.0210430584847927
0.0202648937702178
0.0189177580177783
0.016988918185234
0.0145266586914658
0.0116405915468931
0.0084885824471712
0.0052584134973585
0.0021465900354087
-0.0006623081862926
-0.0030138883739709
-0.0048003713600337
-0.0059703891165554
-0.0065275221131742
-0.0065209958702325
-0.0060346843674778
-0.0051793046295642
-0.004087982699275
-0.0029066517017781
-0.0017733536660671
-0.0007940158247947
-2.868473529815673e-05
0.0005068751052021
0.0008331909775733
0.0009998236782848
0.0010757064446806
0.0011349311098456
0.0012445435859262
0.0014594057574868
0.0018179342150688
0.002337469253689
0.0030178590677678
0.0038483506068587
0.0048059658147394
0.0058501809835433
0.0069235614500939
0.0079579772427678
0.0088822804391384
0.0096262414008378
0.0101175978779792
0.0102781131863594
0.0100265890359878
0.0092898253351449
0.0080188019201159
0.0062060002237558
0.0038978597149252
0.0011980221606791
-0.0017387935658916
-0.0047235637903213
-0.0075595011003315
-0.0100665464997291
-0.0120963752269744
-0.0135428588837385
-0.0143487304449081
-0.0145051749423146
-0.0140475574880838
-0.0130509855225682
-0.0116225164383649
-0.0098891435191035
-0.0079864040017127
-0.0060466565191745
-0.0041837859898805
-0.0024797380901873
-0.0009787355083972
0.000310081988573
0.0014007386052981
0.0023142315912991
0.0030699195340275
0.0036878737155348
0.0041925301775336
0.0046118265017867
0.0049769422039389
0.005322394426912
0.0056806216016411
0.006075098644942
0.0065189143642783
0.0070146191865205
0.0075503373518586
0.0080974847078323
0.0086130555719137
0.009037590585649
0.0092847486957907
0.0092364083975553
0.0087574776262044
0.0077274944633245
0.0060745747759938
0.0037983090151101
0.0009778644889593
-0.0022344801109284
-0.0056350687518715
-0.0089991819113492
-0.0121087562292814
-0.0147729078307747
-0.0168432611972093
-0.0182235613465309
-0.0188716500997543
-0.0188006032258272
-0.0180819351226091
-0.0168403983116149
-0.0152356522157788
-0.0134365884587168
-0.0115961823612451
-0.0098347095772624
-0.0082336021587252
-0.0068352078087627
-0.0056442636996507
-0.0046330085024237
-0.0037514963187277
-0.0029381138738244
-0.0021285011898726
-0.0012651931028813
-0.0003038572613149
0.0007826008368283
0.0019951988942921
0.003303772304207
0.0046576494351029
0.0060062613338232
0.0073128193616867
0.0085516786202788
0.0096965553238987
0.0107111539691686
0.0115426667034626
0.0121153248474001
0.0123311281204223
0.012085729278624
0.0112930452451109
0.0099075017496943
0.0079417629167437
0.0054749175906181
0.0026438385248184
-0.0003758886014111
-0.0033886916935443
-0.0061941775493323
-0.0086016962304711
-0.0104495314881205
-0.0116250971332192
-0.012076249346137
-0.0118134301155805
-0.0109064765274524
-0.0094745596870779
-0.0076704355888068
-0.0056623322889208
-0.0036118666175752
-0.0016512514557689
0.0001276035327464
0.0016690746415406
0.002946455264464
0.0039582247845828
0.0047267107293009
0.0052970480173826
0.0057308673858642
0.0060933791100978
0.0064432965591549
0.0068296622484922
0.0072897588834166
0.0078470539301633
0.0085100252181291
0.0092688612639904
0.010096238926053
0.0109590925276279
0.0118271242827177
0.0126629089936614
0.0134032256901264
0.0139495506882667
0.0141755947843194
0.0139488447457551
0.0131552042439579
0.0117187574505805
0.0096169905737042
0.0068922508507966
0.0036557088606059
7.960549555718899e-05
-0.003623305587098
-0.0072279442101716
-0.0105206985026597
-0.0133163426071405
-0.0154789397493004
-0.0169430337846279
-0.0177164375782012
-0.0178637970238924
-0.0174866784363985
-0.0167063251137733
-0.015647267922759
-0.0144244330003857
-0.0131349423900246
-0.011850650422275
-0.0106106894090771
-0.0094201928004622
-0.0082593513652682
-0.0070957993157207
-0.005891085602343
-0.0046034944243729
-0.0031963766086846
-0.0016529995482414
1.4228513464331629e-05
0.0017692919354885
0.0035646446049213
0.0053494367748498
0.0070760324597358
0.0087065044790506
0.0102152582257986
0.0115884626284241
0.0128210261464118
0.0139082465320825
0.0148338926956057
0.0155608942732214
0.0160288289189338
0.01615896448493
0.0158634781837463
0.0150563158094882
0.0136713404208421
0.0116890128701925
0.0091561507433652
0.0061866007745265
0.0029486319981515
-0.0003537370357662
-0.003504587104544
-0.0063002249225974
-0.008569317869842
-0.0101897995918989
-0.0110990870743989
-0.0112950652837753
-0.0108310906216502
-0.0098050031810998
-0.0083445832133293
-0.0065968800336122
-0.0047191632911562
-0.0028651095926761
-0.001166739501059
0.000283784000203
0.0014442657120525
0.0023187668994069
0.0029450778383761
0.0033811358734965
0.0036949231289327
0.0039587276987731
0.0042431838810443
0.0046080471947789
0.0050956304185092
0.0057320962660014
0.0065287644974887
0.007475490681827
0.0085352100431919
0.0096506308764219
0.010758058167994
0.01179775968194
0.0127160437405109
0.0134583991020917
0.0139587642624974
0.0141345579177141
0.0138916326686739
0.0131344618275761
0.0117784021422266
0.0097671039402484
0.0070940554141998
0.0038187364116311
6.774812936782837e-05
-0.0039783446118235
-0.0081047136336565
-0.0120850605890154
-0.0157035514712333
-0.0187708437442779
-0.0211374685168266
-0.0227088574320077
-0.0234573613852262
-0.0234235450625419
-0.0227076821029186
-0.0214575864374637
-0.019851816818118
-0.018075093626976
-0.016290932893753
