bvp
-0.0490260943770408
-0.0483482703566551
-0.0463797226548194
-0.0431103557348251
-0.0386117473244667
-0.0330242775380611
-0.0265442430973052
-0.0194102451205253
-0.0118876472115516
-0.0042484961450099
0.0032542385160923
0.0104106068611145
0.0170698855072259
0.0231513287872076
0.0286478288471698
0.0336115658283233
0.0381222702562809
0.0422586947679519
0.0460835918784141
0.0496359914541244
0.0529311448335647
0.0559706464409828
0.0587540045380592
0.0612795352935791
0.0635364353656768
0.0655035525560379
0.0671600103378295
0.0684949606657028
0.0695056468248367
0.0701872855424881
0.0705220252275466
0.070465087890625
0.0699298083782196
0.0687877535820007
0.0668936222791671
0.0641240328550338
0.0604130625724792
0.0557789169251918
0.0503410100936889
0.0443189181387424
0.0380071736872196
0.031734861433506
0.025823350995779
0.0205490440130233
0.0161155983805656
0.012639919295907
0.0101515585556626
0.0085997292771935
0.007863993756473
0.0077729602344334
0.0081340689212083
0.0087667284533381
0.0095282662659883
0.0103297550231218
0.0111436834558844
0.0120031693950295
0.0129925049841403
0.0142313409596681
0.0158539600670337
0.0179853253066539
0.0207196604460477
0.0241078436374664
0.0281518995761871
0.0327972918748855
0.0379203632473945
0.0433222465217113
0.0487401150166988
0.0538742616772651
0.0584203600883483
0.0620948858559131
0.0646476447582244
0.0658672302961349
0.0655905455350875
0.0637201964855194
0.0602410212159156
0.0552263036370277
0.0488349199295043
0.0413035005331039
0.0329324305057525
0.024059772491455
0.015020877122879
0.0061073303222656
-0.0024578794836997
-0.010526567697525
-0.0180174112319946
-0.0248761028051376
-0.0309834703803062
-0.0361083522439003
-0.0400457009673118
-0.042844571173191
-0.0448829531669616
-0.0467417165637016
-0.049011506140232
-0.0521346181631088
-0.0563166365027427
-0.0615198388695716
-0.0675220116972923
-0.0739958062767982
-0.0805768221616745
-0.0869171991944313
-0.0927227735519409
-0.0977685004472732
-0.1018986999988555
-0.1050228849053382
-0.1071071922779083
-0.1081575006246566
-0.1082026213407516
-0.1072935760021209
-0.1055237874388694
-0.103054478764534
-0.1001231148838996
-0.0970304831862449
-0.0941125825047493
-0.0916977226734161
-0.0900546982884407
-0.0893474072217941
-0.089608758687973
-0.0907394215464592
-0.0925273969769477
-0.0946786850690841
-0.0968543142080307
-0.0987103134393692
-0.0999350994825363
-0.1002789437770843
-0.0995704680681228
-0.0977218896150589
-0.0947290360927581
-0.0906705260276794
-0.0857052505016326
-0.0800588876008987
-0.0739935785531997
-0.0677694380283355
-0.0616145953536033
-0.0557128116488456
-0.05019973218441
-0.0451565720140934
-0.0406042113900184
-0.0365065336227417
-0.0327834896743297
-0.0293279625475406
-0.026022296398878
-0.0227505434304475
-0.0194066353142261
-0.0159069057554006
-0.0122076254338026
-0.0083167348057031
-0.0042967274785041
-0.00026236474514
0.0036282129585742
0.0071929469704627
0.0102552436292171
0.0126764178276062
0.0143821127712726
0.0153793729841709
0.0157643482089042
0.0157174877822399
0.0154871270060539
0.0153688304126262
0.0156830623745918
0.0167436972260475
0.0188145153224468
0.0220680981874465
0.026564821600914
0.0322539359331131
0.0389868952333927
0.0465357229113578
0.0546161569654941
0.0629150196909904
0.071118339896202
0.0789351388812065
0.0861145034432411
0.0924596413969993
0.0978417173027992
0.1022083684802055
0.105580523610115
0.1080353558063507
0.1096803173422813
0.1106340289115905
0.1110246479511261
0.1109927594661712
0.1106791198253631
0.1102022007107734
0.1096446514129638
0.10905222594738
0.1084354445338249
0.1077679395675659
0.106980063021183
0.1059537231922149
0.1045293062925338
0.1025287210941314
0.0997878760099411
0.0961855351924896
0.0916590169072151
0.0862101390957832
0.0799070969223976
0.0728807970881462
0.0653142184019088
0.0574272200465202
0.0494576394557952
0.0416402705013752
0.034186515957117
0.0272661447525024
0.0209976136684417
0.0154513930901885
0.0106595735996961
0.0066246949136257
0.0033265147358179
0.0007243417203426
-0.0012466572225093
-0.0026768967509269
-0.0036732032895088
-0.0043463567271828
-0.0048054801300168
-0.0051550744101405
-0.0054874839261174
-0.0058746342547237
-0.0063661984167993
-0.0069909300655126
-0.0077540352940559
-0.0086327930912375
-0.0095757702365517
-0.0105066914111375
-0.0113340839743614
-0.0119717177003622
-0.012370640411973
-0.0125495251268148
-0.0126073956489562
-0.0127141438424587
-0.0130831794813275
-0.0139318807050585
-0.0154342390596866
-0.0176760088652372
-0.0206277947872877
-0.0241459812968969
-0.0280016511678695
-0.031924732029438
-0.035644743591547
-0.0389201864600181
-0.0415582060813903
-0.0434266179800033
-0.044459693133831
-0.0446556136012077
-0.0440656617283821
-0.0427818223834037
-0.0409280657768249
-0.0386560633778572
-0.0361412391066551
-0.0335729643702507
-0.0311385691165924
-0.0290034264326095
-0.0272892974317073
-0.0260567832738161
-0.0252965129911899
-0.0249292664229869
-0.0248179137706756
-0.0247982740402221
-0.0247239060699939
-0.0245027765631675
-0.0241138637065887
-0.0236083529889583
-0.023092683404684
-0.0226870011538267
-0.0224699079990386
-0.0224362947046756
-0.0224945377558469
-0.0225111544132232
-0.0223798565566539
-0.0220720656216144
-0.021643616259098
-0.0212040580809116
-0.0208700709044933
-0.0207278318703174
-0.0208158399909734
-0.0211187079548835
-0.0215633176267147
-0.0220192782580852
-0.0223059933632612
-0.0222107078880071
-0.0215215925127267
-0.0200681518763303
-0.0177575889974832
-0.0146038057282567
-0.0107440799474716
-0.006434547714889
-0.0020227436907589
0.0021034243982285
0.0055871466174721
0.0081702042371034
0.0097339674830436
0.0103158922865986
0.0100999101996421
0.0093733519315719
0.0084631033241748
0.0076724928803741
0.0072305141948163
0.0072587807662785
0.0077612781897187
0.0086369197815656
0.0097071453928947
0.0107496138662099
0.0115307457745075
0.0118346214294433
0.0114899240434169
0.010390032082796
0.008500819094479
0.0058645815588533
0.0026060524396598
-0.0010692928917706
-0.0048938081599771
-0.0085716033354401
-0.0118182012811303
-0.0143942032009363
-0.016127735376358
-0.0169271472841501
-0.016783058643341
-0.0157582275569438
-0.0139734018594026
-0.0115945897996425
-0.0088158100843429
-0.0058393627405166
-0.0028604362159967
-5.168840289115906e-05
0.0024534780532121
0.004571090452373
0.0062673613429069
0.0075535029172897
0.0084780734032392
0.0091187078505754
0.0095735704526305
0.0099519994109869
0.0103625748306512
0.0108979856595397
0.0116216363385319
0.0125640071928501
0.0137275513261556
0.015087186358869
0.0165834389626979
0.0181200820952653
0.0195699073374271
0.0207840465009212
0.0216063782572746
0.0218973141163587
0.0215633101761341
0.0205788165330886
0.0189915485680103
0.016915651038289
0.014518741518259
0.0120022725313901
0.0095772435888648
0.0074420198798179
0.0057655023410916
0.0046709543094038
0.0042186826467514
0.0043987017124891
0.005138955079019
0.006319435313344
0.0077863819897174
0.0093706687912344
0.010912106372416
0.0122797973453998
0.0133787672966718
0.0141490520909428
0.0145652992650866
0.0146356783807277
0.0144007299095392
0.0139332097023725
0.0133336475118994
0.0127158844843506
0.0121848750859498
0.0118163814768195
0.0116462260484695
0.0116708213463425
0.0118554849177598
0.0121423844248056
0.0124514233320951
0.0126767065376043
0.0126891881227493
0.0123500516638159
0.0115294102579355
0.0101279569789767
0.0080997534096241
0.0054700756445527
0.0023445363622158
-0.0010979718063026
-0.0046330289915204
-0.0080255400389432
-0.011059203185141
-0.0135611677542328
-0.0154196014627814
-0.016589181497693
-0.0170854181051254
-0.016971293836832
-0.0163410063832998
-0.0153074581176042
-0.0139946592971682
-0.0125301163643598
-0.0110344989225268
-0.0096077946946024
-0.0083150770515203
-0.0071836244314908
-0.0062158005312085
-0.0054034325294196
-0.0047312374226748
-0.0041727856732904
-0.00368801667355
-0.0032277689315378
-0.0027439228724688
-0.002199163660407
-0.001571932574734
-0.0008556023240089
-5.747843533754349e-05
0.0007944288663566
0.0016415105201303
0.0023950990289449
0.002948282752186
0.0031874631531536
0.0030014091171324
0.0022970871068537
0.0010227193124592
-0.0008142371661961
-0.0031411862000823
-0.0058233840391039
-0.0086750434711575
-0.0114810541272163
-0.0140259778127074
-0.0161220710724592
-0.0176296718418598
-0.0184674449265003
-0.018615847453475
-0.018116857856512
-0.0170663595199584
-0.0156002528965473
-0.013880917802453
-0.0120811257511377
-0.0103610008955001
-0.0088457111269235
-0.0076140286400914
-0.0066978340037167
-0.0060847299173474
-0.0057214675471186
-0.0055250665172934
-0.0054011922329664
-0.0052602002397179
-0.0050273430533707
-0.0046488284133374
-0.0040924968197941
-0.0033434308134019
-0.0024021253921091
-0.0012902743183076
-5.780730862170458e-05
0.0012142970226705
0.0024154270067811
0.0034146013204008
0.0040770838968455
0.0042807711288332
0.0039318650960922
0.0029838676564395
0.0014558625407516
-0.0005606184713542
-0.0029113483615219
-0.0053988411091268
-0.0078031090088188
-0.0099042681977152
-0.0115096597000956
-0.0124805178493261
-0.012748840264976
-0.0123201608657836
-0.0112637793645262
-0.0096966531127691
-0.0077674663625657
-0.0056387325748801
-0.0034655048511922
-0.0013802195899188
0.0005121040157973
0.0021384553983807
0.0034667407162487
0.0045099146664142
0.0053200842812657
0.0059758992865681
0.0065643386915326
0.0071598934009671
0.0078116632066667
0.0085428748279809
0.0093577429652214
0.0102492189034819
0.0112017774954438
0.0121892029419541
0.0131739694625139
0.0141106937080621
0.0149470772594213
0.0156184863299131
0.0160426832735538
0.0161215364933013
0.0157540999352931
0.0148617420345544
0.013411059975624
0.0114209186285734
0.0089607201516628
0.0061483830213546
0.0031432365067303
0.0001309216022491
-0.0026946295984089
-0.0051484010182321
-0.0070719826035201
-0.0083523690700531
-0.0089382454752922
-0.0088468790054321
-0.0081574041396379
-0.0069952635094523
-0.0055123111233115
-0.0038633584044873
-0.0021892483346164
-0.0006145983934402
0.0007535605691373
0.0018404610455036
0.0026205964386463
0.0031197182834148
0.0034034615382552
0.0035619027912616
0.0036920309066772
0.0038796975277364
0.0041865641251206
0.004646616987884
0.0052695637568831
0.0060450863093137
0.0069481409154832
0.0079448148608207
0.0089911380782723
0.0100230826064944
0.0109475851058959
0.0116455228999257
0.0119873601943254
0.0118521619588136
0.0111461831256747
0.0098214987665414
0.0078890323638916
0.0054247928783297
0.0025692547205835
-0.0004878207109868
-0.0035354981664568
-0.0063686626963317
-0.0088048595935106
-0.0106934728100895
-0.011927749030292
-0.0124631691724061
-0.0123284878209233
-0.0116176344454288
-0.0104687847197055
-0.009041080251336
-0.0074917385354638
-0.0059575904160737
-0.0045460392720997
-0.0033316297922283
-0.002353728050366
-0.0016164151020348
-0.0010909137781709
-0.0007217633537948
-0.0004368098452687
-0.0001558617223054
0.0001997563522309
0.0006908162031322
0.0013462824281305
0.0021629850380122
0.0031134923920035
0.0041532535105943
0.0052265753038227
0.0062730126082897
0.0072318259626626
0.0080417050048708
0.0086362417787313
0.0089387204498052
0.0088620390743017
0.008318904787302
0.0072434656322002
0.0056181191466748
0.0034891502000391
0.0009600779740139
-0.0018275242764502
-0.0047117145732045
-0.0075222617015242
-0.0100896526128053
-0.0122580928727984
-0.0139037389308214
-0.0149495974183082
-0.0153704909607768
-0.0151895396411418
-0.0144712161272764
-0.0133140422403812
-0.0118413306772708
-0.0101860389113426
-0.008471617475152
-0.0067990822717547
-0.0052456595003604
-0.0038667172193527
-0.0026936852373182
-0.0017319517210125
-0.0009622168727219
-0.0003428654745221
0.0001857518218457
0.0006921789608895
0.0012420741841197
0.0018880607094615
0.0026637176051735
0.0035819257609546
0.0046349843032658
0.0057956031523644
0.0070191007107496
0.0082408310845494
0.0093670208007097
0.0102726873010396
0.0108161764219403
0.0108619248494505
0.0103021301329135
0.0090764854103326
0.0071872514672577
0.0047039194032549
0.0017558626132085
-0.0014842629898339
-0.0048199202865362
-0.0080470740795135
-0.0109697487205266
-0.0134168984368443
-0.0152557175606489
-0.0164012480527162
-0.0168257094919681
-0.0165623351931571
-0.015698030591011
-0.0143585065379738
-0.0126911094412207
-0.010846110060811
-0.0089579699560999
-0.0071318643167614
-0.005438239313662
-0.0039117829874157
-0.0025532133877277
-0.0013363063335418
-0.000217642635107
0.000855803489685
0.0019416296854615
0.0030948407948017
0.0043553290888667
0.0057369074784219
0.0072259469889104
0.008788950741291
0.0103822667151689
0.0119555704295635
0.0134484721347689
0.0147896278649568
0.015900308266282
0.0166936591267585
0.0170716624706983
0.0169321950525045
0.0161888860166072
0.0147960744798183
0.0127689056098461
0.0101892296224832
0.0071968645788729
0.0039740768261253
0.0007266192696988
-0.002337384968996
-0.005026739090681
-0.0071845562197268
-0.0087033975869417
-0.0095340721309185
-0.0096875643357634
-0.0092309499159455
-0.0082756550982594
-0.0069608194753527
-0.0054376497864723
-0.0038527268916368
-0.0023270566016435
-0.0009423457086086
0.0002559795975685
0.0012497878633439
0.0020428942516446
0.0026569738984107
0.0031288629397749
0.003509837668389
0.0038614803925156
0.0042442707344889
0.0047041242942214
0.005266526248306
0.0059397760778665
0.0067201377823948
0.0075933150947093
0.0085339220240712
0.0095066893845796
0.0104643842205405
0.0113364849239587
0.0120168291032314
0.0123647348955273
0.0122248698025941
0.0114592676982283
0.0099799763411283
0.00777232600376
0.0049025285989046
0.0015097975265234
-0.002209257800132
-0.0060173724777996
-0.0096576362848281
-0.0128824627026915
-0.015483209863305
-0.0173101518303155
-0.0182844437658786
-0.0184058602899312
-0.0177497044205665
-0.0164506845176219
-0.0146804545074701
-0.0126248998567461
-0.0104644829407334
-0.0083576701581478
-0.0064269327558577
-0.00474862055853
-0.0033490662463009
-0.0022096447646617
-0.0012801457196474
-0.0004926910623908
0.0002316311001777
0.000978881958872
0.0018290146254003
0.002834340557456
0.0040054153650999
0.0053131440654397
0.0067023374140262
0.0081085618585348
0.0094715394079685
0.0107408966869115
0.0118744280189275
0.012829702347517
0.0135502256453037
0.0139542371034622
0.0139372162520885
0.0133906621485948
0.0122297815978527
0.010419713333249
0.0079897912219166
0.0050306729972362
0.0016838351730257
-0.001866070786491
-0.0054010329768061
-0.008688723668456
-0.0115077570080757
-0.0136722428724169
-0.0150511590763926
-0.0155810443684458
-0.015271614305675
-0.0142029337584972
-0.0125134903937578
-0.0103818029165267
-0.0080033540725708
-0.0055645140819251
-0.0032223146408796
-0.0010957918129861
0.0007374235428869
0.0022422219626605
0.0034216630738228
0.0043097590096294
0.0049625569954514
0.0054451171308755
0.0058191693387925
0.0061379470862448
0.0064477245323359
0.0067897052504122
0.0071975071914494
0.0076935081742703
0.008289678953588
0.0089920815080404
0.0098005877807736
0.0106986416503787
0.0116389878094196
0.0125337177887558
0.0132532091811299
0.0136362770572304
0.0135121811181306
0.0127319674938917
0.0112006766721606
0.0089010754600167
0.0059065483510494
0.0023816612083464
-0.0014351485297083
-0.0052657965570688
-0.0088312830775976
-0.0118848960846662
-0.0142399100586771
-0.0157887246459722
-0.0165069214999675
-0.0164456106722354
-0.0157172791659832
-0.0144743882119655
-0.0128859896212816
-0.0111216809600591
-0.0093385456129908
-0.00766292354092
-0.0061760409735143
-0.0049146423116326
-0.0038799040485173
-0.0030439002439379
-0.0023530076723545
-0.0017326637171208
-0.0011001083767041
-0.0003855366958305
0.0004518401110544
0.0014231820823624
0.0025188119616359
0.0037161619402468
0.0049848952330648
0.0062916073948144
0.0076032364740967
0.0088869091123342
0.010105094872415
0.011206105351448
0.012114648707211
0.0127306403592228
0.012939266860485
0.0126269701868295
0.0116964625194668
0.0100790038704872
0.007748250849545
0.0047387788072228
0.0011612265370786
-0.0028011160902678
-0.006916310172528
-0.0109327118843793
-0.0146021768450737
-0.0177008546888828
-0.0200513340532779
-0.0215434189885854
-0.0221463553607463
-0.021906366571784
-0.0209311433136463
-0.0193683505058288
-0.0173867549747228
-0.0151640912517905
-0.0128751248121261
-0.0106758140027523
-0.0086894053965806
-0.0069966753944754
-0.0056293667294085
-0.0045706355012953
-0.0037636526394635
-0.0031246216967701
-0.0025575452018529
-0.0019691684283316
-0.0012820959091186
-0.0004418371245265
0.0005847332067787
0.0018125388305634
0.0032350402325391
0.0048191021196544
0.0065068565309047
0.0082221729680895
0.0098738372325897
0.0113550443202257
0.012543112039566
0.0133021920919418
0.0134926605969667
0.0129902549088001
0.011714519932866
0.0096585750579833
0.0069055324420332
0.0036223977804183
3.788690082728863e-05
-0.0035819113254547
-0.0069593274965882
-0.0098383268341422
-0.0120162116363644
-0.0133619774132967
-0.0138217508792877
-0.0134164560586214
-0.0122349504381418
-0.0104204546660184
-0.0081490380689501
-0.0056082578375935
-0.0029808115214109
-0.0004298007115721
0.0019141132943332
0.0039599696174263
0.0056598396040499
0.0070114689879119
0.0080547351390123
0.0088563086465001
0.0094911372289061
0.0100325066596269
0.0105491392314434
0.0111003946512937
0.0117278937250375
0.0124503560364246
0.0132649326696991
0.0141520965844392
0.0150810228660702
0.0160126965492963
0.0169013198465108
0.0176955051720142
0.0183361694216728
0.0187489110976457
0.0188322626054286
0.0184537563472986
0.0174704287201166
0.0157675761729478
0.0132947675883769
0.0100875729694962
0.0062706666067242
0.0020437645725905
-0.0023411570582538
-0.0066050528548657
-0.0104700969532132
-0.0136924460530281
-0.0160928722470998
-0.0175740290433168
-0.0181210376322269
-0.0177907105535268
-0.0166999232023954
-0.015018350444734
-0.0129536977037787
-0.0107225216925144
-0.0085199130699038
-0.0064997533336281
-0.0047647166065871
-0.0033617257140576
-0.0022825303021818
-0.0014730541734024
-0.0008514626533724
-0.0003265715204179
0.0001898563932627
0.0007748181815259
0.0014887634897604
0.0023734741844236
0.0034470397513359
0.0046956595033407
0.0060737957246601
0.0075164744630455
0.0089542577043175
0.0103217158466577
0.0115566067397594
0.0125924050807952
0.0133490059524774
0.0137276388704776
0.0136153567582368
0.0128994826227426
0.0114903077483177
0.0093482071533799
0.0065067536197602
0.0030841124244034
-0.0007236720994114
-0.0046678846701979
-0.008480223827064
-0.0119036668911576
-0.0147183611989021
-0.0167615413665771
-0.0179392732679843
-0.0182300731539726
-0.0176825243979692
-0.0164070129394531
-0.0145614016801118
-0.012332459911704
-0.0099147111177444
-0.0074886344373226
-0.0052019827999174
-0.0031563907396048
-0.0014024446718394
5.284324288368225e-05
0.0012325923889875
0.0021810983307659
0.0029593654908239
0.0036399266682565
0.0042981188744306
0.00500023458153
0.0057940608821809
0.0067070918157696
0.0077490927651524
0.0089116916060447
0.0101658534258604
0.0114649087190628
0.0127544160932302
0.0139794647693634
0.0150769194588065
0.0159554779529571
0.0164871197193861
0.0165220089256763
0.0159138813614845
0.0145462388172745
0.0123589802533388
0.0093690883368253
0.0056794760748744
0.0014754608273506
-0.0029936740174889
-0.0074453246779739
-0.0115950619801878
-0.0151832876726984
-0.0179991256445646
-0.0199004430323839
-0.0208283644169569
-0.0208150781691074
-0.0199787802994251
-0.0185040887445211
-0.0166144203394651
-0.0145415840670466
-0.012495775707066
-0.0106411837041378
-0.0090827848762273
-0.0078653506934642
-0.0069799730554223
-0.0063726641237735
-0.0059545962139964
-0.0056166271679103
-0.0052465773187577
-0.0047448310069739
-0.0040389439091086
-0.0030964948236942
-0.0019263299182057
-0.0005656848661601
0.0009342217817902
0.0025160759687423
0.0041217999532818
0.0056973546743392
0.0071942945942282
0.0085663702338933
0.0097590861842036
0.0106946630403399
0.0112651279196143
0.0113439904525876
0.0108139030635356
0.0095990970730781
0.0076875174418091
0.0051358751952648
0.0020663356408476
-0.0013397019356489
-0.0048556420952081
-0.0082327201962471
-0.011227449402213
-0.0136269815266132
-0.0152692962437868
-0.0160615984350442
-0.0159951597452163
-0.0151461940258741
-0.0136581631377339
-0.0117141138762235
-0.0095096956938505
-0.0072308727540075
-0.0050396616570651
-0.0030688876286149
-0.0014195223338901
-0.0001541031524538
0.0007129074074327
0.0012194574810564
0.0014490112662315
0.0015143803320825
0.0015372498892247
0.0016293143853545
0.0018778322264552
0.0023360550403594
0.0030217948369681
0.0039235982112586
0.0050089573487639
0.0062329322099685
0.0075439340434968
0.0088818166404962
0.0101740080863237
0.011333854869008
0.0122573189437389
0.0128232892602682
0.0129045322537422
0.0123860295861959
0.0111868232488632
0.0092799291014671
0.0067047160118818
0.0035731852985918
6.796885281801224e-05
-0.0035746693611145
-0.0070937201380729
-0.0102338278666138
-0.0127740148454904
-0.0145553397014737
-0.0155002139508724
-0.0156160816550254
-0.0149861425161361
-0.0137527920305728
-0.0120967477560043
-0.010213179513812
-0.0082859490066766
-0.0064664264209568
-0.0048642307519912
-0.0035464616958051
-0.0025377075653523
-0.0018199288751929
-0.0013358666328713
-0.0009991846745833
-0.0007129848236218
-0.0003920423332601
2.205779310315848e-05
0.0005569510394707
0.0012131300754845
0.001972543541342
0.0028096369933336
0.0037006519269198
0.0046263025142252
0.0055668847635388
0.0064952690154314
0.0073728053830564
0.0081459563225507
0.0087415799498558
0.0090673463419079
0.009019928984344
0.0084961242973804
0.0074092345312237
0.0057132905349135
0.0034247483126819
0.0006305940914899
-0.0025161150842905
-0.0058079748414456
-0.0090039251372218
-0.0118608688935637
-0.0141676953062415
-0.0157688967883586
-0.01657360419631
-0.0165581870824098
-0.0157694108784198
-0.0143210189417004
-0.0123738478869199
-0.0101093929260969
-0.0077139949426054
-0.0053677433170378
-0.003225764259696
-0.0013977773487567
6.351852789521217e-05
0.0011623143218457
0.0019498388282954
0.0025093483272939
0.0029401413630694
0.0033432249911129
0.003808602457866
0.004403076134622
0.0051623983308672
0.0060933320783078
0.007183407433331
0.0084093697369098
0.0097391009330749
0.011128750629723
0.012517848983407
0.0138249620795249
0.0149461328983306
0.0157565437257289
0.016118224710226
0.0158972684293985
0.0149870235472917
0.013331108726561
0.0109434407204389
0.0079211127012968
0.0044421828351914
0.0007468182593584
-0.0028906783554702
-0.0061950208619236
-0.0089246910065412
-0.010898221284151
-0.0120081761851906
-0.0122271180152893
-0.0116063868626952
-0.0102659184485673
-0.0083756484091281
-0.006130950525403
-0.0037284502759575
-0.0013485718518495
0.0008571450598537
0.0027777166105806
0.0043520270846784
0.0055730487219989
0.0064830468036234
0.0071574347093701
0.0076825777068734
0.0081376442685723
0.0085863349959254
0.009075672365725
0.0096380962058901
0.0102969389408826
0.0110726933926343
0.0119852554053068
0.0130496118217706
0.0142657477408647
0.0156082836911082
0.017020259052515
0.0184084381908178
0.0196411125361919
0.0205574464052915
0.020989466458559
0.0207862257957458
0.0198347512632608
0.0180817749351263
0.0155538506805896
0.0123630007728934
0.0086939949542284
0.0047836867161095
0.00089867785573
-0.0026920856907963
-0.0057500801049172
-0.0080977333709597
-0.0096405129879713
-0.0103758182376623
-0.0103825135156512
-0.0097959898412227
-0.0087845604866743
-0.0075346184894442
-0.006238320376724
-0.0050750751979649
-0.0041874004527926
-0.0036615193821489
-0.0035193632356822
-0.0037205074913799
-0.0041734972037374
-0.0047554303891956
-0.0053337197750806
-0.0057844491675496
-0.0060054245404899
-0.0059248614124953
-0.0055055124685168
-0.0047418698668479
-0.0036553926765918
-0.0022961543872952
-0.0007467167451977
0.0008813831955194
0.0024575209245085
0.0038428949192166
0.0049018179997801
0.0055111451074481
0.0055643962696194
0.00497567653656
0.0036921091377735
0.0017122011631727
-0.000901642255485
-0.0040222108364105
-0.0074648568406701
-0.0110008427873253
-0.0143812159076333
-0.0173714533448219
-0.0197835825383663
-0.0214939415454864
-0.0224461443722248
-0.0226457566022872
-0.0221542231738567
-0.0210816115140914
-0.0195737220346927
-0.0177936945110559
-0.0159012600779533
-0.0140348859131336
-0.0123006161302328
-0.0107679385691881
-0.0094695398584008
-0.0084002753719687
-0.0075199678540229
-0.0067664282396435
-0.0060693672858178
-0.0053568510338664
-0.0045624291524291
-0.0036361042875796
-0.0025499216280877
-0.001295655965805
0.0001190397888422
0.0016707826871424
0.0033171060495078
0.0049944585189223
0.0066210040822625
0.0081030679866671
0.0093414206057786
0.0102336844429373
0.0106721855700016
0.0105436779558658
0.0097414916381239
0.0081920940428972
0.0058852573856711
0.0028942241333425
-0.0006218017078936
-0.004433924332261
-0.0082730073481798
-0.01186263281852
-0.0149475745856761
-0.0173160098493099
-0.0188194196671247
-0.0193898361176252
-0.0190450567752122
-0.017876747995615
-0.0160316042602062
-0.0136953629553318
-0.0110748670995235
-0.0083745513111352
-0.0057734050787985
-0.0034076911397278
-0.001361483708024
0.0003340351395308
0.0016938312910497
0.0027694893069565
0.0036406251601874
0.0044036186300218
0.005154772195965
0.0059741092845797
0.0069177062250673
0.0080196317285299
0.0092936875298619
0.0107269715517759
0.0122741917148232
0.013862881809473
0.0154064716771245
0.0168141424655914
0.017988808453083
0.018818911164999
0.0191773027181625
0.0189330503344535
0.0179728586226701
0.0162241011857986
0.0136738428846001
0.0103827277198433
0.0064933337271213
0.0022267568856477
-0.0021426170133054
-0.0063263126648962
-0.0100541496649384
-0.0130972359329462
-0.0152896083891391
-0.016545670107007
-0.0168653354048728
-0.0163247063755989
-0.0150579800829291
-0.0132374064996838
-0.0110526820644736
-0.0086885681375861
-0.0063034920021891
-0.0040158908814191
-0.0018997164443135
1.566857099533081e-05
0.0017385436221957
0.003298913128674
0.0047362381592392
0.0060973744839429
0.0074353804811835
0.0088021541014313
0.0102377608418464
0.0117630651220679
0.0133785223588347
0.015067501924932
0.0168009717017412
0.0185414832085371
0.0202453657984733
0.0218603871762752
0.0233206748962402
0.0245430190116167
0.0254205055534839
0.0258162356913089
0.0255734454840421
0.0245465375483036
0.0226392094045877
0.019835552200675
0.0162176415324211
0.0119671551510691
0.0073485057801008
0.0026735761202871
-0.0017418072093278
-0.0056140897795557
-0.0087152486667037
-0.0108890468254685
-0.0120616201311349
-0.0122424317523837
-0.0115203754976391
-0.0100588742643594
-0.0080815646797418
-0.0058435872197151
-0.0035942052491009
-0.0015406378079205
0.0001753908582031
0.0014834536705166
0.0023778625763952
0.0029043955728411
0.0031441580504179
0.0031989500857889
0.0031777047552168
0.0031823520548641
0.003298073541373
0.0035901183728128
0.0040984791703522
0.0048274076543748
0.0057434714399278
0.006788867060095
0.0078954193741083
0.0089874975383281
0.0099774170666933
0.0107595454901456
0.0112084709107875
0.0111862514168024
0.0105583164840936
0.0092133479192852
0.0070847673341631
0.0041733030229806
0.0005659805610775
-0.0035579362884163
-0.0079425387084484
-0.0122896432876586
-0.016298808157444
-0.0197025910019874
-0.0222912617027759
-0.0239261835813522
-0.0245483517646789
-0.0241833068430423
-0.022934578359127
-0.0209656208753585
-0.0184798389673233
-0.0157012213021516
-0.0128513146191835
-0.0101234186440706
-0.0076594855636358
-0.0055373338982462
-0.0037743605207651
-0.0023431794252246
-0.0011872802861034
-0.0002313177101314
0.0006104321219027
0.0014230129308998
0.0022791246883571
0.0032318108715116
0.0043109143152832
0.0055218082852661
0.0068472549319267
0.0082511063665151
0.009684476070106
0.0110941641032695
0.0124264908954501
0.0136204417794942
0.0145910140126943
0.0152146602049469
0.0153329726308584
0.0147771928459405
0.0134035218507051
0.0111308498308062
0.0079734427854418
0.0040558064356446
-0.0003988053649663
-0.005099497269839
-0.0097245294600725
-0.0139561258256435
-0.0175121594220399
-0.0201748609542846
-0.0218126345425844
-0.0223863665014505
-0.0219425521790981
-0.0206055622547864
-0.018566507846117
-0.0160582475364208
-0.0133217703551054
-0.0105773108080029
-0.0080047082155942
-0.0057309153489768
-0.0038246607873588
-0.0022969744168221
-0.0011056726798415
-0.0001673121005296
0.0006223618984222
0.0013668928295373
0.002156339585781
0.0030651092529296
0.0041487757116556
0.0054317796602845
0.006898290477693
0.0084988921880722
0.0101655293256044
0.0118224313482642
0.0133924391120672
0.0148015804588794
0.0159791745245456
0.0168508924543857
0.017326895147562
0.0172946359962224
0.0166301783174276
0.0152283636853098
0.0130367679521441
0.0100808879360556
0.0064724860712885
0.0023977430537343
-0.0019068010151386
-0.0061804614961147
-0.0101629411801695
-0.0136169269680976
-0.0163485892117023
-0.0182247553020715
-0.0191850364208221
-0.019245995208621
-0.0184953548014163
-0.0170763041824102
-0.0151656474918127
-0.0129531342536211
-0.0106241814792156
-0.0083432300016283
-0.0062400801107287
-0.0044032223522663
-0.0028779450803995
-0.0016666464507579
-0.0007329331710934
-1.1417083442211153e-05
0.0005786130204796
0.0011204648762941
0.0016902033239603
0.0023489166051149
0.0031351950019598
0.0040588555857539
0.0051020821556448
0.006229069083929
0.0073985932394862
0.008572899736464
0.0097158169373869
0.0107800401747226
0.0116940047591924
0.0123575814068317
0.0126475058495998
0.012430096976459
0.0115797892212867
0.0100027723237872
0.0076637016609311
0.0046091964468359
0.0009770710021257
-0.0030168863013386
-0.0071095474995672
-0.0110230110585689
-0.0144895482808351
-0.0172739885747432
-0.0192015878856182
-0.0201851949095726
-0.0202358067035675
-0.0194516461342573
-0.0179954171180725
-0.0160684902220964
-0.0138819525018334
-0.0116268955171108
-0.009455045685172
-0.0074740848504006
-0.0057488624006509
-0.0043016937561333
-0.0031141119543462
-0.0021342113614082
-0.0012890323996543
-0.0004965225234627
0.0003236657939851
0.0012355330400168
0.0022738501429557
0.0034433011896908
0.0047250934876501
0.0060826637782156
0.0074673201888799
0.0088266609236598
0.0101152006536722
0.011300416663289
0.0123554747551679
0.0132405133917927
0.0138858724385499
0.0141902072355151
0.0140370596200227
0.0133232893422245
0.0119850356131792
0.0100118527188897
0.0074548805132508
0.0044328100048005
0.0011275489814579
-0.0022354237735271
-0.0054170154035091
-0.0081958696246147
-0.01039310824126
-0.0118868239223957
-0.0126187670975923
-0.0125963240861892
-0.0118897473439574
-0.0106240697205066
-0.0089629460126161
-0.0070837107487022
-0.0051540578715503
-0.0033191822003573
-0.0016942122019827
-0.0003563137724995
0.0006609507836401
0.0013666660524904
0.0018044374883174
0.0020416206680238
0.0021591573022305
0.0022421237081289
0.0023712115362286
0.0026123523712158
0.0030060433782637
0.0035652925726026
0.0042829858139157
0.0051399176008999
0.0061062909662723
0.0071374010294675
0.0081700952723622
0.0091226855292916
0.0098965968936681
0.0103798052296042
0.0104546081274747
0.0100124049931764
0.0089738983660936
0.0073083345778286
0.0050471643917262
0.002289886586368
-0.0008027353323996
-0.0040285312570631
-0.0071670790202915
-0.0099983587861061
-0.0123238209635019
-0.013996360823512
-0.014944159425795
-0.0151706356555223
-0.0147367613390088
-0.0137427235022187
-0.0123144444078207
-0.0105931758880615
-0.0087244417518377
-0.0068416837602853
-0.0050509758293628
-0.0034269152674824
-0.0020152360666543
-0.000834111473523
0.0001249436754733
0.0008943282300606
0.0015245941467583
0.002075471682474
0.0026069213636219
0.0031715086661279
0.0038074112962931
0.004532934166491
0.0053441971540451
0.0062192007899284
0.0071285553276538
0.0080452738329768
0.008943953551352
0.0097888335585594
0.0105210579931736
0.0110555430874228
0.0112902531400322
0.0111233964562416
0.01047024410218
0.0092761293053627
0.0075290226377546
0.0052712401375174
0.0026048223953694
-0.0003135879524052
-0.0032904830295592
-0.0061208857223391
-0.0086103472858667
-0.0105916261672973
-0.0119428122416138
-0.0126045616343617
-0.0125852692872285
-0.011951039545238
-0.0108075896278023
-0.0092813279479742
-0.0075062937103211
-0.0056193438358604
-0.0037543633952736
-0.0020278259180486
-0.0005219730082899
0.0007238461985252
0.0017108228057622
0.0024717978667467
0.003060420975089
0.0035395082086324
0.0039710700511932
0.0044104540720582
0.0049003409221768
0.0054637510329484
0.0061044278554618
0.0068162893876433
0.0075903548859059
0.0084107853472232
0.0092470850795507
0.0100515922531485
0.0107617434114217
0.0113022048026323
0.0115840043872594
0.0115057490766048
0.0109660755842924
0.0098881945013999
0.0082466211169958
0.0060821240767836
0.0034980273339897
0.0006448982749134
-0.0022936584427952
-0.0051143220625817
-0.0076184934005141
-0.0096440101042389
-0.0110861090943217
-0.011902529746294
-0.0121092312037944
-0.0117724128067493
-0.0109982034191489
-0.0099180443212389
-0.0086702853441238
-0.0073814559727907
-0.0061521860770881
-0.0050514303147792
-0.0041165156289935
-0.0033561515156179
-0.0027546002529561
-0.002273709513247
-0.0018580246251076
-0.0014490803005173
-0.0010000402107834
-0.0004813281702809
0.0001200698898173
0.0008023352129384
0.0015503906179219
0.0023403100203722
0.0031480973120778
0.0039554825052618
0.0047458568587899
0.0054963869042694
0.0061740148812532
0.0067324694246053
0.0071082944050431
0.0072223958559334
0.0069891028106212
0.0063283457420766
0.005182234570384
0.0035372709389775
0.0014432107564061
-0.0009835412492975
-0.0035748539958149
-0.006136261858046
-0.0084745213389396
-0.0104214744642376
-0.0118495784699916
-0.0126820029690861
-0.0129016023129224
-0.0125522101297974
-0.01172527205199
-0.0105387438088655
-0.0091212103143334
-0.0076026218011975
-0.006102604791522
-0.0047160806134343
-0.0035056609194725
-0.0025036348961293
-0.0017164757009595
-0.001125153619796
-0.0006846645846962
-0.0003319252282381
-5.392357707023621e-07
0.0003675306215882
0.0008152197115123
0.0013656951487064
0.0020229846704751
0.0027800353709608
0.0036243984941393
0.0045326952822506
0.005464341957122
0.0063659772276878
0.0071778963319957
0.0078311134129762
0.0082401363179087
0.0083050560206174
0.0079286592081189
0.0070426370948553
0.0056313178502023
0.0037434990517795
0.0014911976177245
-0.0009611970745027
-0.0034143663942813
-0.0056572188623249
-0.0074973101727664
-0.0087917707860469
-0.0094653945416212
-0.0095144156366586
-0.0089994315057992
-0.0080265272408723
-0.0067238663323223
-0.0052233999595046
-0.0036467937752604
-0.0020947437733411
-0.0006420705467462
0.0006636874750256
0.0018020262941718
0.0027757710777223
0.0036055324599146
0.004326659720391
0.0049849865026772
0.0056246621534228
0.0062754461541771
0.0069518079981207
0.0076602511107921
0.0084031242877244
0.0091781327500939
0.0099792964756488
0.010798605158925
0.0116245951503515
0.0124363880604505
0.0131940394639968
0.0138303525745868
0.0142504908144474
0.0143439527601003
0.0140075329691171
0.0131668001413345
0.0117874750867486
0.0098829884082078
0.0075218891724944
0.0048278598114848
0.0019671875052154
-0.0008725819643586
-0.003505288157612
-0.005765251815319
-0.007522421889007
-0.0086940061300992
-0.0092514473944902
-0.0092218043282628
-0.0086815804243087
-0.0077413669787347
-0.0065266662277281
-0.0051650530658662
-0.0037807556800544
-0.0024874652735888
-0.0013761976733803
-0.0005045719444751
0.0001083500683307
0.000483026728034
0.0006741760298609
0.0007560844533145
0.0008059022948145
0.0008929732721298
0.0010717941913753
0.0013765438925474
0.0018201533239334
0.0024013333022594
0.0031155520118772
0.0039557833224534
0.0048997239209711
0.0058964411728084
0.006859625224024
0.0076680025085806
0.0081765316426754
0.0082393055781722
0.0077380631119012
0.0066076470538973
0.0048520141281187
0.0025499348994344
-0.000149613362737
-0.0030467193573713
-0.0059213805943727
-0.0085611538961529
-0.0107788769528269
-0.0124291777610778
-0.0134266633540391
-0.0137546593323349
-0.0134606352075934
-0.0126456562429666
-0.0114494850859045
-0.0100275464355945
-0.0085241273045539
-0.0070545645430684
-0.0057020261883735
-0.0045206323266029
-0.0035359642934054
-0.0027443030849099
-0.0021155630238354
-0.0015996538568288
-0.001133975572884
-0.0006538035813719
-0.0001065193209797
0.0005365123506635
0.0012779929675161
0.002103395294398
0.0029925683047622
0.0039259549230337
0.0048862965777516
0.0058587845414876
0.0068264137953519
0.0077584385871887
0.008596041239798
0.0092452401295304
0.0095881382003426
0.009511592797935
0.0089368745684623
0.0078347232192754
0.006227743346244
0.004190239124
0.0018462198786437
-0.0006396006792783
-0.0030800320673733
-0.0052892519161105
-0.0071046496741473
-0.0084032900631427
-0.0091145858168601
-0.0092272795736789
-0.0087860338389873
-0.0078772567212581
-0.0066120335832238
-0.0051141055300831
-0.0035089903976768
-0.0019110308494418
-0.0004139570519328
0.0009131337283179
0.0020258040167391
0.0029042328242212
0.0035564415156841
0.0040181139484047
0.0043435730040073
0.0045934580266475
0.0048257075250148
0.0050904508680105
0.0054261740297079
0.0058558592572808
0.006384496577084
0.0070014763623476
0.0076882522553205
0.0084219835698604
0.0091680474579334
0.0098704658448696
0.0104508930817246
0.0108124371618032
0.0108431503176689
0.0104272477328777
0.0094716157764196
0.0079374220222234
0.0058582909405231
0.0033369029406458
0.0005274754948914
-0.0023835485335439
-0.0051951045170426
-0.0077113509178161
-0.0097633618861436
-0.0112293725833296
