bvp
-0.0039454074576497
-0.0030852381605654
-0.0025214939378201
-0.0021711471490561
-0.0019382336176931
-0.0017219483852386
-0.0014263414777815
-0.0009709163568913
-0.0003004274331033
0.000608661212027
0.0017497027292847
0.003094557672739
0.0045981802977621
0.0061924625188112
0.0077787628397345
0.0092294309288263
0.0103982500731945
0.0111349960789084
0.0113017726689577
0.0107936495915055
0.0095605989918112
0.0076190885156393
0.0050517292693257
0.0020037954673171
-0.0013250466436147
-0.0047019063495099
-0.0078903222456574
-0.0106751434504985
-0.0128800151869654
-0.0143859907984733
-0.0151499612256884
-0.0152102392166852
-0.0146760893985629
-0.0137080941349267
-0.0124938432127237
-0.0112240826711058
-0.0100743016228079
-0.0091889174655079
-0.0086652617901563
-0.008542250841856
-0.0087984036654233
-0.0093601737171411
-0.010117057710886
-0.0109354984015226
-0.011673298664391
-0.0122008584439754
-0.0124203078448772
-0.0122711267322301
-0.0117262415587902
-0.0107872085645794
-0.0094800246879458
-0.0078517170622944
-0.0059697129763662
-0.0039243134669959
-0.001832140260376
0.000163675751537
0.0018986868672072
0.0031969405245035
0.0038882857188582
0.0038360047619789
0.0029647292103618
0.0012752764159813
-0.0011514568468555
-0.0041576530784368
-0.0075227683410048
-0.0109863132238388
-0.0142726739868521
-0.0171178728342056
-0.0192973837256431
-0.0206469185650348
-0.0210726838558912
-0.0205557346343994
-0.0191522594541311
-0.0169859677553176
-0.014229230582714
-0.0110776387155056
-0.0077287359163165
-0.0043686144053936
-0.0011597909033298
0.0017735045403242
0.0043570850975811
0.0065688770264387
0.0084310108795762
0.0099968779832124
0.011339982971549
0.0125464452430605
0.0137041267007589
0.0148858791217207
0.0161361880600452
0.0174685139209032
0.0188714209944009
0.0203178524971008
0.0217695496976375
0.0231717377901077
0.0244455244392156
0.0254864804446697
0.0261683482676744
0.026353258639574
0.0259111709892749
0.0247417781502008
0.0227916371077299
0.0200673807412385
0.0166450478136539
0.0126718543469905
0.0083588417619466
0.0039626909419894
-0.0002411562018096
-0.0039865812286734
-0.0070458655245602
-0.0092584174126386
-0.0105476239696145
-0.0109214643016457
-0.010461744852364
-0.009306026622653
-0.0076275090686976
-0.0056165005080401
-0.0034624147228896
-0.0013370555825531
0.0006184168159961
0.0023036650381982
0.0036657766904681
0.0046990970149636
0.0054407655261456
0.0059655145741999
0.0063733896240592
0.006765934638679
0.0072235437110066
0.0077973962761461
0.0085120890289545
0.0093698054552078
0.0103550814092159
0.0114410854876041
0.0125944260507822
0.0137753998860716
0.014933843165636
0.0160039234906435
0.0168995708227157
0.0175124052911996
0.0177201554179191
0.0174086857587099
0.0164957176893949
0.014945656992495
0.012778416275978
0.0100748054683208
0.0069751883856952
0.0036686277016997
0.0003704982809722
-0.002706131665036
-0.0053728697821497
-0.0074798935092985
-0.0089276377111673
-0.009674759581685
-0.0097383577376604
-0.0091894334182143
-0.0081441588699817
-0.0067471293732523
-0.0051535842940211
-0.0035195108503103
-0.0019924896769225
-0.0006962902843952
0.0002852315083146
0.0009179087355732
0.0012167049571871
0.0012349290773272
0.0010498631745576
0.0007509132847189
0.0004282938316464
0.0001604715362191
5.687586963176727e-06
-1.2479722499847412e-07
0.0001579476520419
0.0004773326218128
0.0009408835321664
0.0015129558742046
0.0021292651072144
0.0026889042928814
0.0030564004555344
0.0030767731368541
0.0026012239977717
0.0015169763937592
-0.0002299938350915
-0.0026256591081619
-0.0055861761793494
-0.0089611699804663
-0.0125475600361824
-0.0161140449345111
-0.0194277390837669
-0.0222749151289463
-0.0244796592742204
-0.0259262323379516
-0.0265743434429168
-0.0264555923640728
-0.0256580673158168
-0.0243107080459594
-0.0225681941956281
-0.0205933973193168
-0.0185395311564207
-0.0165361873805522
-0.0146806677803397
-0.0130347181111574
-0.011626137420535
-0.0104511063545942
-0.0094744395464658
-0.0086332634091377
-0.0078514460474252
-0.0070603280328214
-0.0062113916501402
-0.005277816671878
-0.0042541483417153
-0.0031548712868243
-0.0020090234465897
-0.00085468031466
0.0002637864090502
0.0012942198663949
0.0021699082572013
0.0028018162120133
0.0030803948175162
0.0028930748812854
0.0021515688858926
0.0008185193873941
-0.0010772024979814
-0.0034401933662593
-0.0061175664886832
-0.0089149270206689
-0.0116173550486564
-0.0140095129609107
-0.0158948712050914
-0.0171154476702213
-0.0175682269036769
-0.0172151122242212
-0.0160835441201925
-0.0142570808529853
-0.0118620432913303
-0.0090531725436449
-0.0059954579919576
-0.0028449427336454
0.0002628210932016
0.0032152328640222
0.0059238485991954
0.0083280922845005
0.0103984987363219
0.0121386256068944
0.0135851567611098
0.0148014854639768
0.0158636942505836
0.0168457441031932
0.0178090389817953
0.0187974702566862
0.0198371820151805
0.0209356620907783
0.0220779441297054
0.0232232548296451
0.0242994204163551
0.0251949355006217
0.0257624499499797
0.0258424393832683
0.025297861546278
0.0240453202277421
0.0220745280385017
0.0194532219320535
0.0163188464939594
0.012861980125308
0.0093051809817552
0.005879963748157
0.0028041424229741
0.0002580196596682
-0.0016358576249331
-0.0028193632606416
-0.0032957266084849
-0.0031262650154531
-0.0024234254378825
-0.0013342259917408
-2.017104998230934e-05
0.001358076930046
0.0026548374444246
0.0037559773772954
0.0045908219181001
0.0051352251321077
0.0054081147536635
0.0054629021324217
0.0053744497708976
0.0052242036908864
0.0050891833379864
0.0050367028452456
0.0051184827461838
0.0053619840182363
0.0057660397142171
0.0063030514866113
0.0069206980988383
0.0075393193401396
0.0080509856343269
0.0083267707377672
0.0082300258800387
0.0076330755837261
0.0064398674294352
0.004609768744558
0.0021721366792917
-0.0007722075097262
-0.004061447456479
-0.0074908207170665
-0.0108361802995204
-0.013882977887988
-0.0164516028016805
-0.018409889191389
-0.0196768306195735
-0.02022660151124
-0.020092224702239
-0.0193607248365879
-0.0181579161435365
-0.0166299287229776
-0.0149274412542581
-0.0131926760077476
-0.0115485209971666
-0.0100890342146158
-0.0088693350553512
-0.0078976936638355
-0.0071400683373212
-0.0065402742475271
-0.0060407212004065
-0.0055900723673403
-0.0051418673247098
-0.0046529080718755
-0.0040839477442204
-0.0034026789944618
-0.0025888844393193
-0.001640606438741
-0.0005798224592581
0.000543670845218
0.0016500670462846
0.0026301483158022
0.003353992011398
0.003690187819302
0.0035284822806715
0.0027985705528408
0.0014856867492198
-0.0003575021401047
-0.0026095397770404
-0.0050931335426867
-0.007598026189953
-0.0099078807979822
-0.0118250790983438
-0.0131875984370708
-0.0138800581917166
-0.0138446576893329
-0.0130897192284464
-0.0116874054074287
-0.0097577646374702
-0.0074479421600699
-0.0049184043891727
-0.0023357258178293
0.0001384201459586
0.0023655458353459
0.0042497534304857
0.0057493303902447
0.0068746446631848
0.0076750600710511
0.00822464376688
0.0086115757003426
0.0089268814772367
0.0092517286539077
0.0096482690423727
0.0101549718528985
0.0107859596610069
0.011533161625266
0.0123654538765549
0.0132218804210424
0.0140053275972604
0.0145858880132436
0.0148170152679085
0.0145599152892827
0.0137096010148525
0.0122177954763174
0.0101066417992115
0.0074695702642202
0.0044634593650698
0.001293285517022
-0.0018126217182725
-0.0046315127983689
-0.006971476599574
-0.0086876563727855
-0.0096916202455759
-0.0099606122821569
-0.0095409620553255
-0.0085374098271131
-0.0070951357483863
-0.0053819604218006
-0.0035699435975402
-0.0018163777422159
-0.0002477986272424
0.001050106016919
0.0020356788299977
0.0027065824251621
0.0030907071195542
0.0032384945079684
0.0032175842206925
0.0031081433407962
0.0029951324686408
0.002954053459689
0.0030373027548193
0.0032714600674808
0.0036608343943953
0.0041871345601975
0.0048060794360935
0.0054450444877147
0.0060039833188056
0.0063634528778493
0.0063995197415351
0.006001173518598
0.0050896033644676
0.0036374188493937
0.0016818664735183
-0.0006702275713905
-0.0032491551246494
-0.0058461772277951
-0.0082484725862741
-0.0102692525833845
-0.0117638288065791
-0.0126354815438389
-0.0128382761031389
-0.0123778851702809
-0.0113085340708494
-0.0097254989668726
-0.0077537950128316
-0.0055347299203276
-0.0032122381962835
-0.0009190847631543
0.0012372671626508
0.0031856650020927
0.0048932125791907
0.0063564991578459
0.0075881406664848
0.0086067588999867
0.0094351647421717
0.0101041216403245
0.0106533542275428
0.0111274486407637
0.0115692764520645
0.0120120691135525
0.0124728893861174
0.0129479942843317
0.0134068159386515
0.01378636341542
0.0139936544001102
0.013919529505074
0.0134549746289849
0.0125023871660232
0.0109904743731021
0.0088975029066205
0.0062693920917809
0.0032225786708295
-6.568292155861855e-05
-0.0033771821763366
-0.0064816917292773
-0.0091686453670263
-0.011271983385086
-0.0126839475706219
-0.0133606623858213
-0.0133214965462684
-0.0126411635428667
-0.0114353448152542
-0.0098461676388978
-0.0080304900184273
-0.0061461264267563
-0.0043371254578232
-0.002722811885178
-0.0013889640104025
-0.0003807810135185
0.0002992786467075
0.0006886748597025
0.0008576102554798
0.0008959667757153
0.0008964454755187
0.0009400034323334
0.0010864087380468
0.001371057704091
0.0018083257600665
0.0023926026187837
0.0030885427258908
0.0038198069669306
0.0044706994667649
0.0049015847034752
0.0049696778878569
0.0045495363883674
0.0035530403256416
0.0019474965520203
-0.0002323472872376
-0.0028809937648475
-0.0058297039940953
-0.0088670905679464
-0.0117678809911012
-0.0143178356811404
-0.0163306053727865
-0.017664885148406
-0.018244294449687
-0.0180673077702522
-0.0172004885971546
-0.0157631002366542
-0.0139091052114963
-0.0118073355406522
-0.009621201083064
-0.0074925650842487
-0.0055348249152302
-0.0038302326574921
-0.0024244277738034
-0.0013226201990619
-0.0004934801254421
0.0001218602992594
0.0005997776752337
0.0010200999677181
0.0014474974013864
0.0019203977426514
0.0024541709572076
0.0030500711873173
0.003702447284013
0.0044011981226503
0.0051263743080198
0.0058373697102069
0.0064650131389498
0.0069121541455388
0.0070644887164235
0.0068117785267531
0.0060722585767507
0.004811892285943
0.0030585955828428
0.0009074449772015
-0.0014913696795701
-0.0039563230238854
-0.0062974691390991
-0.0083355363458395
-0.009919217787683
-0.0109388306736946
-0.0113344928249716
-0.0110996207222342
-0.0102802626788616
-0.0089691299945116
-0.007292641326785
-0.0053927670232951
-0.0034092005807906
-0.0014650668017566
0.000344217987731
0.0019557436462491
0.0033343620598316
0.0044656596146523
0.0053535331971943
0.0060196416452527
0.0065010236576199
0.0068454849533736
0.0071054240688681
0.0073310071602463
0.0075653530657291
0.007843229919672
0.0081900982186198
0.0086174886673688
0.009114695712924
0.0096422834321856
0.0101317232474684
0.0104875732213258
0.0105906063690781
0.0103101385757327
0.0095294779166579
0.0081752650439739
0.0062395907007157
0.0037891683168709
0.0009595570154488
-0.0020631831139326
-0.005067195277661
-0.0078394394367933
-0.0101873502135276
-0.0119576593860983
-0.0130506511777639
-0.0134254153817892
-0.0130953574553132
-0.0121234515681862
-0.0106228254735469
-0.0087512098252773
-0.0066912556067109
-0.0046245330013334
-0.0027074026875197
-0.0010528643615543
0.0002766870893537
0.0012658641207963
0.0019377297721803
0.002345728687942
0.0025669813621789
0.0026924875564873
0.0028137110639363
0.0030106420163065
0.0033439332619309
0.0038497876375913
0.0045351996086537
0.0053758714348077
0.0063192890956997
0.007288958877325
0.0081875789910554
0.0089010344818234
0.0093060890212655
0.0092843929305672
0.0087404754012823
0.0076192114502191
0.0059198569506406
0.0037045311182737
0.0010986160486936
-0.0017189725767821
-0.0045338417403399
-0.0071223969571292
-0.0092835593968629
-0.0108636822551488
-0.0117695666849613
-0.0119738541543483
-0.011513203382492
-0.0104788355529308
-0.0090027274563908
-0.0072417012415826
-0.0053587392903864
-0.0035036602057516
-0.0017986800521612
-0.0003295745700597
0.0008590780198574
0.0017629456706345
0.0024126335047185
0.0028653838671743
0.0031914515420794
0.0034586321562528
0.0037218360230326
0.0040194583125412
0.0043752682395279
0.0048022707924246
0.0053044985979795
0.0058761672116816
0.0064976932480931
0.0071270735934376
0.0076909703202545
0.0080848829820752
0.0081861317157745
0.007876836694777
0.0070703770034015
0.0057291989214718
0.0038687335327267
0.0015562050975859
-0.0010901964269578
-0.0039066546596586
-0.0066976160742342
-0.0092567540705204
-0.0113908862695097
-0.0129422936588525
-0.013806140050292
-0.0139396917074918
-0.0133616812527179
-0.0121462633833289
-0.0104147121310234
-0.0083203557878732
-0.0060269879177212
-0.0036905966699123
-0.0014487067237496
0.0005868375301361
0.0023355204612016
0.0037516909651458
0.0048267757520079
0.0055886195041239
0.0060955034568905
0.0064264251850545
0.0066690891981124
0.0069068009033799
0.0072080260142683
0.0076198317110538
0.0081641376018524
0.0088379429653286
0.009615397080779
0.010442815721035
0.0112269194796681
0.0118333958089351
0.0121068423613905
0.0119022792205214
0.0111133977770805
0.0096931913867592
0.0076679168269038
0.0051415301859378
0.0022854502312839
-0.0006852173246443
-0.0035381219349801
-0.0060462276451289
-0.0080103911459445
-0.0092799253761768
-0.0097659276798367
-0.0094523206353187
-0.0084037538617849
-0.006757391616702
-0.0046979635953903
-0.0024280990473926
-0.0001409752294421
0.0019996189512312
0.0038688178174197
0.0053847515955567
0.0065112626180052
0.0072571784257888
0.0076706986874341
0.0078305583447217
0.0078336223959922
0.0077801207080483
0.0077625047415494
0.0078576803207397
0.0081177866086363
0.0085621029138565
0.0091753946617245
0.0099117998033761
0.010698084719479
0.0114341601729393
0.0119971130043268
0.0122511116787791
0.0120600834488868
0.0113049075007438
0.0099057406187057
0.0078428070992231
0.0051682358607649
0.0020080460235476
-0.0014438241487368
-0.0049449997022747
-0.0082406410947442
-0.0111027574166655
-0.0133562562987208
-0.0148883601650595
-0.0156499929726123
-0.0156541801989078
-0.0149687873199582
-0.0137055162340402
-0.0120089976117014
-0.0100441109389066
-0.0079795746132731
-0.0059693004004657
-0.0041363076306879
-0.0025630849413573
-0.0012859520502388
-0.0002946589956991
0.0004565101698972
0.0010309386998414
0.0014960991684347
0.0019165193662047
0.0023487273138016
0.0028359722346067
0.003405581228435
0.0040697106160223
0.0048257410526275
0.0056540933437645
0.0065142195671796
0.0073382095433771
0.0080243777483701
0.0084413159638643
0.0084467316046357
0.0079091554507613
0.006726018153131
0.004846516996622
0.0022961106151342
-0.0008135619573295
-0.004294385202229
-0.0079044625163078
-0.0113769909366965
-0.0144520215690135
-0.0169075969606637
-0.0185847152024507
-0.0194023977965116
-0.0193618386983871
-0.0185400359332561
-0.0170734375715255
-0.0151344621554017
-0.0129088843241333
-0.0105791268870234
-0.0083097368478775
-0.0062339934520423
-0.0044455067254602
-0.0029934968333691
-0.0018804618157446
-0.0010647557210177
-0.0004675023956224
1.5437421097885817e-05
0.0004935080069117
0.0010601613903418
0.0017804324161261
0.002687384141609
0.0037849289365112
0.0050547532737255
0.0064562815241515
0.0079150274395942
0.0093139531090855
0.0105005744844675
0.0113067906349897
0.0115721067413687
0.0111649939790368
0.0100041916593909
0.0080792941153049
0.0054619167931377
0.0023020850494503
-0.0011878041550517
-0.004756280221045
-0.0081384992226958
-0.0110815735533833
-0.0133676435798406
-0.0148365702480077
-0.0154085224494338
-0.0150947514921426
-0.0139879314228892
-0.0122403809800744
-0.0100404731929302
-0.0075891446322202
-0.0050779404118657
-0.0026724808849394
-0.0005022739060223
0.0013461677590385
0.002833672100678
0.0039671650156378
0.004792399238795
0.0053851213306188
0.00584236998111
0.0062679145485162
0.0067520420998334
0.0073574050329625
0.0081152282655239
0.0090269008651375
0.0100681278854608
0.011192032136023
0.0123278386890888
0.0133772119879722
0.0142117999494075
0.0146768782287836
0.0146070159971714
0.0138532174751162
0.0123144295066595
0.0099655147641897
0.0068750292994081
0.003206099383533
-0.0008024109993129
-0.0048682815395295
-0.0087020825594663
-0.0120382737368345
-0.0146573679521679
-0.0164024475961923
-0.0171923618763685
-0.017030069604516
-0.0160025618970394
-0.0142679931595921
-0.012030815705657
-0.0095137115567922
-0.0069339228793978
-0.0044821798801422
-0.0023031304590404
-0.000484324991703
0.0009432375663891
0.0019978180062025
0.0027355863712728
0.0032369992695748
0.0035948427394032
0.0039036567322909
0.0042495029047131
0.0047024209052324
0.005311943590641
0.0061032325029373
0.0070724291726946
0.0081825871020555
0.0093605052679777
0.0104954689741134
0.0114441365003585
0.012040008790791
0.012105849571526
0.0114760668948292
0.0100297564640641
0.0077234767377376
0.0046118954196572
0.0008502141572535
-0.0033212883863598
-0.0076068947091698
-0.0116907535120844
-0.0152702759951353
-0.0180880650877952
-0.0199592765420675
-0.0207881424576044
-0.0205735489726066
-0.0194024350494146
-0.017433363944292
-0.0148782534524798
-0.0119793256744742
-0.008978328667581
-0.0060877953656017
-0.0034719882532954
-0.0012374953366816
0.0005683628842234
0.0019523808732628
0.0029661355074495
0.0036968169733881
0.0042568226344883
0.0047662728466093
0.0053313546814024
0.006030190270394
0.0069104875437915
0.0079900976270437
0.0092540960758924
0.0106529463082551
0.0121030174195766
0.0134846288710832
0.0146406972780823
0.0153860067948699
0.0155303217470645
0.0149095049127936
0.0134175084531307
0.0110322078689932
0.0078284237533807
0.0039760037325322
-0.0002752065192908
-0.0046204845421016
-0.0087323114275932
-0.0122981686145067
-0.0150592578575015
-0.0168387442827224
-0.017554759979248
-0.0172218494117259
-0.0159418452531099
-0.0138863595202565
-0.011274685151875
-0.008348137140274
-0.0053439242765307
-0.0024713356979191
0.0001080227084457
0.0022925508674234
0.0040444228798151
0.0053855897858738
0.0063883168622851
0.0071603218093514
0.0078218039125204
0.008480567485094
0.009216540493071
0.0100783370435237
0.0110868867486715
0.0122412294149398
0.0135227032005786
0.0148928444832563
0.0162852369248867
0.0175974797457456
0.0186878144741058
0.0193810630589723
0.0194890685379505
0.0188437961041927
0.0173331853002309
0.014927583746612
0.0116893975064158
0.0077673299238085
0.0033823116682469
-0.0011904502753168
-0.0056453854776918
-0.0096781337633728
-0.0130195338279008
-0.0154633522033691
-0.0168840140104293
-0.0172449331730604
-0.0165970493108034
-0.0150696793571114
-0.0128557924181222
-0.0101880244910717
-0.0073074270039796
-0.004438305273652
-0.0017743974458426
0.0005345869576558
0.0023989458568394
0.0037960340268909
0.0047642453573644
0.0053895767778158
0.0057890038006007
0.006092389114201
0.0064244242385029
0.0068878913298249
0.0075502367690205
0.0084362970665097
0.0095290886238217
0.010778147727251
0.0121103581041097
0.0134335616603493
0.0146291824057698
0.0155455311760306
0.0160048361867666
0.015823908150196
0.0148424077779054
0.0129533037543296
0.0101299295201897
0.0064434530213475
0.0020636459812521
-0.0027572242543101
-0.007710728328675
-0.0124659286811947
-0.0167053081095218
-0.020154733210802
-0.0226070508360862
-0.0239431224763393
-0.0241469517350196
-0.0233057588338851
-0.0215908214449882
-0.0192248132079839
-0.016449075192213
-0.0135004241019487
-0.0105940075591206
-0.00790651794523
-0.0055619031190872
-0.003624175209552
-0.0020977761596441
-0.0009343684650957
-4.757661372423172e-05
0.0006668251007795
0.0013148225843906
0.0019937483593821
0.0027795089408755
0.0037142736837267
0.0048047835007309
0.0060301506891846
0.0073506226763129
0.0087129287421703
0.0100546358153224
0.0113079380244016
0.0123952841386199
0.0132167730480432
0.0136442147195339
0.0135308345779776
0.0127317840233445
0.0111331846565008
0.0086861457675695
0.0054297959432005
0.0014926772564649
-0.0029215300455689
-0.0075558605603873
-0.0121245374903082
-0.0163371749222278
-0.0199253484606742
-0.0226704142987728
-0.024424847215414
-0.0251248888671398
-0.0247946493327617
-0.0235386956483125
-0.0215246193110942
-0.0189623795449733
-0.016082864254713
-0.0131124760955572
-0.0102484049275517
-0.0076436540111899
-0.0053986483253538
-0.0035557015798985
-0.0021016993559896
-0.0009788600727915
-9.85204242169857e-05
0.000643681269139
0.0013527036644518
0.0021208301186561
0.0030174753628671
0.0040830736979842
0.0053274454548954
0.0067325453273952
0.0082592060789465
0.0098571833223104
0.0114703029394149
0.0130291506648063
0.014440419152379
0.0155838821083307
0.016317281872034
0.0164876859635114
0.0159497298300266
0.0145905725657939
0.0123567786067724
0.0092754438519477
0.0054628122597932
0.0011162990704178
-0.0035063810646533
-0.008112940005958
-0.0124040832743048
-0.0161034017801284
-0.0189889520406723
-0.020920742303133
-0.0218540094792842
-0.0218353532254695
-0.0209873728454113
-0.0194876492023468
-0.0175470374524593
-0.0153884869068861
-0.013222137466073
-0.0112175252288579
-0.009482585825026
-0.0080580674111843
-0.0069265309721231
-0.0060265338979661
-0.0052653718739748
-0.0045323139056563
-0.0037164399400353
-0.0027279744390398
-0.0015138748567551
-6.024196045473218e-05
0.0016140138031914
0.0034647108986973
0.0054316334426403
0.0074510313570499
0.0094646643847227
0.0114199724048376
0.0132669266313314
0.0149570442736148
0.0164394713938236
0.0176492556929588
0.0184965040534734
0.018868600949645
0.0186440981924533
0.017711617052555
0.0159940049052238
0.0134747792035341
0.0102175958454608
0.0063715865835547
0.0021596169099211
-0.0021481928415596
-0.0062680183909833
-0.0099331624805927
-0.0129178054630756
-0.0150563456118106
-0.0162577107548713
-0.0165104195475578
-0.0158775113523006
-0.0144838197156786
-0.0125019922852516
-0.0101396478712558
-0.0076191555708646
-0.0051476284861564
-0.0028892096597701
-0.0009501799941062
0.0006225393153727
0.0018344263080507
0.0027330056764185
0.0033952782396227
0.0039120921865105
0.0043735476210713
0.0048607736825942
0.005442043300718
0.0061699389480054
0.0070797819644212
0.0081856306642293
0.0094718504697084
0.010889895260334
0.0123669309541583
0.0138189047574996
0.0151588944718241
0.0162974279373884
0.0171362943947315
0.0175634175539016
0.0174586679786443
0.0167121943086385
0.0152465058490633
0.0130357025191187
0.010120796971023
0.0066187889315187
0.0027209562249481
-0.0013272447977215
-0.0052631548605859
-0.0088414307683706
-0.0118537060916423
-0.014140642248094
-0.015602208673954
-0.0162035021930933
-0.0159752015024423
-0.0150086674839258
-0.0134439207613468
-0.0114509323611855
-0.0092091830447316
-0.0068904859945178
-0.0046437042765319
-0.0025802401360124
-0.0007671029306948
0.0007683507865294
0.0020285851787775
0.0030391018372029
0.003844843711704
0.0045045879669487
0.0050831455737352
0.0056444946676492
0.0062454347498714
0.0069292010739445
0.0077202850952744
0.008623038418591
0.0096258977428078
0.0107066957280039
0.0118329608812928
0.0129599813371896
0.0140314120799303
0.014975719153881
0.0156941451132297
0.0160559192299842
0.015914786607027
0.0151382563635706
0.013634392991662
0.0113723194226622
0.0083979684859514
0.004840147215873
0.0009003677405416
-0.0031722162384539
-0.0071126092225313
-0.0106691215187311
-0.0136253908276557
-0.0158166475594043
-0.0171418525278568
-0.0175725948065519
-0.0171575136482715
-0.0160164274275302
-0.0143226012587547
-0.0122806187719106
-0.0101055316627025
-0.0080011365935206
-0.0061357943341135
-0.0046229846775531
-0.0035137915983796
-0.0027999724261462
-0.0024236575700342
-0.002290510572493
-0.0022839624434709
-0.0022784261964261
-0.0021512289531528
-0.0017980944830924
-0.0011509478790685
-0.0001873890869319
0.0010704707819968
0.0025638609658926
0.0042119985446333
0.0059282314032316
0.0076293870806694
0.0092370649799704
0.010673064738512
0.0118522522971034
0.0126772867515683
0.0130400536581873
0.0128331072628498
0.0119705591350793
0.010411674156785
0.0081747146323323
0.0053377682343125
0.0020355135202407
-0.0015472383238375
-0.0051923170685768
-0.0086725251749157
-0.0117747038602828
-0.0143179465085268
-0.016167476773262
-0.0172453187406063
-0.0175361894071102
-0.0170863475650548
-0.0159971602261066
-0.0144136454910039
-0.0125045562162995
-0.0104374419897794
-0.0083605926483869
-0.0063963327556848
-0.0046387030743062
-0.0031496121082454
-0.00195411616005
-0.0010392453987151
-0.0003589419648051
0.0001549390144646
0.0005785699468106
0.0009858012199401
0.0014435797929763
0.0020073901396244
0.002713517518714
0.0035744127817451
0.0045830626040697
0.0057207783684134
0.006957575213164
0.0082449521869421
0.009511848911643
0.0106671107932925
0.011601835489273
0.0121901025995612
0.0122954659163951
0.0117881344631314
0.0105686020106077
0.008592939004302
0.0058942916803061
0.0025894185528159
-0.001132920384407
-0.0050334781408309
-0.0088487695902585
-0.0123189184814691
-0.015213037841022
-0.0173530131578445
-0.0186332277953624
-0.0190283395349979
-0.0185893345624208
-0.0174321085214614
-0.0157196316868066
-0.0136396270245313
-0.0113806826993823
-0.0091111287474632
-0.0069638011045753
-0.0050258776172995
-0.0033346451818943
-0.0018810611218214
-0.0006189284613355
0.0005241529433988
0.0016317344270646
0.0027764702681452
0.0040011527016758
0.0053129969164729
0.0066885999403893
0.0080844676122069
0.0094475913792848
0.0107225030660629
0.0118583384901285
0.0128168975934386
0.013576528057456
0.0141295101493597
0.0144735509529709
0.014598342590034
0.0144744999706745
0.0140525614842772
0.0132668083533644
0.0120390336960554
0.0102920187637209
0.0079772528260946
0.0051040193066
0.0017550978809595
-0.0019165455596521
-0.0057053919881582
-0.0093776863068342
-0.0127004301175475
-0.0154710169881582
-0.01753880828619
-0.0188154783099889
-0.0192771162837743
-0.0189614649862051
-0.0179602187126874
-0.0164060685783624
-0.0144580947235226
-0.012287164106965
-0.0100607108324766
-0.0079290680587291
-0.0060143349692225
-0.0043997503817081
-0.0031207751017063
-0.0021638977341353
-0.0014762678183615
-0.0009799939580261
-0.0005842302925884
-0.0001961104571819
0.0002671456895768
0.0008684219792485
0.0016467696987092
0.0026144159492105
0.0037515424191951
0.0050083976238965
0.006319404579699
0.0076181273907423
0.0088441632688045
0.009942864999175
0.0108592305332422
0.0115283811464905
0.0118701783940196
0.0117936730384826
0.0112096387892961
0.0100472550839185
0.0082730408757925
0.005911165382713
0.0030596253927797
-0.0001119915395975
-0.003388661891222
-0.0065441201440989
-0.0093679521232843
-0.0116832442581653
-0.013356065377593
-0.0143022863194346
-0.0144943818449974
-0.0139623451977968
-0.0127872787415981
-0.0110914669930934
-0.009026245214045
-0.0067576356232166
-0.0044500259682536
-0.0022488087415695
-0.0002647014334797
0.0014351978898048
0.0028270524926483
0.0039242999628186
0.0047689173370599
0.0054195988923311
0.0059401537291705
0.0063932240009307
0.0068371472880244
0.00732106808573
0.0078808329999446
0.008538769558072
0.0093053448945283
0.0101793510839343
0.0111456895247101
0.012175309471786
0.0132272625342011
0.014243584126234
0.015137119218707
0.0157863739877939
0.0160462465137243
0.0157706961035728
0.0148399639874696
0.01318643335253
0.0108132176101207
0.007802341133356
0.0043116174638271
0.000558943953365
-0.0032036616466939
-0.006719799246639
-0.0097563341259956
-0.0121258646249771
-0.0137012340128421
-0.0144228236749768
-0.0143028413876891
-0.013423753902316
-0.0119259916245937
-0.0099876848980784
-0.0078018424101173
-0.0055546090006828
-0.0034074974246323
-0.0014852383174002
0.0001325537450611
0.0014167805202305
0.0023866347037255
0.0030986936762928
0.003633514046669
0.0040838168933987
0.0045440960675477
0.0050981091335415
0.0058029252104461
0.0066780853085219
0.0077068670652806
0.0088469795882701
0.0100439470261335
0.0112397987395524
0.0123751740902662
0.0133866444230079
0.0141998063772916
0.0147229898720979
0.0148489829152822
0.0144673073664307
0.0134839108213782
0.0118439514189958
0.0095530003309249
0.0066872648894786
0.0033867510501295
-0.0001623418065719
-0.0037477565929293
-0.0071514006704092
-0.0101682776585221
-0.0126227308064699
-0.0143829444423317
-0.0153741659596562
-0.0155854951590299
-0.0150664551183581
-0.0139183839783072
-0.0122839640825986
-0.0103317350149154
-0.0082352235913276
-0.0061519555747509
-0.0042115319520235
-0.0025146566331386
-0.0011304406216368
-8.639320731163025e-05
0.0006370566552504
0.0010994115145877
0.00138606922701
0.0015938391443341
0.001815658994019
0.0021263482049107
0.0025756305549293
0.0031886780634522
0.0039694132283329
0.0049047800712287
0.0059692687354981
0.0071277990937232
0.0083331195637583
0.0095144910737872
0.010564693249762
0.0113406209275126
0.0116816358640789
0.011434556916356
0.0104783494025468
0.0087479697540402
0.0062524890527129
0.0030819505918771
-0.0005984448362141
-0.0045639523304998
-0.0085524721071124
-0.0122919874265789
-0.0155286910012364
-0.018050679937005
-0.0197078920900821
-0.0204286258667707
-0.0202267728745937
-0.0191959924995899
-0.0174941886216402
-0.0153226358816027
-0.0129012577235698
-0.0104414634406566
-0.0081224432215094
-0.0060772509314119
-0.0043868045322597
-0.0030790055170655
-0.0021331240423023
-0.0014861535746604
-0.0010406641522422
-0.0006777188973501
-0.0002768922131508
0.0002612069947645
0.0010001251939684
0.0019631613977253
0.0031367279589176
0.0044797705486416
0.0059345266781747
0.0074352696537971
0.0089153191074728
0.0103100081905722
0.0115512460470199
0.0125565817579627
0.0132239023223519
0.0134377665817737
0.0130855580791831
0.0120803900063037
0.0103818960487842
0.0080056330189108
0.0050255572423338
0.0015766798751428
-0.0021477355621755
-0.0059122769162058
-0.0094660306349396
-0.0125722866505384
-0.0150354076176881
-0.0167191382497549
-0.017554871737957
-0.0175441764295101
-0.0167565140873193
-0.0153185687959194
-0.0133952163159847
-0.0111662521958351
-0.0088063450530171
-0.0064746681600809
-0.0043088793754577
-0.0024150353856384
-0.0008565576281398
0.0003505635540932
0.0012343009002506
0.0018579866737127
0.0023096443619579
0.0026889832224696
0.0030931425280869
0.0036046095192432
0.0042830063030123
0.0051606353372335
0.0062431581318378
0.0075146402232348
0.0089406510815024
0.0104670412838459
0.0120189059525728
0.0135009726509451
0.0147970030084252
0.0157705321907997
0.0162724610418081
0.0161576215177774
0.0153087731450796
0.0136621752753853
0.0112265581265091
0.0080906311050057
0.0044170850887894
0.0004264606395736
-0.003622630611062
-0.0074577750638127
-0.0108246132731437
-0.0135189536958932
-0.0154067054390907
-0.0164294317364692
-0.0166010577231645
-0.0159980095922946
-0.0147444792091846
-0.0129975974559783
-0.0109328422695398
-0.0087259365245699
-0.0065354257822036
-0.0044914679601788
-0.0026877564378082
-0.001175582408905
3.7868740037083626e-05
0.0009872259106487
0.0017392509616911
0.0023741256445646
0.0029677944257855
0.003583698766306
0.0042692320421338
0.005053412169218
0.0059475139714777
0.0069477567449212
0.0080384574830532
0.0091926613822579
0.0103697990998625
0.0115163438022136
0.0125704798847436
0.0134630072861909
0.0141123123466968
0.0144221959635615
0.0142857506871223
0.0135926734656095
0.012247072532773
0.0101976348087191
0.0074645201675593
0.0041505899280309
0.0004358027363196
-0.0034435864072293
-0.007224656175822
-0.0106471674516797
-0.0134790390729904
-0.0155398743227124
-0.0167214050889015
-0.0169968754053115
-0.0164156109094619
-0.0150879444554448
-0.0131694236770272
-0.0108496975153684
-0.0083391088992357
-0.0058461353182792
-0.0035535432398319
-0.0016010910039767
-7.307971827685833e-05
0.0010076416656374
0.0016763766761869
0.0020174516830593
0.0021498962305486
0.0022078230977058
0.0023202109150588
0.0025946130044758
0.003109133336693
0.0039119306020438
0.0050182482227683
0.0064019653946161
0.0079934941604733
0.0096918521448969
0.0113836163654923
0.0129553135484457
0.0142929386347532
0.0152761163190007
0.0157782919704914
0.0156761351972818
0.0148666240274906
0.0132880788296461
0.0109373182058334
0.0078783668577671
0.0042461329139769
0.0002446398138999
-0.0038705905899405
-0.0078278090804815
-0.0113764367997646
-0.0143119730055332
-0.0164877567440271
-0.0178199876099824
-0.0182897504419088
-0.0179422218352556
-0.016880290582776
-0.0152507415041327
-0.0132261160761117
-0.0109855141490697
-0.0086965812370181
-0.0065021864138543
-0.0045104771852493
-0.0027841036207973
-0.0013357357820495
-0.0001393937272951
0.0008510605548508
0.0016901558265089
0.0024355603381991
0.0031431624665856
0.003861584002152
0.0046275849454104
0.0054624760523438
0.0063700545579195
0.0073365746065974
0.0083333253860473
0.0093223676085472
0.0102615039795637
0.011104417964816
0.0117960618808865
0.012262500822544
0.0124015482142567
0.012089273892343
0.0112049281597137
0.0096610747277736
0.0074274241924285
0.0045455303043127
0.0011332994326949
-0.0026241659652441
-0.0064955819398164
-0.0102289598435163
-0.0135790966451168
-0.016335591673851
-0.0183437839150428
-0.0195129513740539
-0.0198145695030689
-0.0192794017493724
-0.017996996641159
-0.0161088295280933
-0.0137907918542623
-0.0112339369952678
-0.0086271921172738
-0.0061380118131637
-0.0038943269755691
-0.001974266488105
-0.0004027343238703
0.0008441596874035
0.001824717503041
0.0026149097830057
0.0032960409298539
0.0039464379660785
0.0046369140036404
0.0054266671650111
0.0063547058962285
0.0074308882467448
0.0086337616667151
0.0099162505939602
0.0112161533907055
0.0124656073749065
0.0135949635878205
0.0145310498774051
0.0151911750435829
0.0154782915487885
0.0152857517823576
0.014512556605041
0.013082630932331
0.0109649859368801
0.0081932973116636
0.0048751183785498
0.00118143344298
-0.0026775826700031
-0.0064785685390233
-0.010006995871663
-0.0130739351734519
-0.0155282001942396
-0.0172650925815105
-0.0182321704924106
-0.0184314046055078
-0.0179171171039342
-0.016788650304079
-0.0151779241859912
-0.0132359704002738
-0.0111176874488592
-0.0089622661471366
-0.0068808705545961
-0.0049595450982451
-0.0032628446351736
-0.0018272413872182
-0.0006524383788928
0.0002996088005602
0.0010942679364234
0.0018063687020912
0.0025047035887837
0.0032446368131786
0.0040667206048965
0.0049949344247579
0.0060342350043356
0.0071718012914061
0.0083806375041604
0.0096233049407601
0.0108525343239307
0.012004567310214
0.0129908379167318
0.0136970421299338
0.0139933079481124
0.0137545857578516
0.0128829358145594
0.0113235805183649
0.0090771224349737
0.0062113916501402
0.0028663957491517
-0.0007569841109216
-0.0044228243641555
-0.0078892977908253
-0.0109337102621793
-0.0133720990270376
-0.0150747969746589
-0.015980239957571
-0.0161032434552907
-0.0155291333794593
-0.0143935866653919
-0.0128582194447517
-0.0110902450978755
-0.0092473663389682
-0.0074650244787335
-0.0058454107493162
-0.0044516427442431
-0.0033081122674047
-0.0024043393786996
-0.0017013105098158
-0.0011396544286981
-0.0006460294243879
-0.0001402567722834
0.0004501784278545
0.0011739847250282
0.0020493287593126
0.0030681495554745
0.004204586148262
0.0054206172935664
0.0066692898981273
0.0078991614282131
0.0090616038069128
0.010116989724338
0.0110298916697502
0.0117526557296514
0.0122103206813335
0.0123008396476507
0.0119146406650543
0.0109598124399781
0.009377715177834
0.0071528786793351
0.0043256534263491
0.0010021701455116
-0.0026487230788916
-0.0064120572060346
-0.0100505705922842
-0.0133301969617605
-0.0160442069172859
-0.0180350095033645
-0.019208637997508
-0.019538190215826
-0.019061530008912
-0.0178751163184642
-0.0161187071353197
-0.0139549961313605
-0.0115548707544803
-0.0090876268222928
-0.0067078787833452
-0.0045386794954538
-0.0026592011563479
-0.0011039860546588
0.0001311092637479
0.0010849158279597
0.0018241871148347
0.0024305046536028
0.0029902223031967
0.0035879008937627
0.0042960019782185
0.0051650954410433
0.0062210257165133
0.0074644074775278
0.0088678682222962
0.0103768892586231
0.0119168050587177
0.013398490846157
0.0147199248895049
0.0157676246017217
0.0164206400513649
0.016558613628149
0.0160754695534706
0.0148987937718629
0.0130106918513774
0.0104618575423955
0.007372367195785
0.003920788411051
0.0003270723391324
-0.0031714064534753
-0.0063491235487163
-0.0090160276740789
-0.0110312504693865
-0.0123111065477132
-0.0128318034112453
-0.0126266041770577
-0.0117795001715421
-0.0104157859459519
-0.008688224479556
-0.0067602200433611
-0.0047901556827127
-0.0029169768095016
-0.0012449561618268
0.0001687975600361
0.0013171290047466
0.0022323119919747
0.0029671429656445
0.0035798167809844
0.0041291373781859
0.0046737203374505
0.0052675157785415
0.0059535978361964
0.0067609120160341
0.0077029159292578
0.008774478919804
0.0099488422274589
0.0111805582419037
0.0124129503965377
0.0135821383446455
0.0146155143156647
0.0154282348230481
0.0159191954880952
0.0159708131104707
0.0154619934037327
0.014293878339231
0.0124164260923862
0.0098465187475085
0.0066744326613843
0.003058546455577
-0.0007897021714597
-0.0046277539804577
-0.0082075512036681
-0.0113017670810222
-0.0137275718152523
-0.0153634566813707
-0.0161559078842401
-0.0161172877997159
-0.0153201064094901
-0.0138914855197072
-0.0120036266744136
-0.0098545551300048
-0.0076421946287155
-0.0055396985262632
-0.0036778238136321
-0.0021370770409703
-0.0009483167668804
-9.8034564871341e-05
0.0004639769322238
0.0008147894404828
0.0010464310180395
0.001254504546523
0.0015295468037948
0.0019494642037898
0.0025694617070257
0.003410676959902
0.0044560059905052
0.005656523630023
