bvp
-0.004306012764573
-0.0032198287080973
-0.0023956014774739
-0.001798553392291
-0.0013731279177591
-0.0010443865321576
-0.000723912846297
-0.0003212800947949
0.0002405038103461
0.0010080958018079
0.0019880556501448
0.0031504635699093
0.0044412557035684
0.0057962983846664
0.0071526551619172
0.0084530971944332
0.0096429176628589
0.0106617137789726
0.0114350877702236
0.0118722431361675
0.0118712093681097
0.0113303419202566
0.0101674320176243
0.0083452742546796
0.0058920611627399
0.0029046512208878
-0.0004621255211532
-0.0040111341513693
-0.0075217909179627
-0.0107726398855447
-0.0135648157447576
-0.0157421194016933
-0.0172050110995769
-0.0179169159382581
-0.0179018545895814
-0.0172348227351903
-0.0160283371806144
-0.0144182927906513
-0.0125498566776514
-0.0105627113953232
-0.0085792504251003
-0.006700555793941
-0.005005981773138
-0.0035489571746438
-0.0023503717966377
-0.0013964520767331
-0.000643604202196
-2.6330584660172462e-05
0.0005342229269444
0.0011186331976205
0.0017962921410799
0.0026176872197538
0.0036112044472247
0.0047810915857553
0.0061103547923266
0.0075703263282775
0.0091283721849322
0.0107460729777812
0.0123713118955492
0.0139309018850326
0.0153262438252568
0.0164345931261777
0.0171186439692974
0.0172437578439712
0.0167008191347122
0.0154294976964592
0.013434337452054
0.0107911406084895
0.0076441895216703
0.0041937623172998
0.0006755702197551
-0.0026638866402208
-0.0055949022062122
-0.0079335020855069
-0.009564452804625
-0.010451178997755
-0.0106305321678519
-0.0101962378248572
-0.0092781092971563
-0.0080218585208058
-0.0065736710093915
-0.005071279592812
-0.0036357981152832
-0.0023614224046468
-0.0013073356822133
-0.0004925308749079
0.0001067677512764
0.0005533983930945
0.0009352741762995
0.0013424875214695
0.0018476285040378
0.0024980390444397
0.0033139400184154
0.0042876116931438
0.0053859148174524
0.0065577020868659
0.0077466629445552
0.008904792368412
0.0099982470273971
0.011006380431354
0.0119183147326111
0.0127247385680675
0.013406672514975
0.0139290671795606
0.0142379086464643
0.0142586827278137
0.0139066912233829
0.0131125301122665
0.0118504911661148
0.0101576168090105
0.0081355441361665
0.0059359893202781
0.0037393718957901
0.001730253919959
7.006339728832245e-05
-0.0011247340589761
-0.0017919763922691
-0.0019218865782022
-0.0015480350703001
-0.0007355883717536
0.0004274621605873
0.0018335934728384
0.0033604577183723
0.0048827026039361
0.0062856059521436
0.0074741728603839
0.0083773974329233
0.0089485105127096
0.0091614313423633
0.0090058762580156
0.0084836538881063
0.0076065883040428
0.0063950084149837
0.0048749297857284
0.0030769631266593
0.0010417439043521
-0.0011742860078811
-0.0035009048879146
-0.0058595184236764
-0.0081651508808135
-0.0103272162377834
-0.0122549720108509
-0.0138703361153602
-0.0151259750127792
-0.0160234495997428
-0.0166288204491138
-0.0170811433345079
-0.017582818865776
-0.0183691196143627
-0.0196684338152408
-0.0216623228043317
-0.0244485400617122
-0.0280167572200298
-0.0322476811707019
-0.0369309745728969
-0.0417893603444099
-0.0465049855411052
-0.0507495403289794
-0.0542172715067863
-0.0566590502858161
-0.0579129867255687
-0.057923100888729
-0.0567412748932838
-0.0545146837830543
-0.0514625273644924
-0.0478470697999
-0.0439439266920089
-0.0400106869637966
-0.0362590327858924
-0.0328397303819656
-0.029832724481821
-0.0272351279854774
-0.0249591190367937
-0.0228508077561855
-0.0207260325551033
-0.0184095427393913
-0.0157657340168952
-0.0127169173210859
-0.0092507041990756
-0.0054200198501348
-0.0013351757079362
0.0028537772595882
0.0069801569916307
0.0108824139460921
0.0144160259515047
0.0174496863037347
0.0198537837713956
0.021493662148714
0.0222305916249752
0.0219319909811019
0.0204951986670494
0.0178814213722944
0.0141485314816236
0.0094704860821366
0.0041340570896863
-0.0014854595065116
-0.006960779428482
-0.0118577722460031
-0.0157832391560077
-0.0184247624129056
-0.0195813924074172
-0.0191864818334579
-0.0173128508031368
-0.0141543485224246
-0.0099937207996845
-0.0051660686731338
-2.140551805496216e-05
0.0051087774336338
0.0099385976791381
0.0142472106963396
0.0178867243230342
0.0207801088690757
0.0229156743735075
0.0243407301604747
0.0251539126038551
0.0254965480417013
0.025540130212903
0.0254658199846744
0.0254404116421937
0.0255968496203422
0.0260232836008071
0.026760084554553
0.0278011988848447
0.0291006043553352
0.0305866915732622
0.0321781858801841
0.0337921157479286
0.0353410989046096
0.036723792552948
0.037818394601345
0.0384876020252704
0.0385945104062557
0.0380232781171798
0.0366991162300109
0.0346055589616298
0.031796421855688
0.0283986087888479
0.0246049351990222
0.0206582155078649
0.0168266985565423
0.0133730378001928
0.0105240270495414
0.0084469970315694
0.0072348900139331
0.006901130080223
0.0073834918439388
0.0085557028651237
0.0102471001446247
0.0122656729072332
0.0144156161695718
0.0165120102465152
0.0183992013335227
0.0199665781110525
0.0211555827409029
0.0219603031873703
0.022421509027481
0.0226124059408903
0.0226208232343196
0.0225346777588129
0.0224321410059928
0.0223748181015253
0.0224040877074003
0.0225426405668258
0.0227995831519365
0.0231714006513357
0.0236372351646423
0.0241577755659818
0.0246787890791893
0.0251305699348449
0.025423714891076
0.0254471451044082
0.0250717625021934
0.0241636335849761
0.0226049311459064
0.0203155316412448
0.0172727312892675
0.0135263660922646
0.0092021450400352
0.0044935210607945
-0.0003525002393871
-0.0050607775337994
-0.009367499500513
-0.0130562428385019
-0.0159747321158647
-0.0180384665727615
-0.0192308761179447
-0.0195986274629831
-0.0192413814365863
-0.0183005724102258
-0.0169471148401498
-0.0153640983626246
-0.0137257371097803
-0.0121779572218656
-0.0108258184045553
-0.0097289849072694
-0.0089014833793044
-0.0083182845264673
-0.0079316869378089
-0.0076851369813084
-0.0075173499062657
-0.0073659187182784
-0.0071745114400982
-0.0069003729149699
-0.0065195662900805
-0.0060290647670626
-0.0054481048136949
-0.0048174802213907
-0.0041922926902771
-0.0036326684057712
-0.0032008718699216
-0.0029642973095178
-0.0029985923320055
-0.0033897943794727
-0.0042345207184553
-0.0056306347250938
-0.0076552536338567
-0.0103375408798456
-0.0136372363194823
-0.0174381099641323
-0.0215573664754629
-0.0257649831473827
-0.0298089273273944
-0.0334434993565082
-0.0364558547735214
-0.0386861488223075
-0.0400390177965164
-0.0404855906963348
-0.0400577411055564
-0.0388431586325168
-0.0369855351746082
-0.0346767827868461
-0.0321304127573967
-0.029546670615673
-0.0270878877490758
-0.0248697679489851
-0.0229581631720066
-0.0213664509356021
-0.0200609620660543
-0.0189744755625724
-0.0180217344313859
-0.0171140898019075
-0.0161699298769235
-0.0151194259524345
-0.0139069501310586
-0.0124969957396388
-0.0108822425827384
-0.0090859923511743
-0.0071573285385966
-0.0051603633910417
-0.0031629991717636
-0.0012355167418718
0.0005426709540188
0.0020782202482223
0.0032646455802023
0.0039905724115669
0.0041573266498744
0.0037016398273408
0.0026150685735046
0.0009539132006466
-0.0011609531939029
-0.0035557018127292
-0.006027347408235
-0.0083693601191043
-0.0103895775973796
-0.011923674494028
-0.0128474803641438
-0.0130860554054379
-0.0126191256567835
-0.0114820962771773
-0.0097599048167467
-0.0075761568732559
-0.0050808726809918
-0.002434498630464
0.0002102330327033
0.0027237245813012
0.0050118835642933
0.0070210164412856
0.0087311072275042
0.0101464409381151
0.0112919993698596
0.012212797999382
0.0129717951640486
0.0136422431096434
0.0142934266477823
0.0149774551391601
0.0157230384647846
0.0165355093777179
0.0174013245850801
0.0182950068265199
0.0191864054650068
0.0200431272387504
0.0208231396973133
0.021461583673954
0.0218617506325244
0.0218997001647949
0.0214452072978019
0.0203909929841756
0.018678430467844
0.0163136273622512
0.0133738052099943
0.0100030303001403
0.0063970182090997
0.0027832142077386
-0.000598250888288
-0.0035158162936568
-0.0057727750390768
-0.0072305276989936
-0.0078213494271039
-0.0075554093345999
-0.0065243849530816
-0.0048924330621957
-0.0028695408254861
-0.0006758738309144
0.001490487717092
0.0034753279760479
0.0051778457127511
0.0065500736236572
0.0075900480151176
0.0083331633359193
0.0088424105197191
0.009195165708661
0.0094710607081651
0.0097470320761203
0.0100950235500931
0.010573205538094
0.011211484670639
0.012003656476736
0.0129127223044633
0.0138820353895425
0.0148451309651136
0.0157310292124748
0.0164626613259315
0.0169528741389513
0.0171045009046793
0.0168160386383533
0.0159927494823932
0.0145621988922357
0.0124919116497039
0.0098060201853513
0.0065954769961535
0.0030133030377328
-0.0007467348477803
-0.0044763730838894
-0.007973127067089
-0.0110540799796581
-0.013566156849265
-0.0153958080336451
-0.016480416059494
-0.0168176759034395
-0.0164659842848777
-0.0155350966379046
-0.0141712967306375
-0.0125396884977817
-0.010804290883243
-0.0091074863448739
-0.0075527871958911
-0.0061992309056222
-0.0050702323205769
-0.0041651194915175
-0.0034637169446796
-0.0029267554637044
-0.0024970672093331
-0.0021060712169855
-0.0016864057397469
-0.0011832086602225
-0.0005590569926425
0.0002034787466982
0.0010998276993632
0.0021060311701148
0.0031851329840719
0.0042906082235276
0.0053647318854928
0.0063323620706796
0.0070926663465797
0.0075186514295637
0.0074712196364998
0.0068245087750256
0.0054937712848186
0.0034576158504933
0.0007722070440649
-0.0024249565321952
-0.0059271464124321
-0.0094848219305276
-0.0128368912264704
-0.0157403089106082
-0.0179952699691057
-0.0194612387567758
-0.0200621578842401
-0.0197896398603916
-0.0187083277851343
-0.0169511754065752
-0.0146988928318023
-0.0121543547138571
-0.0095193553715944
-0.0069737182930111
-0.0046586086973547
-0.0026668640784919
-0.0010412500705569
0.0002209981903433
0.0011606302578002
0.0018475434044376
0.0023699384182691
0.0028224440757185
0.0032957061193883
0.0038643674924969
0.0045723035000264
0.0054249577224254
0.0063950726762413
0.0074365413747727
0.0084977280348539
0.0095277354121208
0.010475005954504
0.0112822018563747
0.0118803419172763
0.0121842715889215
0.0120949083939194
0.0115126082673668
0.0103578921407461
0.0085934689268469
0.0062422780320048
0.0033932188525795
0.0001916656619869
-0.0031774286180734
-0.0065074497833848
-0.0095889810472726
-0.0122295813634991
-0.0142716569826006
-0.015605472959578
-0.0161780286580324
-0.0159983914345502
-0.0151363005861639
-0.0137122264131903
-0.0118821803480386
-0.0098205916583538
-0.0076997373253107
-0.0056670918129384
-0.0038314303383231
-0.0022625266574323
-0.0009935391135513
-1.928536221385002e-05
0.000702706631273
0.0012427540495991
0.0016836472786962
0.0021059922873973
0.0025788117200136
0.0031533669680356
0.0038583560381084
0.0046989466063678
0.0056613967753946
0.0067205913364887
0.0078465705737471
0.0090082772076129
0.010169300250709
0.0112739605829119
0.0122350566089153
0.0129349818453192
0.0132408011704683
0.0130258789286017
0.0121934544295072
0.0107010435312986
0.0085775814950466
0.0059241615235805
0.0029017063789069
-0.0002862964756786
-0.0034149228595197
-0.0062629529275
-0.0086364643648266
-0.010384882800281
-0.0114116631448268
-0.0116843665018677
-0.0112400781363248
-0.0101802824065089
-0.008656064979732
-0.0068458169698715
-0.0049289185553789
-0.0030633276328444
-0.0013711671344935
7.004663348197937e-05
0.001230567228049
0.0021234303712844
0.0027921712026
0.0032974779605865
0.0037104152143001
0.0041106822900474
0.0045771822333335
0.0051682209596037
0.0059081339277327
0.0067900102585554
0.0077839754521846
0.0088420715183019
0.0099037615582346
0.0109049994498491
0.0117841996252536
0.0124804358929395
0.0129296854138374
0.0130637567490339
0.012810256332159
0.0120970048010349
0.0108666252344846
0.0090975491330027
0.0068191043101251
0.0041114706546068
0.0010960538638755
-0.0020735231228172
-0.0052209021523594
-0.0081603648141026
-0.0107117220759391
-0.0127154076471924
-0.0140483826398849
-0.0146400183439254
-0.0144829768687486
-0.013632615096867
-0.012194650247693
-0.0103083094581961
-0.008130645379424
-0.0058204885572195
-0.0035251323133707
-0.0013748083729296
0.0005233369302004
0.0020985868759453
0.0033276050817221
0.0042329225689172
0.0048727374523878
0.0053295288234949
0.0056973062455654
0.0060656741261482
0.0065055396407842
0.0070626400411129
0.0077570430003106
0.0085823666304349
0.0095073087140917
0.0104868188500404
0.0114752473309636
0.012427314184606
0.0132904518395662
0.0139994835481047
0.0144735909998416
0.0146154873073101
0.0143188256770372
0.0134841026738286
0.0120380362495779
0.009953623637557
0.007266588974744
0.0040807854384183
0.0005591204389929
-0.0030947739724069
-0.0066560562700033
-0.0098981941118836
-0.0126172639429569
-0.0146596971899271
-0.0159404836595058
-0.0164435990154743
-0.0162130072712898
-0.0153435319662094
-0.0139701627194881
-0.0122517179697752
-0.0103501863777637
-0.0084128510206937
-0.006561430171132
-0.0048841848038136
-0.0034281061962246
-0.002195999957621
-0.0011525165755301
-0.0002354439347982
0.0006289351731538
0.0015057818964123
0.0024368362501263
0.0034375679679214
0.0045013204216957
0.0056058913469314
0.0067192954011261
0.0078035593032836
0.0088203754276037
0.0097375605255365
0.0105301048606634
0.0111741125583648
0.0116368271410465
0.0118697136640548
0.0118113299831748
0.0113968532532453
0.0105646941810846
0.0092610465362668
0.0074516991153359
0.0051408726722002
0.002388447523117
-0.0006829956546425
-0.0038981363177299
-0.0070534404367208
-0.0099453767761588
-0.0123959630727767
-0.0142733715474605
-0.0155029203742742
-0.016068946570158
-0.0160136669874191
-0.0154318297281861
-0.014456670731306
-0.0132430223748087
-0.0119546949863433
-0.0107515137642622
-0.0097717884927988
-0.0091147627681493
-0.0088280420750379
-0.0089033246040344
-0.0092826532199978
-0.0098720593377947
-0.0105559322983026
-0.011207727715373
-0.0116981668397784
-0.0119071695953607
-0.0117394840344786
-0.0111324433237314
-0.010052933357656
-0.0084985652938485
-0.0065083364024758
-0.0041673704981803
-0.0015977330040186
0.0010559987276792
0.0036380472593009
0.005987980403006
0.0079437177628278
0.0093446262180805
0.0100421933457255
0.0099214185029268
0.0089238509535789
0.007062055170536
0.0044240998104214
0.0011696452274918
-0.0024823963176459
-0.0062760892324149
-0.0099499374628067
-0.0132692493498325
-0.0160482246428728
-0.0181585699319839
-0.0195300243794918
-0.0201473701745271
-0.0200435053557157
-0.0192896276712417
-0.0179857239127159
-0.0162525195628404
-0.0142247639596462
-0.012043684720993
-0.0098458593711256
-0.0077479844912886
-0.0058324658311903
-0.0041435938328504
-0.0026945737190544
-0.0014750147238373
-0.0004541440866887
0.0004169610328972
0.0012018363922834
0.0019747642800211
0.0028155045583844
0.0037976671010255
0.0049719801172614
0.0063543682917952
0.0079237930476665
0.0096277883276343
0.0113926222547888
0.01313391700387
0.0147639270871877
0.016190655529499
0.0173103101551532
0.0180066898465156
0.0181649178266525
0.017693730071187
0.0165487080812454
0.0147491190582513
0.0123826041817665
0.0095986220985651
0.0065934965386986
0.0035884212702512
0.000805783085525
-0.0015516523271799
-0.0033203614875674
-0.0043930681422352
-0.004727516323328
-0.0043477332219481
-0.0033415164798498
-0.0018516136333346
-5.764234811067581e-05
0.0018481155857443
0.0036855232901871
0.0053069698624312
0.0066096661612391
0.0075395959429442
0.0080890199169516
0.0082899313420057
0.0082062883302569
0.0079247085377573
0.0075418073683977
0.0071523441001772
0.0068422742187976
0.0066804620437324
0.0067064948379993
0.0069253873080015
0.0073130941018462
0.007826205343008
0.0084129720926284
0.0090221799910068
0.0096044484525918
0.0101070720702409
0.0104678096249699
0.0106130745261907
0.0104630570858716
0.0099411439150571
0.0089857019484043
0.0075660133734345
0.0056999213993549
0.0034610570874065
0.0009683710522949
-0.0016306841280311
-0.0041720913723111
-0.0064872959628701
-0.0084210243076086
-0.0098500410094857
-0.0106963003054261
-0.010932320728898
-0.0105798346921801
-0.009705739095807
-0.0084162931889295
-0.0068461908958852
-0.0051432130858302
-0.0034497012384235
-0.001883203163743
-0.0005269590765237
0.0005673689302057
0.0013764891773462
0.0019057273166254
0.0021878369152545
0.002279631095007
0.0022567296400666
0.002205092459917
0.0022094745654612
0.0023407919798046
0.002647350076586
0.0031518572941422
0.0038498346693813
0.0047105439007282
0.0056864973157644
0.0067272745072841
0.0077830092050135
0.0087923230603337
0.009668830782175
0.0103002712130546
0.0105610592290759
0.0103328358381986
0.0095262769609689
0.0080999378114938
0.0060730292461812
0.0035271921660751
0.0005981298163533
-0.0025362132582813
-0.0056708762422204
-0.0085948836058378
-0.0111113581806421
-0.013052362948656
-0.0142959170043468
-0.0147865731269121
-0.01454643253237
-0.0136683322489261
-0.0122968070209026
-0.0106046739965677
-0.0087693287059664
-0.006951774470508
-0.0052802460268139
-0.0038396096788346
-0.0026679756119847
-0.0017604625318199
-0.0010784791084006
-0.0005614633555524
-0.0001376698492094
0.0002662541810423
0.0007144479313865
0.0012492451351135
0.0018818337703123
0.0025948926340788
0.0033576944842934
0.00414081197232
0.0049218637868762
0.0056855091825127
0.0064192954450845
0.0071055046282708
0.0077119651250541
0.0081829335540533
0.0084339752793312
0.0083589302375912
0.0078505501151084
0.0068285781890153
0.0052637457847595
0.0031860987655818
0.0006797350943088
-0.0021260369103401
-0.0050667021423578
-0.0079562030732631
-0.0106046050786972
-0.0128369247540831
-0.0145099740475416
-0.0155265554785728
-0.0158464759588241
-0.0154910581186413
-0.0145383197814226
-0.0131095675751566
-0.0113495904952287
-0.0094049153849482
-0.007409268990159
-0.0054790377616882
-0.0037096296437084
-0.0021691459696739
-0.000894573284313
0.0001080159563571
0.0008608471835032
0.0014100291300565
0.0018192467978224
0.002163159660995
0.0025208652950823
0.0029652283992618
0.003548912005499
0.0042946897447109
0.005196027457714
0.0062267128378152
0.0073479982092976
0.0085062673315405
0.0096288248896598
0.0106237577274441
0.0113829113543033
0.0117894923314452
0.011731588281691
0.0111185209825634
0.009895896539092
0.0080563072115182
0.0056453933939337
0.0027649663388729
-0.0004275692626833
-0.0037274456117302
-0.0069016106426715
-0.0097186770290136
-0.011984541080892
-0.013570237904787
-0.014421883970499
-0.0145566212013363
-0.0140512473881244
-0.0130260167643427
-0.0116256587207317
-0.0100001655519008
-0.0082892188802361
-0.0066112331114709
-0.00505534093827
-0.0036783453542739
-0.002506619086489
-0.0015392281347885
-0.0007509425631724
-9.47796506807208e-05
0.0004920088686048
0.0010733467061072
0.0016976447077468
0.0023893390316516
0.0031505452934652
0.0039691622368991
0.0048274169676005
0.0057057542726397
0.006583300884813
0.0074397223070263
0.0082572465762496
0.0090151997283101
0.0096765989437699
0.0101788975298404
0.0104366829618811
0.0103527586907148
0.0098323533311486
0.008797837421298
0.0072051929309964
0.0050607593730092
0.0024312196765094
-0.0005564263556152
-0.0037239452358335
-0.0068596312776207
-0.0097429938614368
-0.0121724847704172
-0.013990493491292
-0.0150995403528213
-0.0154683385044336
-0.0151303093880414
-0.0141747435554862
-0.0127285243943333
-0.0109363468363881
-0.0089508835226297
-0.0069266883656382
-0.005006706342101
-0.0033036456443369
-0.0018861524295061
-0.000776226632297
4.658277612179518e-05
0.0006385525921359
0.0010794338304549
0.0014565739547833
0.0018532933900132
0.0023414404131472
0.0029721991159021
0.0037677050568163
0.004722261801362
0.0058097252622246
0.0069860750809311
0.0081894490867853
0.0093451645225286
0.0103718042373657
0.0111823752522468
0.0116840880364179
0.011782081797719
0.0113875623792409
0.0104305734857916
0.00887649692595
0.0067412052303552
0.0040992577560245
0.001081263530068
-0.0021363319829106
-0.0053430767729878
-0.0083144754171371
-0.0108445053920149
-0.0127762863412499
-0.0140159456059336
-0.0145309083163738
-0.0143436193466186
-0.0135261323302984
-0.0121933724731206
-0.0104922922328114
-0.0085851503536105
-0.0066302744671702
-0.0047661680728197
-0.0030997721478343
-0.001698590349406
-0.0005857935175299
0.0002619638107717
0.0009064092300832
0.0014270157553255
0.0019006431102752
0.0023905369453132
0.0029429607093334
0.0035868801642209
0.0043344860896468
0.0051842564716935
0.0061255102045834
0.0071403393521904
0.008203599601984
0.0092831831425428
0.0103366710245609
0.0113012455403804
0.0120861241593956
0.0125788860023021
0.0126606952399015
0.012221104465425
0.0111754788085818
0.009487903676927
0.0071912426501512
0.004392887931317
0.0012638192856684
-0.0019824460614472
-0.0051154540851712
-0.0079139610752463
-0.0101883793249726
-0.0117977987974882
-0.0126614980399608
-0.0127644371241331
-0.0121557423844933
-0.0109400115907192
-0.0092628765851259
-0.0072936718352139
-0.0052074021659791
-0.0031663551926612
-0.0013032155111432
0.0002907221205532
0.0015700231306254
0.0025328565388917
0.0032150361221283
0.0036823130212724
0.0040195854380726
0.004316805396229
0.0046563441865146
0.0051051983609795
0.0057109906338155
0.0065005039796233
0.0074771060608327
0.0086160618811845
0.0098652569577097
0.0111525608226656
0.0123900566250085
0.0134721584618091
0.0142759457230567
0.0146692721173167
0.0145261017605662
0.0137479528784751
0.0122849829494953
0.0101474886760115
0.0074083344079554
0.0042008315213024
0.0007111219456419
-0.0028350057546049
-0.0061922529712319
-0.0091268476098775
-0.0114502804353833
-0.0130407782271504
-0.0138485236093401
-0.0138898780569434
-0.0132370591163635
-0.0120071340352296
-0.0103494208306074
-0.0084295775741338
-0.0064124572090804
-0.0044463975355029
-0.0026490744203329
-0.0010967964772135
0.0001795801799744
0.0011928871972486
0.0019907837267965
0.0026384256780147
0.0032028635032474
0.0037470059469342
0.0043262410908937
0.004982634447515
0.0057398476637899
0.0066008223220705
0.0075488528236746
0.0085523584857583
0.0095697296783328
0.0105491513386368
0.0114224888384342
0.0120990704745054
0.0124685317277908
0.0124132744967937
0.0118219759315252
0.0106036067008972
0.0087077189236879
0.0061446530744433
0.002994033973664
-0.0005993256345391
-0.0044374112039804
-0.0082857562229037
-0.0118946162983775
-0.0150255542248487
-0.0174788516014814
-0.0191147178411483
-0.01986700668931
-0.019749242812395
-0.0188487842679023
-0.0173083636909723
-0.0153042934834957
-0.0130300372838974
-0.0106805013492703
-0.0084310360252857
-0.0064161717891693
-0.0047163926064968
-0.003356332425028
-0.0023113833740353
-0.001518553122878
-0.0008906034054234
-0.0003319862007629
0.000247506191954
0.0009221741347573
0.0017404655227437
0.0027197017334401
0.0038510498125106
0.0051090186461806
0.0064545930363237
0.0078322263434529
0.0091695701703429
0.0103794811293482
0.0113587602972984
0.0119888009503483
0.0121458694338798
0.0117183132097125
0.0106242261826992
0.0088285785168409
0.0063591198995709
0.0033147551584988
-0.0001401647459715
-0.0037927399389445
-0.0074011031538248
-0.0107173211872577
-0.0135158952325582
-0.0156193748116493
-0.0169146135449409
-0.0173604097217321
-0.0169866383075714
-0.0158864110708236
-0.0142031228169798
-0.0121118538081645
-0.0097969882190227
-0.0074309748597443
-0.0051580457948148
-0.0030846176669001
-0.0012758182128891
0.0002459260867908
0.001500672660768
0.0025417685974389
0.0034376913681626
0.0042566703632473
0.0050590122118592
0.0058929910883307
0.006792171858251
0.0077746296301484
0.0088444240391254
0.0099933492019772
0.0112015083432197
0.0124378306791186
0.013659531250596
0.0148087823763489
0.0158071350306272
0.016551773995161
0.0169207081198692
0.0167859178036451
0.0160275176167488
0.0145518826320767
0.0123184528201818
0.0093646328896284
0.0058126328513026
0.0018574032001197
-0.0022540953941643
-0.0062478543259203
-0.0098530426621437
-0.0128347687423229
-0.0150205213576555
-0.016314473003149
-0.0167021546512842
-0.0162459891289472
-0.0150693412870168
-0.0133363008499145
-0.0112352613359689
-0.0089607266709208
-0.0066910875029861
-0.0045718252658843
-0.0027058450505137
-0.0011470414465293
0.00010044593364
0.0010753552196547
0.0018466878682374
0.0024986923672258
0.0031174696050584
0.0037797573022544
0.00454225204885
0.0054359976202249
0.0064704283140599
0.007638425566256
0.0089140925556421
0.0102504501119256
0.0115833953022956
0.0128382751718163
0.0139359254390001
0.0147958006709814
0.0153340343385934
0.0154600096866488
0.0150789357721805
0.0141039788722991
0.0124740973114967
0.010171515867114
0.007235343568027
0.0037700030952692
-5.431007593870163e-05
-0.0040158559568226
-0.0078711342066526
-0.0113883893936872
-0.0143727138638496
-0.0166796427220106
-0.0182199515402317
-0.0189610533416271
-0.018927939236164
-0.0181999616324901
-0.0168996322900056
-0.0151762403547763
-0.0131890680640935
-0.0110922437161207
-0.0090212719514966
-0.0070812585763633
-0.0053387638181447
-0.0038213029038161
-0.0025259328540414
-0.0014300479087978
-0.0004965886473655
0.0003236401826143
0.0010858201421797
0.0018420410342514
0.0026340573094785
0.0034890403039753
0.0044166184961795
0.005407687742263
0.0064383945427834
0.0074778469279408
0.0084945522248744
0.0094601046293973
0.0103471269831061
0.0111171696335077
0.0117051471024751
0.0120141161605715
0.011924491263926
0.0113130751997232
0.0100782262161374
0.008165918290615
0.0055891256779432
0.0024359067901968
-0.0011346796527504
-0.0049081621691584
-0.0086395423859357
-0.0120823895558714
-0.0150156654417514
-0.0172628685832023
-0.0187029242515563
-0.0192796066403388
-0.0190116241574287
-0.0179921314120292
-0.0163711756467819
-0.0143294734880328
-0.0120533062145113
-0.0097140092402696
-0.0074527822434902
-0.0053710089996457
-0.0035255316179245
-0.0019305439200252
-0.0005676285363733
0.0006011151708662
0.0016233248170465
0.0025517959147691
0.0034421836026012
0.0043461471796035
0.0052982373163104
0.0063058207742869
0.0073493146337568
0.0083900559693574
0.0093818251043558
0.0102824941277503
0.0110608264803886
0.0116958487778902
0.0121684866026043
0.0124485110864043
0.0124850329011678
0.0122065003961324
0.0115290563553571
0.0103727588430047
0.0086860302835702
0.0064678089693188
0.0037746336311101
0.0007151728495955
-0.0025605419650673
-0.0058755539357662
-0.0090415636077523
-0.0118746850639581
-0.0142127471044659
-0.015931449830532
-0.0169558133929967
-0.0172670390456914
-0.0169047825038433
-0.0159610025584697
-0.0145644098520278
-0.0128618916496634
-0.0110009256750345
-0.0091142561286687
-0.0073099546134471
-0.0056666051968932
-0.0042315791361033
-0.0030203664209693
-0.0020161475986242
-0.0011748380493372
-0.0004363270709291
0.000265096896328
0.0009922423632815
0.0017961363773792
0.0027088273782283
0.0037390529178082
0.0048706238158047
0.0060677304863929
0.007288166321814
0.0084934467449784
0.0096475668251514
0.0107099777087569
0.0116281220689415
0.0123312342911958
0.012730904854834
0.0127317141741514
0.0122479908168315
0.01122029684484
0.0096290260553359
0.0075047723948955
0.0049323523417115
0.0020453378092497
-0.0009861725848168
-0.0039684954099357
-0.0066986382007598
-0.0089867394417524
-0.010683917440474
-0.0117019955068826
-0.0120180761441588
-0.0116682117804884
-0.0107374591752886
-0.0093491878360509
-0.0076502989977598
-0.0057908897288143
-0.0039038802497088
-0.0020918024238198
-0.0004237401881255
0.0010608079610392
0.0023473526816815
0.0034445554483681
0.0043824915774166
0.0052044112235307
0.0059522916562855
0.0066576260142028
0.0073419120162725
0.0080178584903478
0.0086866375058889
0.0093364398926496
0.0099466135725378
0.0104947676882147
0.0109629295766353
0.0113413706421852
0.0116271777078509
0.0118148233741521
0.0118829496204853
0.0117873670533299
0.0114656407386064
0.0108477501198649
0.0098669044673442
0.0084727061912417
0.0066482392139732
0.0044241556897759
0.0018816352821886
-0.0008548540063202
-0.0036304469686001
-0.0062765385955572
-0.0086281597614288
-0.01054029725492
-0.0119031127542257
-0.0126547701656818
-0.0127887018024921
-0.0123488008975982
-0.0114143872633576
-0.0100885974243283
-0.008493953384459
-0.0067655169405043
-0.0050367247313261
-0.0034226679708808
-0.0020073167979717
-0.000836739083752
8.141947910189629e-05
0.0007722885347902
0.0012857234105467
0.0016877381131052
0.0020480710081756
0.002424937672913
0.0028559346683323
0.0033601117320358
0.0039444039575755
0.0046047596260905
0.0053219106048345
0.0060592712834477
0.006766163278371
0.0073825847357511
0.0078412275761365
0.0080674896016716
0.0079816384240984
0.0075053083710372
0.0065742079168558
0.0051547558978199
0.0032544424757361
0.0009224331006407
-0.001751794014126
-0.00463836081326
-0.0075704935006797
-0.0103596420958638
-0.0128243463113904
-0.0148197654634714
-0.0162529237568378
-0.0170844346284866
-0.0173244588077068
-0.0170242674648761
-0.0162638593465089
-0.0151398256421089
-0.0137553196400403
-0.0122123602777719
-0.0106059350073337
-0.0090174144133925
-0.007508055306971
-0.006115049123764
-0.0048509668558835
-0.0037078070454299
-0.002665985841304
-0.0017026534769684
-0.0007944694370962
8.001946844160557e-05
0.0009358072420582
0.0017804591916501
0.0026170364581048
0.003445909358561
0.0042641372419893
0.0050642136484384
0.0058339815586805
0.0065574757754802
0.0072130258195102
0.0077664600685238
0.0081654405221343
0.0083394953981041
0.0082040969282388
0.0076725203543901
0.0066784359514713
0.0052001364529132
0.0032735771965235
0.0009899821598082
-0.0015156225999817
-0.0040780659765005
-0.00651799980551
-0.0086621223017573
-0.0103637678548693
-0.0115173300728201
-0.0120673067867755
-0.012012037448585
-0.0113961454480886
-0.0102977221831679
-0.0088216289877891
-0.0070949899964034
-0.0052560861222445
-0.0034374557435512
-0.0017500717658549
-0.0002733594737946
0.0009489520452916
0.0019086129032075
0.0026289436500519
0.0031579323112964
0.003559686942026
0.0039049990009516
0.0042626447975635
0.0046937256120145
0.0052472120150923
0.0059527303092181
0.006811682600528
0.0077942032366991
0.0088468575850129
0.0099061876535415
0.0109081920236349
0.0117885041981935
0.0124776195734739
0.0128990989178419
0.0129736680537462
0.0126273967325687
0.0118023650720715
0.0104700345546007
0.008644875138998
0.0063921860419213
0.003826955333352
0.001103421091102
-0.0016040753107517
-0.0041235424578189
-0.0063043716363608
-0.0080307545140385
-0.0092286029830574
-0.0098668970167636
-0.0099579421803355
-0.0095554012805223
-0.0087450752034783
-0.00763023737818
-0.0063164522871375
-0.0048995278775691
-0.003459635656327
-0.0020596752874553
-0.0007429993711411
0.000466261524707
0.0015566684305667
0.0025246150325983
0.0033752925228327
0.0041233254596591
0.0047904872335493
0.0054019372910261
0.0059813917614519
0.0065469713881611
0.0071094087325036
0.0076720332726836
0.008231327868998
0.0087780710309743
0.0092985033988952
0.0097739249467849
0.0101769557222723
0.0104625793173909
0.0105596669018268
0.0103749185800552
0.0098106041550636
0.0087857767939567
0.0072532012127339
0.0052111526019871
0.0027099421713501
-0.0001493164163548
-0.0032245200127363
-0.0063474704511463
-0.009340638294816
-0.0120337763801217
-0.0142797762528061
-0.0159692745655775
-0.0170376114547252
-0.0174645856022834
-0.0172776877880096
-0.016554607078433
-0.0154126957058906
-0.0139894168823957
-0.0124234296381473
-0.0108388820663094
-0.009334422647953
-0.007977926172316
-0.0068040662445127
-0.0058130328543484
-0.0049740406684577
-0.0042349048890173
-0.0035339915193617
-0.0028102262876927
-0.0020096381194889
-0.0010927547700703
-4.420476034283638e-05
0.0011231428943574
0.0023748790845274
0.0036673883441835
0.0049567120149731
0.0062013273127377
0.0073606995865702
0.0083904704079031
0.0092370938509702
0.0098360646516084
0.0101155266165733
0.0100057683885097
0.0094536384567618
0.0084392232820391
0.0069906371645629
0.0051881363615393
0.0031525569502264
0.0010271789506077
-0.0010370882228016
-0.0028950101695954
-0.0044216443784534
-0.0055239372886717
-0.0061465655453503
-0.0062736980617046
-0.0059267883189022
-0.0051585142500698
-0.0040455413982272
-0.0026824865490198
-0.0011758441105484
0.0003661941736936
0.0018483297899365
0.0031992900185287
0.0043739480897784
0.0053508607670664
0.0061292722821235
0.0067261946387588
0.0071744034066796
0.0075197084806859
0.0078157465904951
0.0081175230443477
0.0084740510210394
0.0089195044711232
0.0094664292410016
0.0101050678640604
0.0108090825378894
0.0115462690591812
0.0122871343046426
0.01299983356148
0.0136320535093545
0.014097673818469
0.0142830675467848
0.0140685429796576
0.0133522823452949
0.0120717016980052
0.0102203162387013
0.007854645140469
0.0050885528326034
0.002079363213852
-0.0009893369860947
-0.003926645964384
-0.0065541085787117
-0.0087226396426558
-0.0103226294741034
-0.0112908510491251
-0.0116190891712903
-0.0113578997552394
-0.0106081971898674
-0.0095047727227211
-0.0081969993188977
-0.0068279528059065
-0.0055167572572827
-0.0043497057631611
-0.0033780627418309
-0.0026184204034507
-0.0020552347414195
-0.0016456057783216
-0.0013280765851959
-0.0010356497950851
-0.0007071546278893
-0.00029528059531
0.0002261619083583
0.0008591752266511
0.0015864660963416
0.0023801177740097
0.0032074095215648
0.0040340442210435
0.004826882854104
0.005552580114454
0.0061714826151728
0.0066311806440353
0.0068616950884461
0.0067767547443509
0.0062872027046978
0.0053245136514306
0.0038645304739475
0.0019373879767954
-0.0003807581961154
-0.0029813190922141
-0.0057322080247104
-0.0084844641387462
-0.011080102995038
-0.0133634721860289
-0.0151975359767675
-0.0164805054664611
-0.017156520858407
-0.0172198861837387
-0.0167138148099184
-0.0157234258949756
-0.0143641522154212
-0.0127663183957338
-0.011057561263442
-0.0093496059998869
-0.0077333296649158
-0.0062768654897809
-0.0050213960930705
-0.0039764465764164
-0.0031189927831292
-0.0024004722945392
-0.0017606779001653
-0.0011395853944122
-0.0004843416973017
0.0002435403002891
0.0010615591891109
0.0019664142746478
0.0029419797938317
0.0039682644419372
0.0050254818052053
0.0060889432206749
0.0071134241297841
0.0080191297456622
0.0086943889036774
0.0090134087949991
0.0088573182001709
0.0081335101276636
0.0067940670996904
0.0048500918783247
0.0023758402094244
-0.000498245935887
-0.0035981424152851
-0.0067205671221017
-0.0096509801223874
-0.0121855596080422
-0.0141517966985702
-0.0154261216521263
-0.0159498881548643
-0.0157380774617195
-0.0148738138377666
-0.0134893553331494
-0.0117410430684685
-0.0097868461161851
-0.0077699804678559
-0.0058082048781216
-0.0039871330372989
-0.0023559448309242
-0.0009274859912693
0.0003157816827297
0.0014143078587949
0.0024253805167973
0.003416089573875
0.0044505055993795
0.0055710854940116
0.006786688696593
0.0080766091123223
0.0094040147960186
0.0107282865792512
0.0120114684104919
0.0132191609591245
0.014317674562335
0.0152690317481756
0.0160257387906312
0.0165265742689371
0.0166957564651966
0.0164482500404119
0.0157024096697568
0.0143999569118022
0.0125239240005612
0.0101043879985809
0.0072198421694338
0.0040002921596169
0.000621143495664
-0.0027166921645402
-0.0058097732253372
-0.0084711303934454
-0.0105478018522262
-0.0119362846016883
-0.0125919226557016
-0.0125322435051202
-0.0118343066424131
-0.0106235779821872
-0.0090543534606695
-0.0072862273082137
-0.005464888177812
-0.0037128566764295
-0.0021253954619169
-0.0007657799869775
0.0003381841816008
0.0011933408677577
0.0018354882486164
0.0023203438613563
0.0027135300915688
0.0030806271824985
0.0034799627028405
0.003959568683058
0.0045550349168479
0.0052855587564408
0.0061500705778598
0.0071288147009909
0.0081879142671823
0.0092772953212261
0.0103232581168413
0.011224215850234
0.0118526564911007
0.0120652830228209
0.0117224305868148
0.0107116280123591
0.0089699355885386
0.0065022916533052
0.0033900989219546
-0.0002146213082596
-0.0041056787595152
-0.0080428775399923
-0.0117723112925887
-0.0150483315810561
-0.0176608338952064
-0.0194632839411497
-0.020390024408698
-0.0204574484378099
-0.0197521150112152
-0.0184115953743457
-0.0166038125753402
-0.0145075283944606
-0.0122924763709306
-0.0101009616628289
-0.00803635828197
-0.0061609083786606
-0.0045006466098129
-0.0030503650195896
-0.0017741918563842
-0.000609029084444
0.0005202828906476
0.001678570639342
0.0029043303802609
0.0042086248286068
0.0055856220424175
0.0070223934017121
0.0084997545927762
0.0099896639585495
0.011457054875791
0.0128642655909061
0.0141704473644495
0.0153223555535078
0.0162443183362483
0.0168381854891777
0.0169954765588045
0.0166206359863281
0.0156563129276037
0.0140942353755235
0.0119725400581955
0.0093744825571775
0.0064308876171708
0.003315394744277
0.0002271048724651
-0.0026319625321775
-0.005076915025711
-0.0069563658908009
-0.0081662004813551
-0.008661275729537
-0.0084591582417488
-0.0076321717351675
-0.0062941620126366
-0.0045848540030419
-0.0026540956459939
-0.0006506782956421
0.0012883739545941
0.0030508306808769
0.0045605320483446
0.0057853553444147
0.0067399563267827
0.0074792061932384
0.0080823525786399
0.0086324624717235
0.0091984691098332
0.0098274145275354
0.0105460034683346
0.0113634159788489
0.0122737539932131
0.0132603356614708
0.0142963463440537
0.0153383212164044
0.0163214784115552
0.0171629209071397
0.0177645124495029
0.0180126465857028
0.0177861172705888
0.016974288970232
0.015496339648962
0.0133179649710655
0.0104655874893069
0.0070348251610994
0.0031883465126156
-0.0008596293628215
-0.0048682373017072
-0.0085957171395421
-0.0118240127339959
-0.0143843255937099
-0.0161763522773981
-0.0171728506684303
-0.0174127947539091
-0.016988355666399
-0.0160276144742965
-0.0146764330565929
