bvp
-0.0045782038941979
-0.0037113537546247
-0.002699238481
-0.0015087587526068
-0.0001291045336984
0.0014340098714455
0.0031619421206414
0.0050130723975598
0.006907480303198
0.0087228398770093
0.0103031462058424
0.011475053615868
0.0120713608339428
0.0119599616155028
0.0110688712447881
0.0093993786722421
0.0070308241993188
0.0041193785145878
0.0008861853275448
-0.0024064937606453
-0.0054889414459466
-0.0081185158342123
-0.0101030226796865
-0.0113155497238039
-0.0117085110396146
-0.0113198086619377
-0.0102613065391778
-0.0086947157979011
-0.0068068448454141
-0.0047873994335532
-0.0028069783002138
-0.0009988388046622
0.0005505541339516
0.0018032062798738
0.0027678040787577
0.0034959381446242
0.0040702437981963
0.0045839790254831
0.0051262499764561
0.0057753841392695
0.006589088588953
0.0075943525880575
0.0087858820334076
0.0101313702762126
0.011580316349864
0.0130753256380558
0.0145618850365281
0.0159913469105958
0.0173146408051252
0.0184683538973331
0.0193618610501289
0.0198776200413703
0.0198853760957717
0.0192638840526342
0.0179309882223606
0.015873996540904
0.013163024559617
0.0099471248686313
0.0064421878196299
0.002910376060754
-0.0003699576482176
-0.003136889077723
-0.005173023790121
-0.0063289552927017
-0.0065406989306211
-0.0058352164924144
-0.0043230671435594
-0.0021818643435835
0.0003673275932669
0.0030891383066773
0.0057649910449981
0.0082178637385368
0.0103220324963331
0.0120016578584909
0.0132303331047296
0.014032432809472
0.0144768273457884
0.0146618094295263
0.0146994143724441
0.01470114197582
0.0147624360397458
0.0149497855454683
0.0152949001640081
0.0157961621880531
0.0164276324212551
0.0171521492302417
0.0179297011345624
0.0187148917466402
0.0194473043084144
0.0200454574078321
0.0204069353640079
0.02040995657444
0.0199219863861799
0.0188209228217601
0.0170173402875661
0.0144706591963768
0.0112043470144271
0.0073168259114027
0.0029798531904816
-0.0015778429806232
-0.0060986587777733
-0.0103251123800873
-0.0140229286625981
-0.0170057881623506
-0.0191633813083171
-0.0204777345061302
-0.0210176706314086
-0.0209177993237972
-0.0203527212142944
-0.0195140466094017
-0.0185924917459487
-0.0177601296454668
-0.0171515475958585
-0.0168506950139999
-0.0168854855000972
-0.0172286815941333
-0.017806451767683
-0.0185097679495811
-0.0192033089697361
-0.0197406411170959
-0.0199904590845108
-0.0198584012687206
-0.0192923098802566
-0.0182792861014604
-0.0168480779975652
-0.0150752142071723
-0.0130816539749503
-0.0110172946006059
-0.0090415179729461
-0.0073068402707576
-0.005952120758593
-0.0051015196368098
-0.004858321044594
-0.0052946526557207
-0.0064413459040224
-0.0082797734066843
-0.010738730430603
-0.0136939045041799
-0.0169703997671604
-0.0203530546277761
-0.0236046090722084
-0.0264906994998455
-0.0288062393665313
-0.0303958188742399
-0.0311671178787946
-0.0310959368944168
-0.0302210375666618
-0.0286318436264991
-0.0264522545039653
-0.0238227136433124
-0.0208847839385271
-0.017773550003767
-0.0146156307309865
-0.0115238055586814
-0.0085886977612972
-0.0058739725500345
-0.0034154374152421
-0.0012239012867212
0.0007087215781211
0.0024037733674049
0.0038906559348106
0.0052018798887729
0.0063736643642187
0.0074520539492368
0.0084939301013946
0.0095612406730651
0.0107169672846794
0.0120169054716825
0.0134903881698846
0.0151252234354615
0.0168684087693691
0.0186310037970542
0.0202879458665847
0.0216835364699363
0.0226521138101816
0.0230467095971107
0.0227662920951843
0.0217784419655799
0.0201323516666889
0.0179576948285102
0.0154531262814998
0.0128697734326124
0.0104866046458482
0.0085717868059873
0.0073386039584875
0.0069157537072896
0.0073408670723438
0.008569722995162
0.0104906484484672
0.0129421167075634
0.0157327800989151
0.0186588708311319
0.0215221885591745
0.024152498692274
0.0264254920184612
0.0282697807997465
0.0296667665243148
0.0306471921503543
0.0312839448451995
0.031680129468441
0.0319532752037048
0.0322170108556747
0.0325635485351085
0.0330535024404525
0.0337143465876579
0.0345407128334045
0.0354953184723854
0.0365165211260318
0.0375291407108306
0.0384494140744209
0.0391839742660522
0.0396268479526042
0.0396577529609203
0.0391495488584041
0.0379873812198638
0.0360865890979766
0.0334027484059333
0.0299438927322626
0.0257848538458347
0.0210691913962364
0.015995804220438
0.0107979821041226
0.0057182442396879
0.0009830994531512
-0.0032165208831429
-0.0067404536530375
-0.0095112510025501
-0.0115196267142891
-0.0128221716731786
-0.013528861105442
-0.0137809803709387
-0.0137318894267082
-0.0135379573330283
-0.0133479945361614
-0.0132837742567062
-0.013422854244709
-0.0137920416891574
-0.0143706742674112
-0.0151025401428341
-0.0159110128879547
-0.0167127549648284
-0.0174306724220514
-0.0180036053061485
-0.0183907784521579
-0.0185743235051631
-0.0185587238520383
-0.0183634720742702
-0.0180147178471088
-0.0175454802811145
-0.017003608867526
-0.0164579357951879
-0.0159980095922946
-0.0157324764877557
-0.0157875604927539
-0.0162946693599224
-0.0173628255724906
-0.0190501604229211
-0.0213457457721233
-0.024161722511053
-0.027334127575159
-0.0306328497827053
-0.0337853766977787
-0.0365126021206378
-0.0385647267103195
-0.0397493652999401
-0.0399491153657436
-0.0391283333301544
-0.0373321548104286
-0.0346796996891498
-0.0313520990312099
-0.0275754928588867
-0.0235971882939338
-0.0196579098701477
-0.0159680247306823
-0.0126891927793622
-0.0099212983623147
-0.0076995687559247
-0.0060005653649568
-0.004751699976623
-0.0038463193923234
-0.0031657358631491
-0.0026002116501331
-0.0020606704056262
-0.0014813607558608
-0.0008193291723728
-5.501694977283478e-05
0.0008084028959274
0.0017499737441539
0.0027359183877706
0.003720598295331
0.0046439189463853
0.0054251151159405
0.0059587741270661
0.006125746294856
0.0058185206726193
0.0049632983282208
0.003530397079885
0.001543466001749
-0.0009103920310735
-0.0036814454942941
-0.0065722055733203
-0.0093610323965549
-0.0118284989148378
-0.0137795843183994
-0.0150620667263865
-0.0155832339078187
-0.0153187923133373
-0.0143111888319253
-0.0126616470515728
-0.0105161312967538
-0.008044309914112
-0.0054202107712626
-0.0028108973056077
-0.0003658302593976
0.0017958841053768
0.0035948243457823
0.0049977549351751
0.006021243520081
0.0067258100025355
0.0072007053531706
0.0075470400042831
0.0078617241233587
0.0082234758883714
0.0086864363402128
0.0092808194458484
0.0100154727697372
0.01088148355484
0.0118557512760162
0.0129004595801234
0.0139571549370884
0.0149410692974925
0.0157434698194265
0.0162401050329208
0.0163014717400074
0.015811488032341
0.0146945128217339
0.0129370084032416
0.010596914216876
0.0078003434464335
0.0047255149111151
0.0015802707057446
-0.0014190197689458
-0.0040660570375621
-0.0061846827156841
-0.0076495590619742
-0.0083989864215254
-0.0084355743601918
-0.0078183282166719
-0.0066530210897326
-0.0050821374170482
-0.0032674665562808
-0.0013683787547051
0.0004736888222396
0.0021461020223796
0.0035737485159188
0.0047202343121171
0.0055832653306424
0.0061901365406811
0.0065924441441893
0.0068572014570236
0.0070551950484514
0.007250620983541
0.0074933571740984
0.0078140664845705
0.0082244360819458
0.0087209464982151
0.0092897117137908
0.0099106468260288
0.0105579048395156
0.0111974449828267
0.0117826955392956
0.0122481770813465
0.0125067569315433
0.0124575775116682
0.0120033295825123
0.0110664786770939
0.0096005676314234
0.0076046073809266
0.0051375972107052
0.0023204190656542
-0.000675220740959
-0.0036469800397753
-0.0063896812498569
-0.008722161874175
-0.0105054266750812
-0.011650450527668
-0.0121182454749941
-0.0119205433875322
-0.0111207850277423
-0.0098239872604608
-0.0081578586250543
-0.0062601221725344
-0.0042725428938865
-0.0023313425481319
-0.0005549136549234
0.0009667719714343
0.0021827206946909
0.0030869673937559
0.003714756341651
0.0041319080628454
0.0044212220236659
0.0046690916642546
0.0049548293463885
0.0053413491696119
0.0058674812316894
0.0065487110987305
0.0073856562376022
0.0083661535754799
0.009458445943892
0.0106074996292591
0.0117363724857568
0.0127485301345586
0.0135325510054826
0.013969674706459
0.0139459958299994
0.0133716370910406
0.0121999206021428
0.010439277626574
0.0081582674756646
0.00548199377954
0.0025786547921597
-0.0003555910661816
-0.0031099221669137
-0.005481693893671
-0.0073105189949274
-0.0085028633475303
-0.0090342797338962
-0.0089405458420515
-0.0083084776997566
-0.0072631002403795
-0.0059507130645215
-0.0045224195346236
-0.0031167892739176
-0.0018433898221701
-0.0007742270827293
5.664722993969917e-05
0.0006484580226242
0.0010255686938762
0.0012296200729906
0.0013123122043907
0.0013262974098324
0.001317354850471
0.001320194453001
0.0013565979897975
0.0014381683431565
0.0015724268741905
0.0017642523162066
0.0020130155608057
0.0023122429847717
0.0026498856022953
0.0030060848221182
0.0033489586785435
0.0036273654550313
0.0037678675726056
0.0036836499348282
0.0032864864915609
0.0024935062974691
0.001237847842276
-0.0005105957388877
-0.0027259765192866
-0.0053188730962574
-0.0081400703638792
-0.0109976045787334
-0.0136852599680423
-0.0160115994513034
-0.0178227499127388
-0.0190177224576473
-0.0195540897548198
-0.0194461364299058
-0.0187576487660408
-0.01758848503232
-0.0160622410476207
-0.0143192075192928
-0.0125058786943554
-0.0107582621276378
-0.0091862259432673
-0.0078648719936609
-0.0068319258280098
-0.0060859499499201
-0.0055891275405883
-0.0052789105102419
-0.0050808233208954
-0.0049186050891876
-0.0047236289829015
-0.0044407648965716
-0.004028926603496
-0.0034592859447002
-0.0027179613243788
-0.0018134739948436
-0.0007772371172904
0.0003441254375502
0.0014947508461773
0.0026115595828741
0.0036205202341079
0.0044296132400631
0.0049323537386953
0.0050257076509296
0.0046308878809213
0.0037102829664945
0.0022804664913564
0.0004171918844804
-0.001748033799231
-0.0040370780043303
-0.0062468955293297
-0.0081845680251717
-0.0096977716311812
-0.0106863677501678
-0.0111000789329409
-0.0109349470585584
-0.0102308504283428
-0.0090656904503703
-0.0075478716753423
-0.0058053648099303
-0.003967956174165
-0.0021520028822124
-0.0004544900730252
0.0010515521280467
0.0023254556581377
0.0033647995442152
0.0042002853006124
0.0048797456547617
0.0054521998390555
0.0059597892686724
0.0064358739182353
0.0069064092822372
0.0073924669995903
0.0079110339283943
0.0084723476320505
0.0090769464150071
0.009717009961605
0.0103791588917374
0.0110441977158188
0.0116842994466423
0.012258980423212
0.0127115044742822
0.0129666551947593
0.0129321245476603
0.0125101897865533
0.0116212274879217
0.010229505598545
0.0083600720390677
0.0061017102561891
0.0035957561340183
0.0010176384821534
-0.0014423504471778
-0.003601910546422
-0.0053113461472094
-0.0064712739549577
-0.0070399628020823
-0.0070298439823091
-0.0064973379485309
-0.0055360374972224
-0.0042732898145914
-0.0028572082519531
-0.001430919393897
-0.0001097652129828
0.0010265200398862
0.0019339621067047
0.0026045376434922
0.0030601858161389
0.0033416030928492
0.0035038003697991
0.0036151241511106
0.0037478310987353
0.0039645852521061
0.004313179757446
0.0048283096402883
0.0055270288139581
0.0063962447457015
0.0073890550993382
0.0084367357194423
0.0094633251428604
0.0103950146585702
0.0111645814031362
0.0117083089426159
0.0119612514972686
0.0118600334972143
0.0113492384552955
0.0103867631405591
0.0089521780610084
0.007058713119477
0.0047646034508943
0.0021787192672491
-0.0005486879963427
-0.0032508163712918
-0.0057674329727888
-0.0079551273956894
-0.0096936402842402
-0.0108951963484287
-0.0115115251392126
-0.0115363178774714
-0.0110054090619087
-0.0099930148571729
-0.0086049083620309
-0.0069709732197225
-0.0052324635908007
-0.0035246424376964
-0.0019617457874119
-0.0006240629591047
0.00044961203821
0.0012575653381645
0.0018250354332849
0.0021960441954433
0.0024250620044767
0.0025698165409266
0.0026894020847976
0.0028421466704458
0.0030779116787016
0.0034301443956792
0.0039125862531363
0.0045200614258646
0.005232686176896
0.0060202083550393
0.0068423887714743
0.0076456489041447
0.008355975151062
0.0088717816397547
0.0090673360973596
0.0088117197155952
0.007998120971024
0.0065709021873772
0.0045379404909908
0.0019707381725311
-0.0009984616190195
-0.004185882396996
-0.0073767718859016
-0.0103520499542355
-0.0129138361662626
-0.0149038061499595
-0.0162117257714271
-0.0167795941233634
-0.0166083555668592
-0.0157643165439367
-0.0143727315589785
-0.0125964460894465
-0.0106118377298116
-0.0085869459435343
-0.0066615040414035
-0.0049346890300512
-0.0034613157622516
-0.002252226229757
-0.0012806649319827
-0.0004939350765198
0.0001744416076689
0.0007928287377581
0.0014241149183362
0.0021245514508336
0.0029376107268035
0.0038796551525592
0.004932826384902
0.006053696386516
0.0071873222477734
0.0082783196121454
0.0092784920707345
0.0101470863446593
0.0108430059626698
0.0113161010667681
0.0115022119134664
0.01132417563349
0.0107014030218124
0.0095661915838718
0.0078840339556336
0.0056736320257186
0.003015202935785
4.232814535498619e-05
-0.0030745104886591
-0.0061455550603568
-0.0089790448546409
-0.0113994423300027
-0.0132664749398827
-0.0144896721467375
-0.01503477524966
-0.014923283830285
-0.0142253059893846
-0.0130478516221046
-0.0115237468853592
-0.0097997952252626
-0.0080198515206575
-0.0063060382381081
-0.0047471858561038
-0.0033976773265749
-0.0022785023320466
-0.001377131557092
-0.0006533137056976
-5.021877586841583e-05
0.0004954591859132
0.0010447478853166
0.0016500304918736
0.0023516374640166
0.0031733561772853
0.0041192038916051
0.0051752887666225
0.0063136676326394
0.0074975593015551
0.0086867939680814
0.0098345642909407
0.0108730494976043
0.0117023140192031
0.0121959745883941
0.0122195100411772
0.0116511797532439
0.0104046175256371
0.0084521509706974
0.0058403424918651
0.002693033311516
-0.0007987150456756
-0.0044008321128785
-0.007866233587265
-0.0109582180157303
-0.0134672196581959
-0.0152283543720841
-0.0161419548094272
-0.0161884371191263
-0.0154277486726641
-0.0139863658696413
-0.0120391668751835
-0.0097879199311137
-0.0074368463829159
-0.0051681948825716
-0.0031234542839229
-0.0013938397169113
-1.834053546190262e-05
0.0010128659196197
0.0017491802573204
0.0022662959527224
0.0026544178836047
0.0030096811242401
0.0034230588935315
0.003965119831264
0.0046745315194129
0.0055556027218699
0.0065852683037519
0.0077261859551072
0.0089351199567317
0.010162815451622
0.0113510657101869
0.0124265048652887
0.0132936462759971
0.0138376522809267
0.013937858864665
0.0134846717119216
0.0123983966186642
0.0106502072885632
0.008276822976768
0.0053810877725481
0.0021219220943748
-0.0013018908211961
-0.0046724095009267
-0.0077737662941217
-0.0104130338877439
-0.0124395182356238
-0.0137573340907692
-0.014330806210637
-0.0141838677227497
-0.0133928684517741
-0.0120761217549443
-0.0103817097842693
-0.0084693795070052
-0.0064888941124081
-0.0045660627074539
-0.002799728186801
-0.0012600286863744
1.7961952835321426e-05
0.0010378470178693
0.0018365327268838
0.0024737888015806
0.0030204199720174
0.0035471599549055
0.0041164797730743
0.0047753322869539
0.0055507435463368
0.0064522186294198
0.0074752522632479
0.0086035374552011
0.0098147746175527
0.0110824070870876
0.0123631348833441
0.0135796722024679
0.01461614202708
0.015330996364355
0.015578243881464
0.0152291795238852
0.0141950976103544
0.0124478200450539
0.0100297536700963
0.0070511307567358
0.0036784356925636
0.0001193308271467
-0.0033943518064916
-0.0066284919157624
-0.0093698855489492
-0.0114467563107609
-0.0127504216507077
-0.0132525665685534
-0.0130061106756329
-0.0121292136609554
-0.0107789048925042
-0.0091242622584104
-0.0073283263482153
-0.005537059623748
-0.0038696830160915
-0.002408763160929
-0.0011925749713554
-0.0002162944292649
0.0005572158843278
0.0011858732905238
0.0017402239609509
0.0022923510987311
0.0029001764487475
0.0035966602154076
0.0043898946605622
0.005269524641335
0.006214341148734
0.0071979672648012
0.0081900628283619
0.0091568902134895
0.0100646540522575
0.0108810160309076
0.0115703055635094
0.012083351612091
0.0123496884480118
0.0122820287942886
0.0117921736091375
0.0108065716922283
0.0092767598107457
0.0071925967931747
0.0045985830947756
0.0016007982194423
-0.0016410499811172
-0.0049309837631881
-0.0080572767183184
-0.0108137372881174
-0.0130221536383032
-0.0145529713481664
-0.0153391351923346
-0.0153815019875764
-0.0147451013326644
-0.0135452784597873
-0.011927343904972
-0.0100494138896465
-0.0080724097788333
-0.006149127613753
-0.0044086640700697
-0.002941716928035
-0.0017921742983162
-0.0009584026411175
-0.00040162820369
-5.670730024576187e-05
0.0001542335376143
0.000307448208332
0.0004699332639575
0.0006986912339925
0.0010371385142207
0.001509322784841
0.0021219896152615
0.0028674844652414
0.0037196464836597
0.0046345144510269
0.0055593559518456
0.0064391605556011
0.0072173615917563
0.0078323883935809
0.0082133645191788
0.0082818521186709
0.0079598492011427
0.0071804402396082
0.0059003429487347
0.004111529327929
0.0018518734723329
-0.0007841195911169
-0.0036442363634705
-0.0065367156639695
-0.0092603228986263
-0.0116311311721801
-0.0134996445849537
-0.0147608686238527
-0.0153599707409739
-0.0152933318167924
-0.0146065298467874
-0.0133903482928872
-0.0117700705304741
-0.0098876124247908
-0.0078843627125024
-0.005888083949685
-0.0040031773969531
-0.0023040822707116
-0.0008306391537189
0.0004105838015675
0.0014362772926688
0.0022748857736587
0.0029582409188151
0.0035167122259736
0.0039803432300686
0.0043809963390231
0.0047488398849964
0.0051086656749248
0.0054788729175925
0.0058687403798103
0.0062773954123258
0.0066973026841878
0.0071170125156641
0.0075231697410345
0.0079052001237869
0.0082558598369359
0.0085601452738046
0.0087797371670603
0.0088465521112084
0.0086707854643464
0.0081576965749263
0.0072253812104463
0.0058209784328937
0.0039332043379545
0.0015998743474483
-0.0010885624215006
-0.0039933547377586
-0.0069449869915843
-0.0097677614539861
-0.0122984629124403
-0.0143963377922773
-0.0159539151936769
-0.0169122815132141
-0.0172710698097944
-0.0170843508094549
-0.016444893553853
-0.0154671240597963
-0.0142737291753292
-0.0129827819764614
-0.0116961440071463
-0.0104922177270054
-0.0094218300655484
-0.0085068261250853
-0.0077424170449376
-0.0071015870198607
-0.0065396465361118
-0.0059995595365762
-0.0054221060127019
-0.0047617605887353
-0.003998015075922
-0.0031346157193183
-0.0021923654712736
-0.0012011989019811
-0.0001925923861563
0.0008053495548665
0.0017689540982246
0.0026782448403537
0.0035162600688636
0.0042687277309596
0.004923942964524
0.0054703778587281
0.0058921533636748
0.0061680465005338
0.0062704533338546
0.0061576385051012
0.0057708080857992
0.0050490484572947
0.0039540841244161
0.0024891551584005
0.0007057781331241
-0.0012999342288821
-0.0033980589359998
-0.0054408879950642
-0.0072817238979041
-0.0087917726486921
-0.0098714707419276
-0.0104571115225553
-0.0105255302041769
-0.010094161145389
-0.0092165656387805
-0.0079806018620729
-0.0065046022646129
-0.0049223764799535
-0.0033624300267547
-0.0019295585807412
-0.0006931519601494
0.0003150737611576
0.0010979602811858
0.0016883708303794
0.0021405371371656
0.00251757632941
0.0028814207762479
0.0032863388769328
0.0037739290855824
0.0043707150034606
0.0050860070623457
0.0059088245034217
0.0068103140220046
0.0077518057078123
0.0086918054148554
0.009591456502676
0.0104193203151226
0.011153120547533
0.0117783471941947
0.0122836213558912
0.0126519352197647
0.0128522235900163
0.0128373149782419
0.0125489793717861
0.0119304023683071
0.0109447119757533
0.0095885246992111
0.0078927110880613
0.0059181237593293
0.0037532513961195
0.0015104585327208
-0.0006836795946583
-0.0027038282714784
-0.0044403718784451
-0.0058074546977877
-0.0067473351955413
-0.0072336783632636
-0.0072733256965875
-0.0069054365158081
-0.0061967163346707
-0.0052329837344586
-0.0041074808686971
-0.0029114633798599
-0.0017324844375252
-0.0006519665475934
0.000263039022684
0.0009667619597166
0.001439852756448
0.0016945077804848
0.0017744218930602
0.0017484263516962
0.0016998588107526
0.0017092402558773
0.0018361071124672
0.0021143755875527
0.0025571379810571
0.0031570266000926
0.0038873106241226
0.0047087725251913
0.0055726771242916
0.0064209941774606
0.007192799821496
0.0078318938612937
0.0082883182913064
0.0085175447165966
0.0084814578294754
0.0081492662429809
0.0074985814280807
0.0065179602243006
0.0052116266451776
0.0036085143219679
0.0017694033449515
-0.0002154416870325
-0.0022333404049277
-0.0041600940749049
-0.0058785527944564
-0.007295440416783
-0.0083486502990126
-0.0090091619640588
-0.0092781735584139
-0.0091795306652784
-0.0087550142779946
-0.0080638779327273
-0.0071794064715504
-0.0061818617396056
-0.005150431767106
-0.0041531366296112
-0.0032396088354289
-0.002441200427711
-0.0017708202358335
-0.001221276121214
-0.0007704570889472
-0.0003889896906912
-4.387658555060625e-05
0.0002974376548081
0.0006619241321459
0.0010700763668864
0.0015391943743452
0.0020847958512604
0.0027164658531546
0.0034324345178902
0.0042197210714221
0.0050579626113176
0.0059224781580269
0.0067885359749197
0.0076341745443642
0.0084341401234269
0.0091480314731597
0.0097136264666914
0.0100509161129593
0.0100752050057053
0.0097136693075299
0.0089204041287302
0.007687410339713
0.0060486998409032
0.0040782587602734
0.0018833980429917
-0.0004074992612004
-0.0026586113963276
-0.004738803487271
-0.006533458828926
-0.0079519273713231
-0.0089323669672012
-0.0094499923288822
-0.0095212394371628
-0.009198872372508
-0.0085642151534557
-0.0077164429239928
-0.0067589757964015
-0.0057886568829417
-0.004886956885457
-0.004112328402698
-0.0034971563145518
-0.0030481400899589
-0.0027488043997436
-0.0025655776262283
-0.0024535260163247
-0.0023593045771121
-0.0022301818244159
-0.0020304271019995
-0.0017496132059022
-0.0013974113389849
-0.0009938613511621
-0.000560100772418
-0.0001125393246184
0.0003381734713912
0.0007878066971898
0.0012385674053803
0.0016931813443079
0.0021454642992466
0.0025736393872648
0.0029368749819695
0.0031771762296557
0.0032298925798386
0.0030343271791934
0.0025360959116369
0.0016886243829503
0.0004639938124455
-0.0011289583053439
-0.0030325329862535
-0.0051430542953312
-0.0073244608938694
-0.009426487609744
-0.0113041270524263
-0.0128330681473016
-0.0139198768883943
-0.0145098539069294
-0.0145914983004331
-0.0141937183216214
-0.0133744003251194
-0.0122095644474029
-0.0107922777533531
-0.0092318123206496
-0.007642469368875
-0.0061257490888237
-0.0047548227012157
-0.0035696816630661
-0.0025813630782067
-0.0017764340154826
-0.0011224686168134
-0.0005761715583503
-8.966168388724327e-05
0.0003830199129879
0.0008795927278697
0.001430407166481
0.0020619416609406
0.0027935202233493
0.0036305272951722
0.0045623299665749
0.0055642570368945
0.0065999962389469
0.007625360507518
0.0085910111665725
0.0094392718747258
0.0101000750437378
0.010494977235794
0.0105482721701264
0.0101996464654803
0.0094171930104494
0.0082097128033638
0.0066335396841168
0.0047889701090753
0.0028056558221578
0.0008231727406382
-0.0010243542492389
-0.002617691643536
-0.0038609066978096
-0.0046902364119887
-0.0050792004913091
-0.0050372621044516
-0.0046041384339332
-0.0038444036617875
-0.0028420202434062
-0.0016890447586774
-0.0004739537835121
0.0007222816348075
0.0018309419974684
0.002805539406836
0.0036256574094295
0.0042898873798549
0.0048068766482174
0.0051931985653936
0.0054747965186834
0.0056841680780053
0.0058558280579745
0.0060248444788157
0.006224381737411
0.0064806998707354
0.0068099503405392
0.0072177993133664
0.007701052352786
0.0082492204383015
0.0088438242673873
0.0094572193920612
0.0100490348413586
0.010558046400547
0.010897934436798
0.0109650110825896
0.0106560047715902
0.0098884403705596
0.0086178854107856
0.0068515506573021
0.004655921831727
0.0021520047448575
-0.0005007097497582
-0.003124238923192
-0.0055432268418371
-0.0076040918938815
-0.0091868713498115
-0.0102102663367986
-0.0106373392045497
-0.0104836104437708
-0.009816225618124
-0.0087397377938032
-0.0073792515322566
-0.0058676614426076
-0.0043350295163691
-0.0028977948240935
-0.0016470551490783
-0.0006378777325153
0.0001158132217824
0.0006378507241606
0.0009798402898013
0.0012094732373952
0.0014002947136759
0.0016231918707489
0.0019368510693311
0.0023770439438521
0.0029521393589675
0.0036465574521571
0.0044276993721723
0.00525584211573
0.0060921125113964
0.0069005182012915
0.0076481509022414
0.0083007095381617
0.0088097359985113
0.0091032106429338
0.0090894792228937
0.0086701977998018
0.0077587440609931
0.0063043786212801
0.0043121338821947
0.0018463443266227
-0.0009766530711203
-0.0039969878271222
-0.0070240716449916
-0.0098568843677639
-0.0123053174465894
-0.014208641834557
-0.0154535630717873
-0.0159883946180343
-0.0158267393708229
-0.0150404283776879
-0.0137444417923688
-0.0120790638029575
-0.0101928142830729
-0.0082256849855184
-0.0062980568036437
-0.0045088208280503
-0.0029351147823035
-0.0016276543028652
-0.0006035808473825
0.0001577413640916
0.000711559318006
0.0011373511515557
0.0015235254541039
0.0019519538618624
0.0024882853031158
0.0031767282634973
0.0040358961559832
0.0050578396767377
0.0062135253101587
0.0074644293636083
0.0087693054229021
0.0100764548406004
0.0113118458539247
0.0123759824782609
0.0131502524018287
0.0135090705007314
0.0133332200348377
0.0125242043286561
0.0110237579792737
0.0088342484086751
0.0060276584699749
0.002739411778748
-0.0008460562676191
-0.0045120129361748
-0.0080282799899578
-0.0111741051077842
-0.0137627925723791
-0.0156621616333723
-0.0168055966496467
-0.0171930342912673
-0.0168848056346178
-0.0159891489893198
-0.0146454814821481
-0.0130081111565232
-0.0112311597913503
-0.0094548249617218
-0.0077931606210768
-0.0063226423226296
-0.0050773438997566
-0.0040540173649787
-0.0032176892273128
-0.0025030523538589
-0.0018229852430522
-0.0010912381112575
-0.0002438127994537
0.0007567461580038
0.0019269911572337
0.0032663214951753
0.0047570406459271
0.0063640312291681
0.0080390954390168
0.0097286831587553
0.0113769955933094
0.0129203274846076
0.0142766209319233
0.0153379365801811
0.0159733947366476
0.0160470511764287
0.0154428677633404
0.0140834050253033
0.0119436513632535
0.0090683447197079
0.0055862837471067
0.0017063561826944
-0.0023064701817929
-0.0061636613681912
-0.0095871873199939
-0.0123407486826181
-0.0142507497221231
-0.0152165880426764
-0.0152133703231811
-0.0142887458205223
-0.0125567261129617
-0.0101861804723739
-0.0073826424777507
-0.0043709212914109
-0.0013803043402731
0.0013754032552242
0.0037237938959151
0.005553875118494
0.006822511088103
0.0075516104698181
0.0078183254227042
0.007738372310996
0.0074472511187195
0.0070822425186634
0.0067677707411348
0.0066066100262105
0.0066728056408464
0.0070046344771981
0.007600799202919
0.0084198601543903
0.0093849524855613
0.0103941988199949
0.0113278189674019
0.0120490295812487
0.0124086663126945
0.0122595624998211
0.0114763816818594
0.0099750449880957
0.0077291904017329
0.0047821141779422
0.0012497747084125
-0.0026879627257585
-0.0068024806678295
-0.0108338966965675
-0.0145151419565081
-0.0176034290343523
-0.0199101418256759
-0.0213196333497762
-0.021794693544507
-0.0213728118687868
-0.0201566182076931
-0.0182983111590147
-0.0159799605607986
-0.013393260538578
-0.0107209598645567
-0.0081221312284469
-0.0057210754603147
-0.0035986704751849
-0.0017873346805572
-0.0002721953205764
0.0009985463693737
0.0020959875546395
0.0030938130803406
0.0040583969093859
0.0050450749695301
0.0060953269712626
0.0072310995310544
0.0084516620263457
0.0097384806722402
0.0110627328976988
0.0123913399875164
0.0136906802654266
0.0149224232882261
0.0160319507122039
0.0169400367885828
0.0175431054085493
0.0177171826362609
0.0173262897878885
0.0162448026239871
0.0143923703581094
0.0117644909769296
0.0084460619837045
0.0046075955033302
0.0004878488834947
-0.0036314819008111
-0.007455195300281
-0.010707564651966
-0.01316390465945
-0.0146750267595052
-0.0151818767189979
-0.0147150820121169
-0.0133797945454716
-0.0113398116081953
-0.0088068535551428
-0.0060215746052563
-0.0032215442042797
-0.0006091428804211
0.0016695756930857
0.0035315309651196
0.0049530081450939
0.0059628202579915
0.0066321208141744
0.0070592947304248
0.0073536657728254
0.0076229460537433
0.007963091135025
0.0084482319653034
0.0091250864788889
0.010011063888669
0.0110909380018711
0.0123156458139419
0.0136092863976955
0.0148841924965381
0.0160554945468902
0.0170457363128662
0.0177795588970184
0.0181728620082139
0.0181252248585224
0.0175270959734916
0.0162800401449203
0.0143193826079368
0.0116338869556784
0.0082799019291996
0.004387124441564
0.0001523150131106
-0.0041805813089013
-0.0083490582183003
-0.0121026067063212
-0.0152292707934975
-0.0175750851631164
-0.0190549623221158
-0.0196540523320436
-0.0194238778203725
-0.0184763967990875
-0.0169734451919794
-0.0151090752333402
-0.0130838006734848
-0.0110769234597682
-0.0092275720089674
-0.0076253423467278
-0.0063100047409534
-0.0052818413823843
-0.0045140469446778
-0.0039606178179383
-0.0035624783486127
-0.0032548997551202
-0.0029774289578199
-0.0026817619800567
-0.0023330990225076
-0.0019098538905382
-0.0014048758894205
-0.0008240267634391
-0.0001826863735914
0.0004973895847797
0.0011943709105253
0.0018929205834865
0.0025777649134397
0.0032145213335752
0.0037364121526479
0.0040442887693643
0.0040133912116289
0.0035073962062597
0.0024022012948989
0.0006128847599029
-0.0018852185457944
-0.0050440728664398
-0.0087378351017832
-0.0127678578719496
-0.01688202470541
-0.0208055060356855
-0.0242709144949913
-0.027040135115385
-0.0289268959313631
-0.0298235565423965
-0.0297150984406471
-0.0286725610494613
-0.0268367286771535
-0.0243972148746252
-0.0215667411684989
-0.0185564439743757
-0.0155564313754439
-0.0127193741500377
-0.0101465508341789
-0.0078815519809722
-0.0059166867285966
-0.0042079538106918
-0.0026876714546233
-0.0012719617225229
0.0001276601105928
0.0015848437324166
0.0031428723596036
0.0048139397986233
0.0065874294377863
0.0084368214011192
0.0103252017870545
0.0122098010033369
0.0140440165996551
0.0157809294760227
0.0173774845898151
0.0187948178499937
0.0199956372380256
0.020937442779541
0.021564457565546
0.021806426346302
0.0215812772512435
0.02079907245934
0.0193768888711929
0.0172666274011135
0.0144821759313344
0.0111122280359268
0.0073160557076334
0.0033067734912037
-0.0006727795116603
-0.0043761790730059
-0.0075783100910484
-0.0100984685122966
-0.011817717924714
-0.0126858074218034
-0.0127181857824325
-0.0119890291243791
-0.0106266094371676
-0.0088063776493072
-0.0067317094653844
-0.0046054683625698
-0.0026030242443084
-0.0008516749367117
0.00057905446738
0.0016731736250221
0.0024568010121583
0.0029868399724364
0.0033393804915249
0.0035974457859992
0.0038394681178033
0.0041305646300315
0.0045199543237686
0.0050417054444551
0.0057110050693154
0.0065171639434993
0.0074238018132746
0.0083782151341438
0.0093204854056239
0.0101901534944772
0.0109350252896547
0.011516947299242
0.0119084026664495
0.0120824240148067
0.0120006240904331
0.0116061605513095
0.0108260009437799
0.0095830736681818
0.007819659076631
0.0055234795436263
0.0027387719601392
-0.0004402613267302
-0.0038792476989328
-0.0074101220816373
-0.010840967297554
-0.0139740128070116
-0.0166278183460235
-0.0186581332236528
-0.0199737064540386
-0.0205417200922966
-0.0203844383358955
-0.019574336707592
-0.0182266980409622
-0.0164868179708719
-0.0145139750093221
-0.0124637298285961
-0.0104715442284941
-0.0086413975805044
-0.0070400121621787
-0.0056957998313009
-0.0046003875322639
-0.0037153775338083
-0.0029861538205295
-0.0023529436439275
-0.001755537232384
-0.0011386682745069
-0.000457182759419
0.000321396626532
0.0012139775790274
0.002218788024038
0.0033163265325129
0.004478002898395
0.0056753205135464
0.0068784626200795
0.0080479485914111
0.0091296443715691
0.0100567545741796
0.0107542602345347
0.0111392578110098
0.0111218066886067
0.0106151001527905
0.009553357027471
0.0079103326424956
0.0057138185948133
0.0030511349905282
6.162025965750217e-05
-0.0030766178388148
-0.0061584254726767
-0.0089711882174015
-0.0113245286047458
-0.0130748394876718
-0.0141388475894927
-0.0144972437992692
-0.0141879329457879
-0.0132950106635689
-0.0119361523538827
-0.0102476375177502
-0.0083710821345448
-0.006442192941904
-0.004578536376357
-0.002869657240808
-0.0013725210446864
-0.0001072955783456
0.0009458179119974
0.0018380586989223
0.0026309806853532
0.0033774254843592
0.0041156904771924
0.0048722992651164
0.0056650224141776
0.0065034297294914
0.0073867458850145
0.0083028208464384
0.0092331077903509
0.0101587222889065
0.0110601019114255
0.0119157563894987
0.0127053894102573
0.0134100150316953
0.0140060428529977
0.0144563000649213
0.0146991983056068
0.0146441031247377
0.0141821410506963
0.0132116330787539
0.0116672767326235
0.0095407264307141
0.0068902857601642
0.0038399267941713
0.0005656346329487
-0.002725695259869
-0.0058191553689539
-0.0085168685764074
-0.0106604062020778
-0.0121420742943882
-0.0129064973443746
-0.0129519999027252
-0.0123349511995911
-0.0111684445291757
-0.0096064172685146
-0.0078168679028749
-0.0059582544490695
-0.0041670929640531
-0.0025493130087852
-0.0011701493058353
-5.07645308971405e-05
0.0008251261897385
0.0015008079353719
0.0020357205066829
0.0024960460141301
0.0029480592347681
0.0034525054506957
0.0040567740797996
0.0047846608795225
0.0056307655759155
0.006564981304109
0.0075431047007441
0.0085174553096294
0.0094457790255546
0.010297130793333
0.0110508352518081
0.0116888275370001
0.0121854916214942
0.0124981086701154
0.0125632155686616
0.0123019283637404
0.0116324517875909
0.0104881282895803
0.0088338088244199
0.0066729802638292
0.0040516322478652
0.0010633266065269
-0.0021525484044104
-0.0054215630516409
-0.0085492767393589
-0.0113410707563161
-0.013625587336719
-0.01527482829988
-0.0162162017077207
-0.0164369586855173
-0.0159836150705814
-0.0149557348340749
-0.0134909264743328
-0.0117431506514549
-0.0098645128309726
-0.0079955765977501
-0.0062559442594647
-0.0047323126345872
-0.0034728734754025
-0.0024891037028282
-0.0017585887107998
-0.0012296536006033
-0.0008309343829751
-0.0004844407085329
-0.0001185205765068
0.0003259510267525
0.0008957390673458
0.0016203926643356
0.0025047571398317
0.0035320459865033
0.0046716071665287
0.0058804922737181
0.0071045802906155
0.0082831773906946
0.0093508632853627
0.0102347200736403
0.0108521971851587
0.0111141474917531
0.0109337512403726
0.0102393515408039
0.0089884102344512
0.0071813086979091
0.0048713544383645
0.0021657086908817
-0.0007803544867783
-0.0037733605131506
-0.0066039520315825
-0.0090809287503361
-0.0110563058406114
-0.012431439012289
-0.0131549974903464
-0.0132203511893749
-0.0126629881560802
-0.0115589722990989
-0.0100223645567893
-0.008194874972105
-0.0062260879203677
-0.0042532617226243
-0.002389260334894
-0.000716911163181
0.0007151390891522
0.0018933373503386
0.0028318066615611
0.0035586804151535
0.0041069141589105
0.0045126252807676
0.0048136380501091
0.0050473888404667
0.0052501130849123
0.0054555218666791
0.005694156512618
0.0059923464432358
0.0063672997057437
0.0068228589370846
0.0073498236015439
0.0079261930659413
0.0085166823118925
0.0090739764273166
0.009535701945424
0.0098154209554195
0.009802452288568
0.0093800453469157
0.0084503227844834
0.0069544953294098
0.0048885969445109
0.0023114616051316
-0.0006592642748728
-0.0038573611527681
-0.007081457413733
-0.0101164244115352
-0.0127604408189654
-0.0148482844233512
-0.0162664726376533
-0.0169610306620597
-0.0169402137398719
-0.0162733979523181
-0.0150833446532487
-0.013528817333281
-0.0117806522175669
-0.00999999884516
-0.0083232335746288
-0.0068518761545419
-0.0056474599987268
-0.0047294716350734
-0.0040759900584816
-0.0036327179986983
-0.0033268223050981
-0.0030774381011724
-0.0028041466139256
-0.0024356017820537
-0.0019187303259968
-0.0012287441641092
-0.0003743339329957
0.0006082239560782
0.0016681435517966
0.0027511217631399
0.0038058336358517
0.0047861160710453
0.0056461161002516
0.0063317683525383
0.0067758853547275
0.0068994401954114
0.0066201286390423
0.0058683715760707
0.0046076998114585
0.0028526363894343
0.000674623530358
-0.0018070498481392
-0.0044417204335331
-0.0070619778707623
-0.0094951838254928
-0.0115761943161487
-0.013162100687623
-0.0141466856002807
-0.014471766538918
-0.014131711795926
-0.0131718898192048
-0.0116844996809959
-0.0097996462136507
-0.0076686609536409
-0.0054424181580543
-0.0032517928630113
-0.0011967699974775
0.0006545316427946
0.0022597825154662
0.0035970276221632
0.0046672327443957
0.0054988851770758
0.0061455299146473
0.0066772089339792
0.0071713090874254
0.0077039347961544
0.0083388779312372
0.0091179031878709
0.0100571382790803
0.0111456541344523
0.0123471356928348
0.0136083252727985
0.0148635432124137
0.0160274431109428
0.0169886332005262
0.017615795135498
0.0177730303257703
0.0173395238816738
0.0162310004234313
0.0144186811521649
0.0119436718523502
0.0089226234704256
0.0055364645086228
0.0020064911805093
-0.0014290809631347
-0.0045377863571047
-0.0071171997115015
-0.0090129021555185
-0.010130388662219
-0.010447995737195
-0.010022503323853
-0.0089756026864051
-0.0074687311425805
-0.0056812101975083
-0.0037926286458969
-0.0019641388207674
-0.0003210324794054
0.0010569943115115
0.0021351063624024
0.002918254584074
0.0034474162384867
0.0037926756776869
0.0040432061068713
0.0042975018732249
0.0046476917341351
0.0051593966782093
0.0058602853678166
0.0067416913807392
0.0077678998932242
0.0088870739564299
0.0100411642342805
0.011174127459526
0.0122341196984052
