bvp
8.357875049114227e-05
-0.0049674697220325
-0.0096597308292984
-0.0137172313407063
-0.0169153846800327
-0.0191007032990455
-0.0202031917870044
-0.0202378910034894
-0.0192970931529998
-0.0175413079559803
-0.0151872932910919
-0.0124846333637833
-0.0096844099462032
-0.0070072915405035
-0.0046176416799426
-0.0026171933859586
-0.0010557956993579
6.0692429542541504e-05
0.0007696328684687
0.0011473344638943
0.0012969467788934
0.0013337307609617
0.001372349448502
0.0015156241133809
0.0018432396464049
0.002402676269412
0.00320749823004
0.0042423205450177
0.0054688584059476
0.0068324450403451
0.0082712564617395
0.0097196949645876
0.0110949473455548
0.0122782364487648
0.0131110902875661
0.0134104210883378
0.0129954069852828
0.0117192594334483
0.0095001384615898
0.0063440892845392
0.0023551215417683
-0.0022672652266919
-0.0072436840273439
-0.0122439507395029
-0.0169243235141038
-0.0209632012993097
-0.0240901168435812
-0.0261133145540952
-0.0269443374127149
-0.0266058314591646
-0.025220351293683
-0.0229887142777442
-0.0201624240726232
-0.0170121602714061
-0.0137962391600012
-0.0107362810522317
-0.0080027393996715
-0.005706519819796
-0.0038952874019742
-0.002555017825216
-0.0016175161581486
-0.0009740926325321
-0.0004915320314466
-2.950755879282952e-05
0.0005363994278013
0.0012922559399157
0.0022765020839869
0.0034840425942093
0.0048776715993881
0.0064031574875116
0.0080015733838081
0.009614672511816
0.011186390183866
0.0126632284373044
0.0139904832467436
0.0151008348912
0.0158991813659667
0.0162567067891359
0.0160250794142484
0.0150634096935391
0.0132634798064827
0.0105719491839408
0.007013376802206
0.0027090846560895
-0.0021213160362094
-0.0071818395517766
-0.0121359452605247
-0.0166440363973379
-0.0203980784863233
-0.0231540501117706
-0.0247601438313722
-0.0251722577959299
-0.0244507268071174
-0.0227412562817335
-0.0202476549893617
-0.0172088574618101
-0.0138867748901247
-0.0105491438880562
-0.0074369339272379
-0.0047332495450973
-0.0025475043803453
-0.0009128111414611
0.0002072402276098
0.0009055559057742
0.0013146332930773
0.0015853031072765
0.0018628798425197
0.0022685616277158
0.0028905388899147
0.0037826793268322
0.0049672815948724
0.0064352145418524
0.0081427581608295
0.0100151682272553
0.0119589958339929
0.0138756521046161
0.0156712420284748
0.0172556638717651
0.0185286235064268
0.0193669851869344
0.019625773653388
0.019151996821165
0.0178104043006896
0.015516304410994
0.0122639881446957
0.0081469751894474
0.0033675688318908
-0.0017786881653591
-0.0069482829421758
-0.0118005210533738
-0.0160317700356245
-0.0193968545645475
-0.0217238143086433
-0.022921472787857
-0.0229840017855167
-0.0219912864267826
-0.0200979188084602
-0.0175138618797063
-0.014483087696135
-0.0112608801573514
-0.0080894930288195
-0.0051726945675909
-0.002654708456248
-0.0006122286431491
0.0009416586253792
0.0020494952332228
0.0027977433055639
0.0033022663556039
0.0036940439604222
0.0041007017716765
0.0046274894848465
0.0053480016067624
0.0063018542714416
0.0074946288950741
0.0089014647528529
0.0104735549539327
0.0121469162404537
0.0138536356389522
0.0155311645939946
0.0171202607452869
0.0185491945594549
0.0197168551385402
0.0204875469207763
0.0206979718059301
0.0201735198497772
0.0187553856521844
0.0163368247449398
0.0128984581679105
0.0085312090814113
0.0034395619295537
-0.0020765597000718
-0.0076578808948397
-0.0129317929968237
-0.0175546817481517
-0.0212408155202865
-0.0237827058881521
-0.0250699315220117
-0.0251002088189125
-0.0239752233028411
-0.0218838769942522
-0.0190766863524913
-0.0158340651541948
-0.0124358087778091
-0.0091350879520177
-0.0061345002613961
-0.0035686348564922
-0.001500635757111
7.024325896054506e-05
0.0011983485892415
0.0019808369688689
0.0025444601196795
0.0030284526292234
0.0035640746355056
0.0042561562731862
0.0051717855967581
0.0063359583728015
0.0077355299144983
0.009331677109003
0.0110722435638308
0.0128983138129115
0.0147483078762888
0.0165603142231702
0.0182693731039762
0.0197990350425243
0.0210501179099082
0.0218952819705009
0.0221875868737697
0.0217763446271419
0.0205214526504278
0.0183119550347328
0.0150953158736228
0.0109097510576248
0.0059029082767665
0.0003263666294515
-0.0054916758090257
-0.0111850444227457
-0.0163907390087842
-0.0207880586385726
-0.0241310372948646
-0.0262714549899101
-0.027169456705451
-0.0268885903060436
-0.0255788601934909
-0.0234567821025848
-0.0207877960056066
-0.017863618209958
-0.0149668622761964
-0.0123339993879199
-0.0101315639913082
-0.0084478510543704
-0.0072953589260578
-0.0066175125539302
-0.0062988987192511
-0.0061833220534026
-0.0060986075550317
-0.0058827307075262
-0.0054062884300947
-0.0045854127965867
-0.0033814450725913
-0.0017976565286517
0.0001166540023405
0.0022676910739392
0.0045359656214714
0.0068006049841642
0.0089546991512179
0.0109069775789976
0.0125732896849513
0.0138657130300998
0.0146820470690727
0.0148988645523786
0.01437793020159
0.012990434654057
0.010651827789843
0.0073565407656133
0.003203360363841
-0.0016008771490305
-0.0067666159011423
-0.0119615662842988
-0.0168449785560369
-0.0210954118520021
-0.0244386456906795
-0.0266735907644033
-0.0276922509074211
-0.0274902414530515
-0.0261639058589935
-0.0238934587687253
-0.0209145508706569
-0.0174856521189212
-0.0138587430119514
-0.0102544380351901
-0.0068454486317932
-0.003753425553441
-0.0010531162843108
0.0012253234162926
0.0030963392928242
0.0046168938279151
0.0058785090222954
0.0069913947954773
0.0080653149634599
0.0091957943513989
0.0104558588936924
0.0118895070627331
0.0135087464004755
0.0152965318411588
0.017214510589838
0.0192134976387023
0.0212413370609283
0.0232409760355949
0.0251407995820045
0.0268453769385814
0.0282300598919391
0.0291412025690078
0.0294056124985218
0.0288518667221069
0.0273403078317642
0.024793341755867
0.0212193708866834
0.0167264174669981
0.0115235187113285
0.0059076258912682
0.0002350926515646
-0.0051152100786566
-0.0097822817042469
-0.0134679647162556
-0.0159763041883707
-0.0172306839376688
-0.0172678399831056
-0.0162194464355707
-0.0142886145040392
-0.0117234131321311
-0.0087897349148988
-0.0057466095313429
-0.002822732552886
-0.0001940415240824
0.0020303095225244
0.0038088010624051
0.0051594241522252
0.0061485404148697
0.0068779839202761
0.0074673136696219
0.0080313878133893
0.008661912754178
0.0094203576445579
0.0103379469364881
0.0114162927493453
0.0126312859356403
0.0139422174543142
0.0153019102290272
0.0166643057018518
0.0179878789931535
0.0192355252802371
0.020372474566102
0.021360233426094
0.0221452321857213
0.0226475801318883
0.0227540656924247
0.0223188754171133
0.0211830325424671
0.0192122869193553
0.0163361243903636
0.0125763583928346
0.0080600604414939
0.0030120816081762
-0.0022695213556289
-0.0074481572955846
-0.0121882501989603
-0.0161920450627803
-0.0192276537418365
-0.0211478807032108
-0.0219003092497587
-0.0215299855917692
-0.0201759971678257
-0.0180579498410224
-0.0154476258903741
-0.0126311611384153
-0.009875108487904
-0.0074030021205544
-0.0053788814693689
-0.003894293680787
-0.0029621366411447
-0.0025245603173971
-0.0024738106876611
-0.0026740301400423
-0.0029792692512273
-0.0032527167350053
-0.0033836308866739
-0.0032949615269899
-0.0029478669166564
-0.002347832545638
-0.0015431214123964
-0.0006125308573246
0.000350248068571
0.0012523867189884
0.0020142048597335
0.0025707315653562
0.0028628427535295
0.0028259474784135
0.0023793429136276
0.0014206320047378
-0.0001638103276491
-0.0024738833308219
-0.0055683441460132
-0.0094393491744995
-0.0139942578971385
-0.0190549381077289
-0.0243743881583213
-0.0296624470502138
-0.0346138104796409
-0.0389348044991493
-0.0423690639436244
-0.0447214394807815
-0.0458775386214256
-0.0458149909973144
-0.0446030646562576
-0.0423903986811637
-0.0393829904496669
-0.035819262266159
-0.0319459177553653
-0.0279937945306301
-0.0241612587124109
-0.0206081978976726
-0.0174501109868288
-0.0147477705031633
-0.0125008076429367
-0.0106522422283887
-0.0091005032882094
-0.0077153043821454
-0.0063583943992853
-0.0049051060341298
-0.0032616141252219
-0.0013749104691669
0.0007672852370887
0.0031429685186594
0.0057037295773625
0.0083835888653993
0.0111048910766839
0.0137775298207998
0.0162945874035358
0.0185273364186286
0.0203226879239082
0.0215105451643466
0.0219241697341203
0.0214266534894704
0.0199373811483383
0.0174562111496925
0.0140792448073625
0.0100015318021178
0.0055046016350388
0.0009275306947529
-0.0033712079748511
-0.0070522669702768
-0.0098335221409797
-0.0115246558561921
-0.012047179043293
-0.0114327780902385
-0.0098061375319957
-0.0073623163625597
-0.0043419199064373
-0.0010055927559733
0.0023899190127849
0.0056146401911973
0.0084860865026712
0.0108839925378561
0.0127564193680882
0.014115497469902
0.0150276590138673
0.0156061081215739
0.0159962102770805
0.0163438282907009
0.0167655628174543
0.0173397008329629
0.0181083194911479
0.0190796572715044
0.0202335808426141
0.0215296391397714
0.0229132790118455
0.0243207886815071
0.0256829652935266
0.0269246976822614
0.0279577150940895
0.0286686904728412
0.0289151109755039
0.0285373516380786
0.0273809246718883
0.0253232903778553
0.0223052240908145
0.018358327448368
0.0136182382702827
0.0083217741921544
0.0027857034001499
-0.0026308065280318
-0.0075697228312492
-0.0117157772183418
-0.0148297734558582
-0.0167686846107244
-0.0174932368099689
-0.017064781859517
-0.0156316254287958
-0.0134062999859452
-0.0106394654139876
-0.0075976061634719
-0.0045435489155352
-0.0017127371393144
0.000712948385626
0.0026258002035319
0.0040005561895668
0.0048853978514671
0.0053805252537131
0.0056150490418076
0.0057273805141448
0.0058489898219704
0.0060904980637133
0.0065325731411576
0.0072240466251969
0.0081843268126249
0.0094036366790533
0.010838858783245
0.0124140484258532
0.0140311708673834
0.0155795086175203
0.0169346015900373
0.0179529264569282
0.018471784889698
0.0183195788413286
0.0173368789255619
0.0154049824923276
0.0124758388847112
0.0085954070091247
0.0039132549427449
-0.0013247481547296
-0.0067971474491059
-0.0121419504284858
-0.0170060023665428
-0.0210902150720357
-0.0241754222661256
-0.0261332616209983
-0.0269279647618532
-0.0266119595617055
-0.025316797196865
-0.0232367888092994
-0.020605131983757
-0.0176675766706466
-0.0146595127880573
-0.0117872757837176
-0.0092110140249133
-0.0070294858887791
-0.0052729868330061
-0.003912104293704
-0.0028769928030669
-0.0020752642303705
-0.0014071112964302
-0.000776793109253
-9.775045327842236e-05
0.0007043294608592
0.0016856575384736
0.0028756007086485
0.0042702304199337
0.0058348281309008
0.0075136944651603
0.0092381872236728
0.0109272245317697
0.0124832848086953
0.013789645396173
0.0147082712501287
0.015079197473824
0.0147321531549096
0.0135154593735933
0.0113323684781789
0.0081725036725401
0.0041283341124653
-0.0006066588684916
-0.0057527306489646
-0.0109697384759783
-0.0158948134630918
-0.0201857164502143
-0.0235599316656589
-0.0258222706615924
-0.0268767271190881
-0.0267233662307262
-0.0254519581794738
-0.0232386868447065
-0.0203327853232622
-0.0170247238129377
-0.0136054102331399
-0.0103290406987071
-0.0073881447315216
-0.0049037132412195
-0.0029252967797219
-0.00143499718979
-0.0003583962097764
0.0004154762718826
0.001014212379232
0.0015679020434617
0.0021960618905723
0.002994394628331
0.0040249256417155
0.005309353582561
0.0068277129903435
0.0085252169519662
0.0103247929364442
0.0121418721973896
0.013894859701395
0.0155047476291656
0.0168870817869901
0.0179422963410615
0.0185480881482362
0.0185611993074417
0.0178349390625953
0.0162487998604774
0.0137396110221743
0.0103268837556242
0.0061269756406545
0.0013492219150066
-0.0037249510642141
-0.0087724272161722
-0.0134640168398618
-0.0175002664327621
-0.0206407494843006
-0.0227230340242385
-0.0236719697713851
-0.0235025621950626
-0.0223157778382301
-0.0202848277986049
-0.0176333617419004
-0.0146093862131237
-0.0114578623324632
-0.0083952005952596
-0.0055931620299816
-0.0031735701486468
-0.0012045317562296
0.000302847882267
0.001390365185216
0.0021409324835985
0.0026635273825377
0.0030780935194343
0.0035005365498363
0.0040295589715242
0.0047396328300237
0.0056786863133311
0.006865213625133
0.0082850037142634
0.0098929181694984
0.0116200307384133
0.0133768981322646
0.0150478025898337
0.016482776030898
0.0174972675740718
0.0178878717124462
0.0174648165702819
0.0160892605781555
0.013702979311347
0.0103463511914014
0.0061637675389647
0.0013941668439656
-0.0036549454089254
-0.0086445976048707
-0.0132402032613754
-0.0171389505267143
-0.0200944356620311
-0.0219432115554809
-0.0226234178990125
-0.0221761129796504
-0.0207335650920867
-0.018499206751585
-0.0157198663800954
-0.0126547254621982
-0.0095453122630715
-0.0065916180610656
-0.0039402144029736
-0.0016810661181807
0.0001531243324279
0.0015851072967052
0.0026853112503886
0.0035574389621615
0.004322119988501
0.0050976546481251
0.0059767640195786
0.0070110359229147
0.0082110129296779
0.0095563307404518
0.0110086277127265
0.0125210881233215
0.0140390750020742
0.0154933035373687
0.0167920179665088
0.0178161356598138
0.0184199567884206
0.0184417404234409
0.0177273955196142
0.0161638762801885
0.0137125262990593
0.0104295508936047
0.0064656059257686
0.0020497478544712
-0.0025347422342747
-0.0069805700331926
-0.0109890941530466
-0.014300063252449
-0.0167152173817157
-0.0181148760020732
-0.0184657331556081
-0.0178187433630228
-0.0162984728813171
-0.0140858320519328
-0.0113970041275024
-0.0084600653499364
-0.0054901428520679
-0.0026694817934185
-0.0001387656666338
0.0020046890713274
0.0037108322139829
0.0049826339818537
0.005875349510461
0.0064850151538848
0.0069295344874262
0.0073290038853883
0.0077893892303109
0.0083898473531007
0.009175531566143
0.010158353485167
0.011321953497827
0.0126246586441993
0.0139997145161032
0.0153528489172458
0.0165553018450737
0.0174390394240617
0.0178084392100572
0.0174709372222423
0.0162725932896137
0.014128222130239
0.0110450256615877
0.0071350652724504
0.0026101886760443
-0.0022404035553336
-0.0070856055244803
-0.0115930940955877
-0.0154649540781974
-0.0184625424444675
-0.0204223748296499
-0.0212703626602888
-0.0210339892655611
-0.0198380686342716
-0.0178783349692821
-0.0153865776956081
-0.0126022193580865
-0.0097517883405089
-0.0070312498137354
-0.0045921821147203
-0.0025326353497803
-0.0008904570713639
0.0003545673389453
0.0012662492226809
0.0019356638658791
0.0024696646723896
0.0029808869585394
0.0035731231328099
0.0043216100893914
0.0052598961628973
0.0063814497552812
0.0076512214727699
0.0090195806697011
0.0104318112134933
0.011828270740807
0.0131361028179526
0.0142588475719094
0.015070367604494
0.0154179260134696
0.0151393646374344
0.014092506840825
0.0121880043298006
0.0094185452908277
0.0058738254010677
0.0017329379916191
-0.0027577704750001
-0.0073110652156174
-0.0116277076303958
-0.0154255982488393
-0.018466655164957
-0.020580330863595
-0.0216788798570632
-0.0217591896653175
-0.020894169807434
-0.0192204322665929
-0.0169238187372684
-0.0142219327390193
-0.0113417012616992
-0.0084918644279241
-0.0058409860357642
-0.0035105384886264
-0.0015753161860629
-6.1010068748146296e-05
0.0010567479766905
0.0018453939119353
0.0024019344709813
0.0028366008773446
0.0032578490208834
0.0037612714804708
0.0044206571765244
0.0052797743119299
0.0063478387892246
0.0076021323911845
0.0089966692030429
0.0104707721620798
0.0119473170489072
0.0133191049098968
0.0144393276423215
0.0151290986686944
0.0152004677802324
0.0144885396584868
0.0128842564299702
0.010360550135374
0.0069873775355517
0.0029309042729437
-0.0015636472962796
-0.0061991941183805
-0.0106572015210986
-0.0146302133798599
-0.0178543776273727
-0.020133739337325
-0.0213559158146381
-0.0215031616389751
-0.0206528473645448
-0.0189633388072252
-0.016650365665555
-0.0139587167650461
-0.0111323567107319
-0.0083875581622123
-0.0058942753821611
-0.0037671593017876
-0.0020633884705603
-0.0007840638281777
0.0001207712339237
0.0007403627387247
0.0011871467577293
0.0015826314920559
0.0020422711968421
0.0026560041587799
0.0034737715031951
0.0045043574646115
0.0057233362458646
0.0070826560258865
0.0085205696523189
0.0099712321534752
0.011367860250175
0.0126360524445772
0.0136822424829006
0.0143861519172787
0.0146047808229923
0.014189570210874
0.0130145475268363
0.0110106067731976
0.0081916265189647
0.0046611088328063
0.0006046405760571
-0.0037260034587234
-0.0080382069572806
-0.0120315486565232
-0.0154320206493139
-0.018019774928689
-0.0196479316800832
-0.0202543660998344
-0.0198658797889947
-0.0185919031500816
-0.0166078358888626
-0.0141298435628414
-0.0113837793469429
-0.0085778357461094
-0.0058879042044281
-0.0034522740170359
-0.0013680141419172
0.0003140377812087
0.0015938791912049
0.0025213675107806
0.0031848093494772
0.0036921484861522
0.0041536563076078
0.0046684541739523
0.0053133531473577
0.0061362888664007
0.0071561224758625
0.0083663137629628
0.0097403870895504
0.0112386178225278
0.0128086917102336
0.0143761802464723
0.0158345215022563
0.0170442704111337
0.0178431253880262
0.0180621724575757
0.0175458416342735
0.0161780528724193
0.0139104947447776
0.0107835829257965
0.0069345873780548
0.0025902923662215
-0.0019570454023778
-0.0063856956548988
-0.0103815114125609
-0.0136698884889483
-0.0160438604652881
-0.0173863545060157
-0.0176809951663017
-0.0170078855007886
-0.0155233666300773
-0.0134318135678768
-0.0109600834548473
-0.0083336969837546
-0.0057534142397344
-0.003378365188837
-0.0013183201663196
0.0003688749857246
0.0016771212685853
0.0026469759177416
0.0033543210010975
0.0038974825292825
0.0043829660862684
0.0049048457294702
0.0055285808630287
0.0062901712954044
0.007200441788882
0.0082474183291196
0.009401086717844
0.0106197986751794
0.0118563277646899
0.0130639430135488
0.0141990007832646
0.0152152767404913
0.0160503163933753
0.0166126936674118
0.0167832113802433
0.0164320059120655
0.0154405431821942
0.0137227997183799
0.0112473983317613
0.0080571118742227
0.0042789792641997
0.0001197860110551
-0.0041564130224287
-0.0082632508128881
-0.0119262766093015
-0.0149091864004731
-0.0170348174870014
-0.0182023160159587
-0.0183953512459993
-0.0176793131977319
-0.0161907039582729
-0.0141178434714674
-0.0116748940199613
-0.0090807499364018
-0.0065436102449893
-0.004240829963237
-0.0022979439236223
-0.0007787451613694
0.0003132161218672
0.0010272928047925
0.0014534897636622
0.0017044343985617
0.0018974414560943
0.0021414717193692
0.0025249780155718
0.0031056315638124
0.0039088311605155
0.0049339896067976
0.006159187760204
0.0075392108410596
0.0090040434151887
0.0104658342897892
0.0118318209424614
0.0130129233002662
0.0139210298657417
0.0144589412957429
0.0145157650113105
0.013977538794279
0.0127481315284967
0.0107709616422653
0.0080496538430452
0.004663853906095
0.0007731621153652
-0.0033933389931917
-0.0075628249906003
-0.0114551074802875
-0.01481793820858
-0.0174551270902156
-0.0192448254674673
-0.0201436281204223
-0.0201795175671577
-0.0194401256740093
-0.0180573314428329
-0.0161900073289871
-0.01400937885046
-0.011687989346683
-0.0093885092064738
-0.0072477585636079
-0.0053589097224175
-0.0037631921004503
-0.0024589980021119
-0.0014198269927874
-0.0006033811951056
4.780897870659828e-05
0.0006006037583574
0.0011203988688066
0.0016633485211059
0.0022737169638276
0.0029840059578418
0.003814767114818
0.0047745592892169
0.0058601503260433
0.0070541435852646
0.0083223301917314
0.0096148727461695
0.0108691835775971
0.0120060425251722
0.012917336076498
0.0134615441784262
0.0134791601449251
0.0128222163766622
0.0113871833309531
0.0091418158262968
0.0061406474560499
0.0025284443981945
-0.0014703241176903
-0.0055776326917111
-0.0094967950135469
-0.0129461400210857
-0.0156894400715827
-0.017560688778758
-0.0184757262468338
-0.0184329394251108
-0.0175124257802963
-0.0158698894083499
-0.01371462456882
-0.0112766111269593
-0.0087764179334044
-0.0064021358266472
-0.0042946049943566
-0.0025419071316719
-0.0011786866234615
-0.0001894698943942
0.0004814632120542
0.0009153251885436
0.0012036969419568
0.0014379816129803
0.0017049910966306
0.0020820423960685
0.0026248462963849
0.0033565692137926
0.0042692776769399
0.0053324433974921
0.0065001063048839
0.0077173998579382
0.0089272987097501
0.0100724659860134
0.0110880360007286
0.0118924565613269
0.0123861106112599
0.0124586001038551
0.0120016224682331
0.0109260808676481
0.0091842655092477
0.0067897154949605
0.0038227289915084
0.0004243138246238
-0.0032137725502252
-0.0068630445748567
-0.0102785639464855
-0.0132260359823703
-0.0155092636123299
-0.016990864649415
-0.0176059082150459
-0.0173664968460798
-0.0163541920483112
-0.014704349450767
-0.0125893615186214
-0.0102002201601862
-0.0077256131917238
-0.0053368881344795
-0.0031807720661163
-0.0013703791191801
2.811453305184841e-05
0.0010053974110633
0.0016083184164017
0.0019276135135442
0.0020780498161911
0.0021772342734038
0.0023290638346225
0.0026139959227293
0.0030847245361655
0.0037647671997547
0.004649500362575
0.0057127280160784
0.0069171702489256
0.0082173263654112
0.0095508340746164
0.0108309369534254
0.0119465515017509
0.0127652250230312
0.0131413536146283
0.0129343895241618
0.0120320301502943
0.0103728650137782
0.0079655945301055
0.0048984447494149
0.0013344587059691
-0.0025053229182958
-0.006364946719259
-0.0099770063534379
-0.0130864894017577
-0.0154797239229083
-0.0170146431773901
-0.0176370795816183
-0.0173778105527162
-0.0163406692445278
-0.0146861635148525
-0.0126084322109818
-0.010309575125575
-0.0079769128933548
-0.0057660699822008
-0.0037911906838417
-0.0021206005476415
-0.0007772031240165
0.0002562650479376
0.0010296734981238
0.001616972964257
0.0021047035697847
0.0025758766569197
0.0030941416043788
0.0036975422408431
0.0044028218835592
0.005212620832026
0.0061201658099889
0.0071109686978161
0.0081643350422382
0.0092554111033678
0.0103540103882551
0.0114184077829122
0.0123855527490377
0.0131620522588491
0.0136253330856561
0.0136410696431994
0.0130863767117261
0.0118669401854276
0.0099357683211565
0.0073172841221094
0.0041215107776224
0.0005378338973969
-0.003187873866409
-0.0067835566587746
-0.0099824192002415
-0.0125530688092112
-0.0143243260681629
-0.0152020100504159
-0.0151764387264847
-0.0143182035535573
-0.0127614708617329
-0.0106795635074377
-0.0082654766738414
-0.0057206954807043
-0.0032411394640803
-0.0009977496229112
0.0008829105645418
0.0023328033275902
0.0033444894943386
0.0039630625396966
0.0042749755084514
0.0043936558067798
0.0044414233416318
0.0045324154198169
0.0047591961920261
0.0051835840567946
0.0058347173035144
0.0067133959382772
0.0077954749576747
0.009032373316586
0.0103561421856284
0.0116899721324443
0.0129518490284681
0.0140486918389797
0.0148737393319606
0.0153110921382904
0.0152418315410614
0.0145540107041597
0.0131634166464209
0.0110422587022185
0.0082402490079402
0.0048870602622628
0.0011810107389464
-0.0026313979178667
-0.006286849733442
-0.009540656581521
-0.0121930874884128
-0.0141033651307225
-0.0151965599507093
-0.0154656171798706
-0.0149685125797986
-0.0138200316578149
-0.012176121585071
-0.0102129839360713
-0.0081073399633169
-0.0060226116329431
-0.0040994910523295
-0.0024440002162009
-0.0011137288529425
-0.0001117009669542
0.000606907531619
0.0011170834768563
0.0015038731507956
0.0018497542478144
0.0022295601665973
0.0027065519243478
0.0033259629271924
0.0041076308116316
0.0050446460954844
0.0061097983270883
0.0072628492489457
0.0084548750892281
0.0096307266503572
0.0107309278100728
0.0116928145289421
0.012448251247406
0.0129160173237323
0.0129935769364237
0.0125595424324274
0.0114953257143497
0.0097207287326455
0.0072255707345902
0.0040843347087502
0.0004532729508355
-0.0034460166934877
-0.0073518641293048
-0.0109934639185667
-0.0141240414232015
-0.0165480282157659
-0.0181362610310316
-0.0188316497951746
-0.0186475627124309
-0.0176631826907396
-0.016020456328988
-0.0139125240966677
-0.0115564437583088
-0.0091621726751327
-0.0069090761244297
-0.0049316706135869
-0.0033118678256869
-0.0020756956655532
-0.0011970321647822
-0.0006079890299588
-0.000212520128116
9.755371138453484e-05
0.000426469836384
0.0008630814263597
0.0014743532519787
0.0022967120166867
0.0033258837647736
0.0045186085626482
0.0058081103488802
0.0071215219795703
0.0083919893950223
0.0095621235668659
0.0105784740298986
0.0113807171583175
0.011890391819179
0.0120066842064261
0.0116151301190257
0.0106109632179141
0.008930574171245
0.0065778694115579
0.0036395657807588
0.0002822275273501
-0.0032757723238319
-0.0068004708737134
-0.0100666619837284
-0.0128728821873664
-0.015053872950375
-0.016493022441864
-0.0171354934573173
-0.0169946700334548
-0.0161462910473346
-0.014715451747179
-0.0128618907183408
-0.0107619874179363
-0.0085876453667879
-0.0064865704625844
-0.0045663486234843
-0.0028894720599055
-0.001483304426074
-0.0003497465513646
0.0005360185168683
0.0012263872195035
0.0017930609174072
0.0023133645299822
0.0028573863673955
0.0034820679575204
0.0042303130030632
0.0051275766454637
0.0061776423826813
0.0073633641004562
0.0086508458480238
0.0099928164854645
0.0113294133916497
0.0125833051279187
0.0136500624939799
0.0143955806270241
0.0146688036620616
0.0143243502825498
0.0132475793361663
0.0113805150613188
0.0087446402758359
0.0054500512778759
0.0016872014384716
-0.0022929098922759
-0.0062072672881186
-0.0097765643149614
-0.0127582466229796
-0.0149665893986821
-0.0162823311984539
-0.0166621133685112
-0.0161475967615842
-0.0148607958108186
-0.0129822958260774
-0.0107257673516869
-0.0083136744797229
-0.0059511535800993
-0.0038035847246646
-0.0019830958917737
-0.0005429219454526
0.0005213837139308
0.0012633888982236
0.0017704276833683
0.002145507838577
0.0024932341184467
0.0029122731648385
0.0034846141934394
0.0042576640844345
0.005236227530986
0.006391579285264
0.0076749809086322
0.0090292757377028
0.0103970244526863
0.0117204869166016
0.0129348868504166
0.0139622315764427
0.0147092547267675
0.0150693682953715
0.0149295153096318
0.0141842402517795
0.012760043144226
0.010643565095961
0.0078950561583042
0.0046413857489824
0.0010626481380313
-0.0026203652378171
-0.0061650024726986
-0.0093346079811453
-0.0119257373735308
-0.0137865934520959
-0.0148287275806069
-0.0150342220440506
-0.0144557999446988
-0.0132079934701323
-0.0114503372460603
-0.0093652186915278
-0.0071337865665555
-0.0049152579158544
-0.0028374446555972
-0.0009981745388358
0.0005354897584766
0.0017353615257889
0.0026165198069065
0.0032308152876794
0.0036545118782669
0.003975735977292
0.0042826565913856
0.0046541127376258
0.0051535051316022
0.0058231502771377
0.006679737009108
0.0077140880748629
0.0088964495807886
0.0101848170161247
0.0115279508754611
0.0128608709201216
0.0141004845499992
0.0151421334594488
0.0158569309860467
0.0160990729928016
0.0157254487276077
0.0146214198321104
0.0127270352095365
0.0100556295365095
0.0066994819790124
0.0028245048597455
-0.0013427131343632
-0.0055353725329041
-0.0094739235937595
-0.0128960702568292
-0.0155877098441123
-0.0174105241894722
-0.0183143708854913
-0.0183323137462139
-0.0175656862556934
-0.0161645635962486
-0.0143095962703228
-0.0121960947290062
-0.0100139742717146
-0.0079252803698182
-0.0060493960045278
-0.004459090065211
-0.0031830666121095
-0.0022099735215306
-0.0014918100787326
-0.0009498157305642
-0.0004884037189185
-1.617823727428913e-05
0.0005361628718674
0.001208993140608
0.0020178474951535
0.0029618183616548
0.0040274844504892
0.0051898281089961
0.0064174137078225
0.0076790461316704
0.0089454622939229
0.0101864822208881
0.0113655542954802
0.0124323293566703
0.0133168026804924
0.0139274541288614
0.014152280986309
0.0138650983572006
0.0129423309117555
0.0112919164821505
0.0088865952566266
0.005785334855318
0.0021352581679821
-0.00184305338189
-0.0058840280398726
-0.0097121372818946
-0.0130742657929658
-0.0157640408724546
-0.0176389701664447
-0.0186322852969169
-0.0187509357929229
-0.0180599801242351
-0.0166722368448972
-0.0147471204400062
-0.0124821020290255
-0.0100897178053855
-0.0077692461200058
-0.0056844917125999
-0.0039496701210737
-0.0026187277399003
-0.0016814414411783
-0.0010740449652075
-0.000699917320162
-0.0004485286772251
-0.0002097366377711
0.0001140809617936
0.0005990988574922
0.0012946990318596
0.0022193482145667
0.0033576027490198
0.0046613682061433
0.0060571753419935
0.0074598966166377
0.0087901428341865
0.0099866418167948
0.0110059268772602
0.0118095781654119
0.0123473787680268
0.0125466920435428
0.0123150404542684
0.0115564381703734
0.010194793343544
0.0081970673054456
0.0055901473388075
0.0024656942114233
-0.0010279212146997
-0.0047024930827319
-0.0083500239998102
-0.0117595475167036
-0.0147310299798846
-0.0170936621725559
-0.018726497888565
-0.019571715965867
-0.0196364689618349
-0.0189861953258514
-0.0177357271313667
-0.0160382762551307
-0.0140677327290177
-0.0119965691119432
-0.0099737104028463
-0.008109200745821
-0.0064734453335404
-0.0051038302481174
-0.0040070279501378
-0.0031583087984472
-0.002504501491785
-0.0019740867428481
-0.0014901835238561
-0.0009792672935873
-0.0003773781936615
0.0003614868037402
0.0012590668629854
0.0023139826953411
0.003505871631205
0.0048006391152739
0.0061589460819959
0.0075391549617052
0.0088907536119222
0.0101491110399365
0.0112365186214447
0.0120648201555013
0.0125367194414138
0.0125476168468594
0.0119941672310233
0.0107935424894094
0.0089062210172414
0.0063539482653141
0.0032309789676219
-0.0002967964392155
-0.0040089744143188
-0.0076573137193918
-0.0109924348071217
-0.0137900374829769
-0.0158791616559028
-0.0171625725924968
-0.0176195353269577
-0.0172971524298191
-0.01629857160151
-0.0147695243358612
-0.0128817381337285
-0.0108124651014804
-0.0087255667895078
-0.0067588775418698
-0.0050137569196522
-0.0035460202489048
-0.0023642333690077
-0.0014349434059113
-0.000690052518621
-3.942148759961128e-05
0.0006085636559873
0.0013276156969368
0.0021634546574205
0.0031318131368607
0.0042228889651596
0.0054104891605675
0.0066624181345105
0.0079476935788989
0.0092364065349102
0.0104972645640373
0.0117002353072166
0.0128181977197527
0.0138195343315601
0.0146565055474638
0.0152615895494818
0.0155543945729732
0.0154475346207618
0.0148503985255956
0.0136847356334328
0.0119113456457853
0.0095510790124535
0.0066920816898345
0.0034854249097406
0.0001298994757235
-0.0031511678826063
-0.0061359014362096
-0.0086286626756191
-0.010479143820703
-0.0115940356627106
-0.0119403451681137
-0.011541137471795
-0.0104717565700411
-0.0088580418378114
-0.0068659652024507
-0.0046808719635009
-0.0024865097366273
-0.000447254627943
0.0013105613179504
0.0027143859770148
0.0037494506686925
0.0044519142247736
0.0048972354270517
0.0051857568323612
0.0054253763519227
0.0057127182371914
0.0061192028224468
0.0066870735026896
0.0074290260672569
0.0083275586366653
0.0093408767133951
0.0104151312261819
0.0114954141899943
0.0125315310433506
0.0134793519973754
0.0143008613958954
0.0149600636214017
0.0154122160747647
0.0155943995341658
0.0154252704232931
0.0148152140900492
0.0136841032654047
0.0119819603860378
0.0097076445817947
0.0069185057654976
0.0037269669119268
0.0002886126749217
-0.0032106144353747
-0.0065675945952534
-0.0095812622457742
-0.012076030485332
-0.0139217488467693
-0.0150459678843617
-0.0154383769258856
-0.0151486694812774
-0.0142766591161489
-0.0129564981907606
-0.0113398004323244
-0.0095791211351752
-0.0078116697259247
-0.0061465380713343
-0.0046621426008641
-0.0034115896560251
-0.0024234522134065
-0.0016953812446445
-0.0011915857903659
-0.0008499393588863
-0.0005946536548435
-0.0003486352507025
-4.250952042639256e-05
0.0003773114876821
0.0009412275394424
0.0016544011887162
0.0025008984375745
0.0034522919449955
0.0044787935912609
0.0055537149310112
0.006644582375884
0.0077028777450323
0.0086632715538144
0.009445066563785
0.0099535379558801
0.0100877191871404
0.0097522223368287
0.0088688367977738
0.0073892469517886
0.0053096911869943
0.0026839892379939
-0.0003721872344613
-0.0036897624377161
-0.0070624463260173
-0.0102645484730601
-0.0130759328603744
-0.0153161063790321
-0.0168704483658075
-0.0176951736211776
-0.0178082883358001
-0.017278928309679
-0.0162152908742427
-0.0147480797022581
-0.0130154583603143
-0.0111530423164367
-0.009285275824368
-0.0075176088139414
-0.0059294467791914
-0.0045677716843783
-0.0034447486978024
-0.0025382114108651
-0.0017961640842258
-0.0011516665108501
-0.0005421269452199
7.983436807990074e-05
0.0007473207078874
0.0014849598519504
0.0023098005913197
0.0032271496020257
0.0042279125191271
0.0052898651920259
0.0063823270611464
0.007472195662558
0.0085273571312427
0.0095149744302034
0.0103985369205474
0.01113654486835
0.0116757629439234
0.0119405360892415
0.0118338223546743
0.0112539399415254
0.01011798158288
0.0083841159939765
0.0060679167509078
0.0032516468781977
8.426560088992119e-05
-0.0032334332354366
-0.0064755976200103
-0.0094195175915956
-0.0118707790970802
-0.0136820822954177
-0.014761546626687
-0.0150746954604983
-0.0146476551890373
-0.0135698672384023
-0.0119856670498847
-0.0100730480626225
-0.0080197369679808
-0.0060008033178746
-0.0041585438884794
-0.0025904872454702
-0.0013472645077854
-0.0004365485510788
0.0001706110779196
0.0005343136144801
0.0007378509035333
0.000872496922966
0.0010236187372356
0.0012663359520956
0.0016611913451924
0.0022424086928367
0.0030098166316747
0.0039341314695775
0.0049699675291776
0.006066360976547
0.0071713044308125
0.0082344617694616
0.0092100799083709
0.0100546395406126
0.0107161570340394
0.0111223189160227
0.0111789563670754
0.0107825258746743
0.0098423454910516
0.0083067035302519
0.0061816042289137
0.0035343472845852
0.0004878037143498
-0.0027889856137335
-0.0060959658585488
-0.0092224348336458
-0.0119676180183887
-0.0141603145748376
-0.0156773440539836
-0.0164556298404932
-0.0164937246590852
-0.0158459804952144
-0.0146157015115022
-0.0129457795992493
-0.0110009294003248
-0.0089446883648633
-0.0069227423518896
-0.0050565586425364
-0.0034399311989545
-0.0021334532648324
-0.0011577042751014
-0.0004902677610516
-7.218169048428535e-05
0.0001782542094588
0.0003508613444864
0.0005339789204299
0.0008081058040261
0.0012358692474663
0.0018525766208767
0.0026650894433259
0.003656574524939
0.0047934618778526
0.006031550001353
0.0073166042566299
0.0085812034085392
0.0097440797835588
0.0107123013585805
0.0113832540810108
0.0116495285183191
0.0114093171432614
0.0105793075636029
0.0091105801984667
0.0070069255307316
0.0043377731926739
0.0012391740456223
-0.0020990669727325
-0.0054549812339246
-0.0085965935140848
-0.0113065503537654
-0.0134100867435336
-0.0147949103266
-0.0154166780412197
-0.0152946198359131
-0.014502415433526
-0.013155466876924
-0.0113950567319989
-0.009374912828207
-0.0072509134188294
-0.005168161354959
-0.0032476438209414
-0.0015770988538861
-0.0002047847956418
0.0008656661957502
0.0016765231266617
0.0023055747151374
0.0028428919613361
0.0033685788512229
0.0039436360821127
0.0046102614142
0.0053929896093904
0.0062992111779749
0.0073211058042943
0.0084377573803067
0.0096162930130958
0.0108154844492673
0.0119936782866716
0.0131135405972599
0.0141352135688066
0.0150043480098247
0.0156473591923713
0.015970267355442
0.0158574357628822
0.0151848150417208
0.0138519937172532
0.0118162147700786
0.0091152004897594
0.0058747278526425
0.0022973995655775
-0.0013666716404259
-0.0048541659489274
-0.0079163648188114
-0.0103439521044492
-0.0119898002594709
-0.0127810649573802
-0.0127170672640204
-0.011860255151987
-0.0103291068226099
-0.0082913767546415
-0.0059503996744751
-0.0035229744389653
-0.0012132581323385
0.0008118152618408
0.002442929893732
0.0036403150297701
0.0044304793700575
0.0048893224447965
0.0051202555187046
0.0052357055246829
0.0053450972773134
0.0055443053133785
0.0059063611552119
0.006478895433247
0.007283158134669
0.0083077428862452
0.0095048062503337
0.0107992216944694
0.012107384391129
0.0133527852594852
0.0144694708287715
0.0153954997658729
0.0160629507154226
0.0163896605372428
0.0162788722664117
0.0156297478824853
0.0143555495887994
0.0124054364860057
0.0097865825518965
0.0065804873593151
0.0029427020344883
-0.0009179960470646
-0.0047697089612483
-0.0083830561488866
-0.0115483729168772
-0.0140907671302557
-0.0158877689391374
-0.016883298754692
-0.0170901846140623
-0.0165804214775562
-0.0154698248952627
-0.0139037128537893
-0.0120435617864131
-0.0100544402375817
-0.0080899270251393
-0.006272236816585
-0.0046817450784146
-0.0033634826540946
-0.0023329704999923
-0.0015730337472632
-0.0010350008960813
-0.0006497353315353
-0.0003404632443562
-3.189709968864918e-05
0.0003434190293774
0.000839983287733
0.0014951545745134
0.0023241762537509
0.0033161877654492
0.0044377641752362
0.0056450450792908
0.0068953400477766
0.0081466380506753
0.0093458434566855
0.0104165067896246
0.0112514039501547
0.0117144240066409
0.0116567434743046
0.0109430057927966
0.0094798998907208
0.0072412840090692
0.00428286800161
0.0007415714208036
-0.0031786332838237
-0.0072282985784113
-0.0111379418522119
-0.0146443722769618
-0.0175138525664806
-0.0195655152201652
-0.0206965766847133
-0.0208959784358739
-0.0202377624809741
-0.0188615471124649
-0.0169482193887233
-0.0146961510181427
-0.0123019209131598
-0.0099445469677448
-0.0077703753486275
-0.0058807600289583
-0.0043266504071652
-0.0031102111097425
-0.0021919612772762
-0.0015011162031441
-0.0009468414355069
-0.0004320552106946
0.000131212407723
0.0008108717156574
0.0016493393341079
0.002661416772753
0.0038356953300535
0.0051398980431258
0.006529489532113
0.0079563129693269
0.0093738641589879
0.0107391085475683
0.012009086087346
0.0131315011531114
0.014036513864994
0.014634788967669
0.014820396900177
0.0144794965162873
