bvp
0.0185771230608224
0.0175752267241477
0.0163959935307502
0.0149702560156583
0.0132194412872195
0.0110668195411562
0.0084531838074326
0.0053521078079938
0.0017777308821678
-0.002211757004261
-0.0065099848434329
-0.0109632741659879
-0.0153811294585466
-0.0195549447089433
-0.0232838205993175
-0.0264009926468133
-0.0287903659045696
-0.0303922779858112
-0.031204305589199
-0.0312794260680675
-0.0307204648852348
-0.0296652875840663
-0.0282608997076749
-0.0266416706144809
-0.0249249823391437
-0.0232143718749284
-0.0215963311493396
-0.0201324429363012
-0.0188532918691635
-0.0177566111087799
-0.016812790185213
-0.0159763358533382
-0.015194771811366
-0.0144144110381603
-0.0135903107002377
-0.0126971425488591
-0.0117313284426927
-0.0107036624103784
-0.0096297413110733
-0.0085272518917918
-0.0074208551086485
-0.0063468795269727
-0.0053552007302641
-0.004510068334639
-0.0038890866562724
-0.0035786973312497
-0.0036627254448831
-0.004204710945487
-0.0052330438047647
-0.0067325811833143
-0.0086399875581264
-0.0108456742018461
-0.0132046323269605
-0.0155490580946207
-0.0176980551332235
-0.0194721017032861
-0.0207175686955451
-0.0213296227157115
-0.0212603081017732
-0.0205151792615652
-0.019147016108036
-0.0172472838312387
-0.0149348443374037
-0.0123455896973609
-0.0096227340400218
-0.0069016506895422
-0.0042924750596284
-0.0018702056258916
0.0003275563940405
0.0022995695471763
0.0040761949494481
0.0057079661637544
0.0072485990822315
0.0087407277897
0.0102122211828827
0.0116797443479299
0.0131499916315078
0.0146189965307712
0.0160761643201112
0.017511386424303
0.0189183186739683
0.0202903989702463
0.0216147694736719
0.022869300097227
0.0240178275853395
0.0250042416155338
0.0257533751428127
0.0261751450598239
0.026166696101427
0.0256218612194061
0.0244554355740547
0.022631773725152
0.0201820749789476
0.0172058790922164
0.0138626527041196
0.0103564336895942
0.0069131227210164
0.0037566656246781
0.0010872902348637
-0.000940790399909
-0.0022365367040038
-0.002775534056127
-0.0025944374501705
-0.0017885044217109
-0.0005095833912491
0.0010492661967873
0.0026826206594705
0.004201422445476
0.0054537020623683
0.0063390643335878
0.0068176044151186
0.0069086458534002
0.0066769365221261
0.0062118330970406
0.0056090680882334
0.0049607087858021
0.0043501458130776
0.0038471547886729
0.0035045938566327
0.003356366418302
0.0034129414707422
0.0036599086597561
0.0040660593658685
0.0045940140262246
0.005203187931329
0.0058468668721616
0.0064694536849856
0.0070024416781961
0.007360590621829
0.0074480166658759
0.0071747656911611
0.0064741098321974
0.0053165885619819
0.0037203799001872
0.0017563514411449
-0.0004543289542198
-0.0027540177106857
-0.0049714245833456
-0.0069420309737324
-0.0085204374045133
-0.0095907803624868
-0.0100792106240987
-0.0099629089236259
-0.0092714000493288
-0.0080814864486455
-0.0065063401125371
-0.0046809683553874
-0.0027485475875437
-0.0008468967862427
0.0009084837511181
0.0024419163819402
0.0037257166113704
0.004774032626301
0.0056285606697201
0.0063438373617827
0.0069766417145729
0.0075812321156263
0.0082057900726795
0.0088871093466877
0.0096477912738919
0.0104961888864636
0.0114263743162155
0.012421166524291
0.0134568233042955
0.0145027637481689
0.015519093722105
0.0164558757096529
0.0172489080578088
0.0178125593811273
0.0180402789264917
0.017818471416831
0.0170483198016881
0.0156651157885789
0.0136519242078065
0.0110485423356294
0.0079502873122692
0.0044960808008909
0.000855122692883
-0.0027847979217767
-0.0062298327684402
-0.0092924619093537
-0.011804754845798
-0.0136349024251103
-0.0147051587700843
-0.0150046180933713
-0.0145889921113848
-0.0135675147175788
-0.0120849208906292
-0.010304806753993
-0.008394812233746
-0.0065104020759463
-0.0047771371901035
-0.0032781241461634
-0.0020531062036752
-0.0011066980659961
-0.0004184739664196
4.950631409883499e-05
0.0003496538847684
0.0005475226789712
0.0007140962406992
0.0009113140404224
0.0011807270348072
0.0015411712229251
0.0019950903952121
0.0025376360863447
0.0031586196273565
0.0038364790380001
0.0045301988720893
0.0051723476499319
0.0056684128940105
0.0059062633663415
0.0057727452367544
0.0051726065576076
0.004045445472002
0.0023775305598974
0.000205535441637
-0.002386949956417
-0.005274374037981
-0.0082973781973123
-0.0112790390849113
-0.0140442689880728
-0.0164383314549922
-0.0183449834585189
-0.019697431474924
-0.0204785503447055
-0.0207179524004459
-0.0204858109354972
-0.0198802892118692
-0.0190147757530212
-0.0180045943707227
-0.0169508848339319
-0.015932623296976
-0.0150104220956563
-0.0142290154471993
-0.0136126615107059
-0.0131609998643398
-0.0128519078716635
-0.0126491393893957
-0.0125091969966888
-0.012387909926474
-0.0122459307312965
-0.0120489401742815
-0.0117675121873617
-0.0113814380019903
-0.0108828451484441
-0.0102751776576042
-0.0095713818445801
-0.0087956804782152
-0.0079908780753612
-0.0072231455706059
-0.006578414235264
-0.006156041752547
-0.00606070458889
-0.0063888817094266
-0.0072099501267075
-0.0085460199043154
-0.0103568946942687
-0.0125318756327033
-0.0148927625268697
-0.0172157920897007
-0.0192649662494659
-0.0208210609853267
-0.0217046812176704
-0.0218028537929058
-0.0210967138409614
-0.0196700990200042
-0.0176898017525672
-0.0153700737282633
-0.0129345171153545
-0.0105829797685146
-0.0084673054516315
-0.0066760126501321
-0.0052288020960986
-0.0040786825120449
-0.0031193820759654
-0.0022031301632523
-0.0011694505810737
0.0001270519569516
0.0017994996160268
0.0039167525246739
0.0064899567514657
0.0094660371541976
0.012736995704472
0.0161593779921531
0.0195754691958427
0.0228326674550771
0.0257990807294845
0.028371475636959
0.0304722487926483
0.0320419482886791
0.0330343022942543
0.033412367105484
0.0331491343677043
0.0322379805147647
0.0307051427662372
0.0286125894635915
0.0260541141033172
0.0231539011001586
0.0200636945664882
0.0169513039290905
0.0139840319752693
0.0113106193020939
0.0090441042557358
0.0072525120340287
0.005957300774753
0.0051335813477635
0.0047138566151261
0.0045984173193573
0.0046685636043548
0.0048028253950178
0.0048995455726981
0.0048920447006821
0.0047427411191165
0.004431577399373
0.0039553772658109
0.0033327192068099
0.0026054438203573
0.0018342102412134
0.0010892073623836
0.0004379958845674
-6.593391299247742e-05
-0.0003884178586304
-0.0005153592210263
-0.0004531661979854
-0.0002265877556055
0.0001254212111234
0.0005500370170921
0.0009760106913745
0.0013107642298564
0.001447218703106
0.0012799758696928
0.0007236641831696
-0.0002714057918637
-0.0017083003185689
-0.0035383687354624
-0.0056644780561327
-0.0079551059752702
-0.010263224132359
-0.0124406097456812
-0.0143495956435799
-0.0158752482384443
-0.0169297512620687
-0.0174488816410303
-0.0173955839127302
-0.016774108633399
-0.0156384445726871
-0.0140837859362363
-0.0122299380600452
-0.0102090090513229
-0.008155046030879
-0.0061886291950941
-0.0043998709879815
-0.0028381384909152
-0.0015112799592316
-0.0003927815705537
0.0005669663660228
0.0014305976219475
0.0022657853551208
0.003136005718261
0.0040876762941479
0.0051375022158026
0.006270048674196
0.007447300478816
0.008620117790997
0.0097330454736948
0.0107214590534567
0.0115081705152988
0.0120072085410356
0.0121325710788369
0.0118084279820322
0.0109835965558886
0.0096482234075665
0.0078445384278893
0.0056705432943999
0.0032769807148724
0.0008504092693328
-0.0014167623594403
-0.0033541270531713
-0.0048290649428963
-0.0057542887516319
-0.0060933078639209
-0.0058627934195101
-0.0051276115700602
-0.003989472053945
-0.0025733634829521
-0.0010129651054739
0.0005634729750454
0.0020425729453563
0.0033322758972644
0.0043708025477826
0.0051348390989005
0.0056379116140306
0.0059176366776227
0.0060212197713553
0.0059983390383422
0.005902964156121
0.0057972790673375
0.0057468619197607
0.0058088777586817
0.0060249753296375
0.0064199371263384
0.0070002600550651
0.0077511323615908
0.0086315162479877
0.0095682758837938
0.0104560470208525
0.0111691206693649
0.0115811191499233
0.0115830432623624
0.011097427457571
0.0100907562300562
0.008582828566432
0.0066499761305749
0.0044195209629833
0.0020546589512377
-0.0002676133299246
-0.0023802928626537
-0.004145432729274
-0.0054640211164951
-0.0062784515321254
-0.0065730921924114
-0.0063727796077728
-0.0057358173653483
-0.0047466037794947
-0.0035142223350703
-0.0021698293276131
-0.0008516483940184
0.0003179190680384
0.0012484171893447
0.0018880167044699
0.002226565266028
0.0022938647307455
0.0021506864577531
0.0018753428012132
0.0015496774576604
0.0012456816621124
0.001015078742057
0.0008877622894942
0.0008771945722401
0.0009806230664253
0.001169413793832
0.0013817753642797
0.0015307301655411
0.0015209568664431
0.0012634359300136
0.0006904192268848
-0.0002307035028934
-0.0014923568814992
-0.0030475426465272
-0.0048133125528693
-0.0066787451505661
-0.0085166301578283
-0.0101999100297689
-0.0116198537871241
-0.0126968622207641
-0.0133836343884468
-0.0136668384075164
-0.0135666895657777
-0.0131314992904663
-0.0124281477183103
-0.0115311546251177
-0.0105135962367057
-0.0094398381188511
-0.0083588743582367
-0.0073019997216761
-0.0062868962995707
-0.0053239939734339
-0.0044209058396518
-0.0035827867686748
-0.0028064083307981
-0.0020728635136038
-0.0013524321839213
-0.0006214715540409
0.0001265071332454
0.0008827969431877
0.0016295067034661
0.0023447754792869
0.0030083106830716
0.0036019398830831
0.0041014607995748
0.0044694188982248
0.0046566384844481
0.0046089123934507
0.004276264924556
0.0036247074604034
0.0026478362269699
0.001375307328999
-0.0001264405436813
-0.0017631091177463
-0.0034256065264344
-0.0050026485696434
-0.0063903131522238
-0.0074968938715755
-0.0082488190382719
-0.0086015965789556
-0.0085482308641076
-0.0081190075725317
-0.0073746461421251
-0.0063960468396544
-0.0052741877734661
-0.004100689664483
-0.0029533067718148
-0.0018788584275171
-0.0008905895520001
1.5238067135214806e-05
0.0008434096816927
0.001597249880433
0.0022802541498094
0.0028945137746632
0.0034379952121526
0.0039021847769618
0.0042733503505587
0.004540080204606
0.004700337536633
0.0047613037750124
0.0047342386096715
0.00462590996176
0.0044294917024672
0.0041226185858249
0.0036688819527626
0.0030156860593706
0.002099037868902
0.000864491565153
-0.0007083159871399
-0.0025922949425876
-0.0047113606706261
-0.00694833509624
-0.0091603314504027
-0.0111962482333183
-0.0129145039245486
-0.0142015516757965
-0.0149854402989149
-0.0152384098619222
-0.0149711137637496
-0.0142247807234525
-0.0130673982203006
-0.0115944258868694
-0.009924491867423
-0.0081857349723577
-0.0064988760277628
-0.0049621085636317
-0.0036403299309313
-0.0025602309033274
-0.0017123613506555
-0.0010591433383524
-0.0005437131039798
-9.80333425104618e-05
0.0003471919335424
0.0008532991632819
0.001469362527132
0.0022311895154416
0.0031576892361044
0.0042420369572937
0.005444305948913
0.006693688686937
0.0078984200954437
0.0089550549164414
0.0097555071115493
0.0101972883567214
0.0101967928931117
0.0097018480300903
0.0087028164416551
0.0072385119274258
0.0053947363048791
0.0032994775101542
0.00111535936594
-0.0009737256914377
-0.0027852607890963
-0.0041682794690132
-0.0050275614485144
-0.0053312294185161
-0.005104461684823
-0.0044159712269902
-0.003363405354321
-0.0020617982372641
-0.000633749179542
0.0008017234504222
0.0021426957100629
0.0033188993111252
0.0043002739548683
0.0050941728986799
0.0057371044531464
0.0062854834832251
0.0068009542301297
0.0073330071754753
0.0079113040119409
0.0085493242368102
0.0092489775270223
0.0100028999149799
0.0107970423996448
0.0116130327805876
0.0124309808015823
0.0132318865507841
0.0139946732670068
0.0146866291761398
0.0152531694620847
0.0156159838661551
0.015683876350522
0.0153719214722514
0.0146203748881816
0.0134079987183213
0.0117588052526116
0.0097411815077066
0.0074617750942707
0.0050583556294441
0.0026880188379436
0.0005084238946437
-0.0013396753929555
-0.0027449391782283
-0.0036365240812301
-0.0039915572851896
-0.0038366327062249
-0.0032438747584819
-0.002317959908396
-0.0011771209537982
5.970546044409275e-05
0.0012794882059097
0.0023830495774745
0.0032923754770308
0.0039568953216075
0.004361537285149
0.0045299516059458
0.0045177065767347
0.0044001569040119
0.0042588086798787
0.004167606588453
0.00418256316334
0.0043361755087971
0.0046351011842489
0.005063104443252
0.0055910386145114
0.0061840354464948
0.0067963106557726
0.0073623983189463
0.0077967960387468
0.0080005703493952
0.0078722005710005
0.0073236646130681
0.0062977997586131
0.0047803204506635
0.0028039361350238
0.0004471926949918
-0.0021698116324841
-0.0048947134055197
-0.0075570782646536
-0.00998389814049
-0.0120155680924654
-0.013525603339076
-0.0144411604851484
-0.0147523991763591
-0.0145051088184118
-0.0137845985591411
-0.0127025563269853
-0.0113889575004577
-0.0099802818149328
-0.0086015993729233
-0.0073522054590284
-0.0062995897606015
-0.0054771080613136
-0.0048836851492524
-0.0044883266091346
-0.004236782900989
-0.0040564751252532
-0.0038671693764626
-0.0036009838804602
-0.003216354176402
-0.0026970757171511
-0.002047911286354
-0.0012926775962114
-0.0004681264981627
0.0003856751136481
0.0012316228821873
0.0020357724279165
0.0027605909854173
0.0033554714173078
0.0037545030936598
0.0038840975612401
0.0036747260019183
0.0030750660225749
0.0020658755674958
0.0006656432524323
-0.0010718796402215
-0.0030607543885707
-0.0051854490302503
-0.007308532949537
-0.0092849433422088
-0.0109781362116336
-0.0122743742540478
-0.0130958668887615
-0.0134108290076255
-0.0132348630577325
-0.0126252081245183
-0.0116718783974647
-0.0104834362864494
-0.0091688595712184
-0.0078254155814647
-0.006536295171827
-0.0053701600991189
-0.0043756184168159
-0.0035735678393393
-0.0029566120356321
-0.0024958488065749
-0.0021479185670614
-0.0018620716873556
-0.001586562488228
-0.0012721379753202
-0.0008777827024459
-0.0003784026484936
0.000234204577282
0.0009563534986227
0.0017763709183782
0.0026730159297585
0.0036071436479687
0.0045133186504244
0.0053010294213891
0.0058680288493633
0.0061176987364888
0.005971223115921
0.0053775324486196
0.0043245917186141
0.0028455595020204
0.0010169700253754
-0.0010475018061697
-0.0032075108028948
-0.0053109149448573
-0.0072082872502505
-0.0087633887305855
-0.0098657989874482
-0.0104492204263806
-0.0105020115152001
-0.0100624561309814
-0.0092087462544441
-0.0080480398610234
-0.0067006121389567
-0.0052826264873147
-0.0038950792513787
-0.0026184772141277
-0.0015079816803336
-0.0005879888776689
0.0001489939168095
0.0007356682326644
0.0012214200105518
0.0016662393463775
0.0021300665102899
0.0026575601659715
0.0032692111562937
0.0039622010663151
0.0047181565314531
0.0055139521136879
0.0063282763585448
0.0071413200348615
0.0079310312867164
0.0086677502840757
0.0093102715909481
0.0098066162317991
0.010095864534378
0.0101101007312536
0.0097848549485206
0.0090780621394515
0.0079833837226033
0.0065312404185533
0.0047839879989624
0.002831042278558
0.0007850555703043
-0.001225835410878
-0.0030722867231816
-0.0046361153945326
-0.0058180172927677
-0.0065473318099975
-0.0067931609228253
-0.0065699042752385
-0.0059335120022296
-0.0049696560017764
-0.0037771565839648
-0.0024520615115761
-0.0010796785354614
0.0002654981799423
0.0015187340322881
0.0026268064975738
0.0035535795614123
0.0042858701199293
0.0048351930454373
0.0052355513907969
0.0055360798723995
0.0057905334979295
0.0060506239533424
0.0063622440211474
0.0067598409950733
0.0072613628581166
0.0078672673553228
0.0085618775337934
0.0093120634555816
0.0100608002394437
0.0107240919023752
0.011200769804418
0.0113880187273025
0.0111931338906288
0.0105458805337548
0.0094144800677895
0.0078176641836762
0.0058259801007807
0.0035541313700377
0.0011487777810543
-0.0012276809429749
-0.0034149945713579
-0.005268748383969
-0.0066692475229501
-0.0075326538644731
-0.0078268777579069
-0.0075813285075128
-0.0068800635635852
-0.0058422102592885
-0.0046004275791347
-0.0032835642341524
-0.0020047903526574
-0.0008537551038898
0.0001108144933823
0.0008664625347591
0.0014235023409128
0.0018150748219341
0.0020886913407593
0.0022987942211329
0.0025001522153615
0.0027419212274253
0.0030576880089938
0.0034576286561787
0.0039302404038608
0.0044495025649666
0.004984785337001
0.0055098310112953
0.006003463640809
0.006442217156291
0.0067921252921223
0.0070056477561593
0.0070226350799202
0.0067737773060798
0.0061900806613266
0.0052185980603098
0.0038394443690776
0.002076718956232
-2.011191099882126e-06
-0.0022934048902243
-0.0046668923459947
-0.0069759762845933
-0.0090749859809875
-0.010835625231266
-0.0121566206216812
-0.0129687990993261
-0.0132406093180179
-0.0129841854795813
-0.0122590027749538
-0.0111671928316354
-0.0098368665203452
-0.0084012681618332
-0.006982272490859
-0.005678242072463
-0.0045572351664304
-0.0036576832644641
-0.002992431866005
-0.0025503004435449
-0.0022962468210607
-0.0021749301813542
-0.0021193940192461
-0.0020624520257115
-0.0019464420620352
-0.0017293152632191
-0.0013876958983018
-0.0009169669356197
-0.0003278460353612
0.0003575482405722
0.0011054191272705
0.0018650470301508
0.0025624576956033
0.0031007204670459
0.0033713912125676
0.0032724305056035
0.0027261795476078
0.0016928664408624
0.0001782954204827
-0.0017602207371965
-0.0040113921277225
-0.0064183669164776
-0.0087972898036241
-0.0109612932428717
-0.0127452369779348
-0.0140214432030916
-0.014703856781125
-0.0147545468062162
-0.0141975712031126
-0.0131217101588845
-0.0116620510816574
-0.0099745923653244
-0.0082147466018795
-0.0065184962004423
-0.0049892631359398
-0.0036926653701812
-0.0026532581541687
-0.0018536210991442
-0.0012409251648932
-0.0007385755889117
-0.0002596052363514
0.0002802195958793
0.0009531993418931
0.0018109621014446
0.002872435376048
0.0041182925924658
0.005499598570168
0.0069525893777608
0.0084102470427751
0.009807645343244
0.0110799558460712
0.0121568571776151
0.0129598183557391
0.0134036028757691
0.0134020764380693
0.0128820315003395
0.0118025038391351
0.0101706283167004
0.0080511942505836
0.0055666617117822
0.0028828978538513
0.0001870985142886
-0.0023333057761192
-0.0045083644799888
-0.0062003638595342
-0.0073178145103156
-0.0078257974237203
-0.007747437339276
-0.0071585760451853
-0.0061767338775098
-0.0049425489269196
-0.0036002839915454
-0.0022832076065242
-0.0010978910140693
-0.0001082173548638
0.0006660488434135
0.0012340336106717
0.0016191527247428
0.0018561142496764
0.0019922768697142
0.0020845578983426
0.0021928390488028
0.0023704478517174
0.002654627431184
0.0030656950548291
0.0036118596326559
0.0042908107861876
0.0050895921885967
0.005982344970107
0.0069231111556291
0.0078409854322671
0.0086419945582747
0.0092130750417709
0.0094292843714356
0.0091703776270151
0.0083464635536074
0.006922794971615
0.0049319365061819
0.0024729263968765
-0.0002958793193101
-0.0031716311350464
-0.0059316591359674
-0.0083596976473927
-0.0102695999667048
-0.0115277497097849
-0.0120649058371782
-0.011874227784574
-0.0110091511160135
-0.0095847230404615
-0.0077694924548268
-0.005762240383774
-0.0037602805532515
-0.0019300924614071
-0.0003898665308952
0.0007967907004058
0.0016237781383097
0.0021400330588221
0.0024353829212486
0.0026193209923803
0.0028011770918965
0.003075283486396
0.0035141059197485
0.0041675507090985
0.0050585828721523
0.0061741955578327
0.0074625737033784
0.0088395299389958
0.0101980548352003
0.0114178592339158
0.012373985722661
0.0129434429109096
0.0130137978121638
0.0124966911971569
0.0113419964909553
0.0095499698072671
0.0071815745905041
0.0043613850139081
0.0012681370135396
-0.0018824273720383
-0.0048596956767141
-0.0074462802149355
-0.0094642713665962
-0.010793188586831
-0.0113806035369634
-0.0112444106489419
-0.0104658138006925
-0.0091745182871818
-0.007530250120908
-0.0057048015296459
-0.0038641961291432
-0.0021515665575861
-0.0006724800914525
0.0005163741298019
0.0014116512611508
0.0020579481497406
0.0025321894790977
0.0029223319143056
0.0033103206660598
0.003762119449675
0.0043214596807956
0.005008939653635
0.0058251502923667
0.0067535336129367
0.0077638798393309
0.0088154263794422
0.0098566655069589
0.010822495445609
0.0116290152072906
0.012170516885817
0.0123287877067923
0.0119927003979682
0.0110757714137434
0.0095307296141982
0.0073645859956741
0.0046470891684293
0.0015077115967869
-0.0018729001749306
-0.0052759745158255
-0.0084668267518281
-0.0112216603010892
-0.0133524918928742
-0.0147274509072303
-0.0152820348739624
-0.0150215812027454
-0.0140181528404355
-0.0124008674174547
-0.0103406179696321
-0.0080333678051829
-0.0056813438422977
-0.0034685817081481
-0.0015353492926806
3.630237188190222e-05
0.0012229231651872
0.0020537863019853
0.0026008491404354
0.0029620444402098
0.0032400442287325
0.0035253060050308
0.0038910396397113
0.0043933633714914
0.005066879093647
0.0059205759316682
0.0069405520334839
0.0080921668559312
0.0093139894306659
0.0105097834020853
0.0115480795502662
0.0122726205736398
0.0125212613493204
0.0121482945978641
0.0110483588650822
0.0091786449775099
0.0065718716941773
0.0033384514972567
-0.0003398205153644
-0.0042249807156622
-0.0080459592863917
-0.01152672059834
-0.0144152306020259
-0.0165113322436809
-0.0176937840878963
-0.0179364122450351
-0.017303979024291
-0.0159346051514148
-0.0140162352472543
-0.0117585994303226
-0.0093678310513496
-0.0070283748209476
-0.0048879231326282
-0.0030453149229288
-0.0015452392399311
-0.00037990976125
0.0005036576185375
0.0011922653065994
0.0017921265680342
0.0024103261530399
0.0031340448185801
0.0040163025259971
0.0050726998597383
0.0062853745184838
0.0076116872951388
0.0089952573180198
0.0103737488389015
0.0116814943030476
0.0128488363698124
0.0137976985424757
0.014435701072216
0.0146566461771726
0.014349210076034
0.0134117128327488
0.0117749283090233
0.009426325559616
0.0064220447093248
0.0028854482807219
-0.0010019009932875
-0.0050138747319579
-0.0088971899822354
-0.0123965293169021
-0.0152853615581989
-0.0173908695578575
-0.0186090171337127
-0.0189135428518056
-0.0183582976460456
-0.0170689467340707
-0.0152230598032474
-0.0130229871720075
-0.010667648166418
-0.0083314925432205
-0.0061571104452013
-0.0042519043199718
-0.0026771172415465
-0.0014378677587956
-0.0004864404909312
0.0002634958364069
0.0009184749796986
0.0015852411743253
0.0023529059253633
0.0032825598027557
0.0044033997692167
0.0057118679396808
0.0071758856065571
0.0087444800883531
0.0103571973741054
0.0119474176317453
0.013438768684864
0.0147417308762669
0.0157538428902626
0.0163609888404607
0.0164440013468265
0.0158933438360691
0.014626963995397
0.0126087376847863
0.0098652048036456
0.0064940825104713
0.0026608454063534
-0.0014153104275465
-0.0054837460629642
-0.0092866532504558
-0.0125807402655482
-0.0151619063690304
-0.0168914347887039
-0.0177113600075244
-0.0176453050225973
-0.0167891234159469
-0.0152958985418081
-0.0133580062538385
-0.0111840507015585
-0.0089718336239457
-0.0068863257765769
-0.0050473851151764
-0.0035255155526101
-0.0023424946703016
-0.0014735125005245
-0.0008520358242094
-0.0003819237463176
4.102755337953568e-05
0.0005040247924625
0.0010629720054566
0.001743325497955
0.0025460924953222
0.0034538265317678
0.004437840078026
0.005464029032737
0.0064940215088427
0.0074839801527559
0.0083848116919398
0.0091426307335495
0.0096980268135666
0.0099849617108702
0.0099310893565416
0.0094630969688296
0.0085154445841908
0.0070380130782723
0.0050063356757164
0.0024385824799537
-0.0005885493010282
-0.0039376439526677
-0.007423092611134
-0.0108308568596839
-0.0139413466677069
-0.0165516324341297
-0.0184955056756734
-0.0196624919772148
-0.0200101137161254
-0.0195656940340995
-0.0184216890484094
-0.0167233198881149
-0.0146476170048117
-0.0123819643631577
-0.0101055931299924
-0.0079708965495228
-0.0060856491327285
-0.0045012757182121
-0.0032139453105628
-0.0021796294022351
-0.0013329121284186
-0.0005998273845762
9.473273530602456e-05
0.0008200518786907
0.0016319879796355
0.0025673462077975
0.0036422077100723
0.0048539964482188
0.0061835004016757
0.007595105562359
0.0090396124869585
0.0104592302814126
0.0117892520502209
0.0129581810906529
0.0138897411525249
0.0145037099719047
0.0147165767848491
0.0144473109394311
0.0136284213513135
0.0122205428779125
0.0102281123399734
0.0077121313661336
0.0047962227836251
0.0016603823751211
-0.0014810706488788
-0.0044092815369367
-0.0069267069920897
-0.008876172825694
-0.0101546812802553
-0.0107210604473948
-0.0105965891852974
-0.0098606776446104
-0.0086405286565423
-0.0070927427150309
-0.0053826905786991
-0.0036652069538831
-0.0020659279543906
-0.0006690898444503
0.0004851594567298
0.0013984069228172
0.0021069231443107
0.0026676857378333
0.0031404066830873
0.0035738230217248
0.0040039345622062
0.0044596996158361
0.0049648438580334
0.0055344980210065
0.0061727063730359
0.0068738837726414
0.0076256655156612
0.0084088910371065
0.0091956527903676
0.0099484371021389
0.010620011948049
0.0111533850431442
0.0114794466644525
0.0115117141976952
0.0111495433375239
0.0102972481399774
0.0088888388127088
0.0069085601717233
0.0044042379595339
0.0014889957383275
-0.001670517027378
-0.0048747276887297
-0.0079141426831483
-0.0105920461937785
-0.0127451959997415
-0.0142606319859623
-0.0150856766849756
-0.0152270458638668
-0.0147446058690547
-0.0137454625219106
-0.0123709868639707
-0.0107763744890689
-0.0091126784682273
-0.0075122890993952
-0.0060752080753445
-0.004859990440309
-0.0038823909126222
-0.0031206416897475
-0.0025257035158574
-0.0020332485437393
-0.0015753433108329
-0.0010915007442235
-0.0005342795047909
0.000132493674755
0.0009331069886684
0.0018707697745412
0.0029199551790952
0.0040308954194188
0.0051428787410259
0.0061970297247171
0.0071439049206674
0.0079437065869569
0.0085582677274942
0.008941825479269
0.0090378047898411
0.0087818372994661
0.0081122238188982
0.0069870571605861
0.005402002017945
0.0034018703736364
0.0010782144963741
-0.0014455066993832
-0.0040279743261635
-0.0065196356736123
-0.0087730279192328
-0.0106545016169548
-0.0120576098561286
-0.0129156494513154
-0.0132080605253577
-0.0129593648016452
-0.0122327702119946
-0.0111221289262175
-0.0097423829138278
-0.0082160867750644
-0.0066568409092724
-0.0051523656584322
-0.0037550416309386
-0.0024877951946109
-0.0013578793732449
-0.0003643223899416
0.000502853305079
0.0012636976316571
0.0019467885140329
0.0025875535793602
0.0032233837991952
0.0038846407551318
0.0045900177210569
0.0053477403707802
0.0061553921550512
0.0069983252324163
0.007852716371417
0.0086928913369774
0.0094930287450551
0.0102170715108513
0.0108060976490378
0.0111780352890491
0.0112412553280591
0.0109105370938777
0.0101213790476322
0.0088451215997338
0.0070985741913318
0.004943935200572
0.0024842901621013
-0.00014413241297
-0.0027847178280353
-0.0052747372537851
-0.0074592921882867
-0.0092054214328527
-0.0104159191250801
-0.0110438168048858
-0.0111024966463446
-0.0106621459126472
-0.0098326075822114
-0.0087416069582104
-0.0075167044997215
-0.0062719397246837
-0.0050981002859771
-0.0040593538433313
-0.003194646211341
-0.0025174231268465
-0.0020149815827608
-0.0016532794106751
-0.0013827459188178
-0.0011408489663153
-0.000861455569975
-0.000493932981044
-1.5923171304166317e-05
0.0005688168457709
0.0012391725322231
0.001965406583622
0.0027172293048352
0.0034686052240431
0.0041975770145654
0.0048846607096493
0.0055110943503677
0.0060532139614224
0.0064754118211567
0.0067294314503669
0.0067607318051159
0.0065184100531041
0.0059644603170454
0.0050780810415744
0.0038592128548771
0.0023371437564492
0.0005787205300293
-0.0013127273414283
-0.0032090626191347
-0.0049757263623178
-0.0064899679273366
-0.0076517960987985
-0.008389706723392
-0.0086662778630852
-0.0084816347807645
-0.007873018272221
-0.0069084619171917
-0.0056743882596492
-0.0042673293501138
-0.0027920978609472
-0.0013527979608625
-3.5635894164443016e-05
0.0011016028001904
0.0020299055613577
0.0027484223246574
0.003284000325948
0.0036839332897216
0.0040028966031968
0.004291171208024
0.0045880852267146
0.004921187646687
0.005307774990797
0.0057571465149521
0.0062746983021497
0.0068616243079304
0.0075069814920425
0.0081815337762236
0.0088380519300699
0.0094146151095628
0.0098398700356483
0.0100399032235145
0.0099468175321817
0.0095084980130195
0.0086957467719912
0.0075063630938529
0.0059684771113097
0.0041415216401219
0.0021148941013962
7.591050234623253e-06
-0.0020359435584396
-0.003864669939503
-0.0053517026826739
-0.0064183408394455
-0.0070384535938501
-0.0072284811176359
-0.0070369117893278
-0.006536089349538
-0.0058098807930946
-0.0049399738200008
-0.0039988234639167
-0.0030486013274639
-0.0021412563510239
-0.0013187939766794
-0.0006115484866313
-3.066996578127146e-05
0.0004376192518975
0.0008239857270382
0.0011589564383029
0.0014629373326897
0.0017477385699748
0.0020217443816363
0.0022946298122406
0.0025800350122153
0.0028907880187034
0.0032312828116118
0.0035983726847916
0.003985671326518
0.0043819495476782
0.0047684730961918
0.0051175514236092
0.005389560945332
0.005532553885132
0.0054857991635799
0.0051854643970727
0.0045759407803416
0.003625817131251
0.0023396401666104
0.0007619552779942
-0.0010247220052406
-0.0029087443836033
-0.0047625713050365
-0.0064564291387796
-0.0078736459836363
-0.0089253159239888
-0.0095584355294704
-0.0097593227401375
-0.0095532489940524
-0.0089966244995594
-0.0081663997843861
-0.0071528181433677
-0.0060522216372191
-0.0049570314586162
-0.0039458647370338
-0.0030766956042498
-0.0023832058068364
-0.0018742594402283
-0.001537203323096
-0.0013425580691546
-0.0012479689903557
-0.0012042147573083
-0.0011621951125562
-0.0010764684993773
-0.0009079380542971
-0.0006286178249865
-0.0002280598855577
0.0002798406931106
0.0008577299304306
0.00145651306957
0.0020279111340641
0.0025310260243713
0.0029314022976905
0.0031934210564941
0.0032760507892817
0.0031381323933601
0.0027459291741251
0.0020789173431694
0.001136046135798
-5.9169105952605605e-05
-0.0014557053800672
-0.0029723136685788
-0.0045008049346506
-0.005922457203269
-0.0071295583620667
-0.0080388523638248
-0.0085946079343557
-0.0087679531425237
-0.0085564935579895
-0.00798209477216
-0.007087979465723
-0.0059373113326728
-0.0046093021519482
-0.0031903635244816
-0.0017638544086366
-0.0004032014403492
0.0008327413816004
0.0019063493236899
0.0028042900376021
0.0035303644835948
0.0040973797440528
0.00452844472602
0.004859622567892
0.0051320418715476
0.0053800721652805
0.0056288493797183
0.0058974074199795
0.0061977040022611
0.0065323542803525
0.0068947905674576
0.0072699384763836
0.0076362406834959
0.0079686464741826
0.0082374457269907
0.0084015913307666
0.0084036085754632
0.0081741288304328
0.0076453392393887
0.006767286453396
0.0055235512554645
0.0039419746026396
0.0020952150225639
9.234657045453788e-05
-0.0019354609539732
-0.0038524665869772
-0.0055332998745143
-0.0068744905292987
-0.0078056645579636
-0.0082965604960918
-0.00835488922894
-0.0080211628228425
-0.0073682693764567
-0.0064996620640158
-0.0055364491418004
-0.0045966934412717
-0.0037771312054246
-0.0031417510472238
-0.0027167201042175
-0.0024914019741117
-0.0024247174151241
-0.0024556803982704
-0.0025175611954182
-0.0025505805388092
-0.0025073154829442
-0.0023527820594608
-0.0020625363104045
-0.0016225911676883
-0.0010342891328036
-0.0003185300156474
0.0004857275635004
0.0013269730843603
0.0021487872581928
0.0028966788668185
0.0035193907096982
0.0039649391546845
0.0041785603389143
0.0041084662079811
0.0037173787131905
0.0029937638901174
0.0019598656799644
0.0006761043332517
-0.0007612779736518
-0.0022331541404128
-0.00361666129902
-0.0048006982542574
-0.0056948428973555
-0.0062330868095159
-0.0063759880140423
-0.0061164572834968
-0.0054831122979521
-0.0045335977338254
-0.0033443788997828
-0.0020014559850096
-0.0005901246331632
0.000812264624983
0.0021394332870841
0.0033419709652662
0.0043958513997495
0.0053030839189887
0.0060799345374107
0.0067432355135679
0.0073058404959738
0.0077788843773305
0.0081733437255024
0.0085014328360557
0.008779402822256
0.0090271020308136
0.0092638684436678
0.0095043629407882
0.0097546130418777
0.0100107192993164
0.0102603081613779
0.0104795387014746
0.0106270797550678
0.0106443613767623
0.0104622766375541
0.0100097162649035
0.0092249428853392
0.0080714244395494
0.0065520922653377
0.0047157150693237
0.0026556877419352
0.0005002731340937
-0.0016042368952184
-0.0035112027544528
-0.0050917989574372
-0.0062526068650186
-0.0069452691823244
-0.0071653723716735
-0.0069458414800465
-0.0063518160022795
-0.0054762167856097
-0.0044305929914116
-0.0033311848528683
-0.0022829682566225
-0.0013662171550095
-0.0006293933838605
-8.680693281348795e-05
0.0002789462450891
0.0005077643436379
0.0006502367905341
0.0007574605406261
0.0008722472121007
0.0010259191039949
0.0012427639449015
0.0015425774035975
0.0019345009932294
0.0024095829576253
0.0029417742043733
0.0034952368587255
0.0040278667584061
0.0044888919219374
0.0048199957236647
0.0049622752703726
0.004861906170845
0.00447514699772
0.0037736797239631
0.002747475169599
0.0014092903584241
-0.0001987386494874
-0.0020032250322401
-0.0039031002670526
-0.0057784151285886
-0.007505991961807
-0.0089760143309831
-0.010104477405548
-0.0108408387750387
-0.0111683877184987
-0.0111009404063224
-0.0106810126453638
-0.0099741406738758
-0.0090576857328414
-0.0080123208463191
-0.0069167977198958
-0.0058415830135345
-0.004842285066843
-0.0039524529129266
-0.0031775922980159
-0.0024993636179715
-0.0018902741139754
-0.0013269777409732
-0.0007946819532662
-0.0002850966993719
0.0002073477953672
0.0006884923204779
0.0011645080521702
0.0016398013103753
0.0021166915539652
0.0025957303587347
0.0030717647168785
0.0035282911267131
0.0039370441809296
0.0042613921687006
0.0044587845914065
0.0044813170097768
0.0042765159159898
0.003794755320996
0.0030031788628548
0.0018971508834511
0.0005066273733973
-0.0011023182887583
-0.0028333093505352
-0.0045697772875428
-0.0061863735318183
-0.007563991472125
-0.008605558425188
-0.009246826171875
-0.0094632031396031
-0.0092707248404622
-0.0087165683507919
-0.0078692212700843
-0.0068167489953339
-0.0056618344970047
-0.0045062019489705
-0.0034332270734012
-0.0024974264670163
-0.0017216708511114
-0.0011009932495653
-0.0006103936466388
-0.0002102298167301
0.0001498110650572
0.0005209409864619
0.000944044033531
0.0014438229845836
0.002026671078056
0.0026828553527593
0.0033916668035089
0.004123602528125
0.0048413649201393
0.0055046826601028
0.0060759126208722
0.006520171649754
0.0068012732081115
0.006878871936351
0.0067096245475113
0.0062537416815757
0.0054850904271006
0.0044011385180056
0.0030289539135992
0.0014258875744417
-0.0003214782336726
-0.0021013140212744
-0.0037902891635894
-0.0052749356254935
-0.0064682834781706
-0.0073142880573868
-0.0077833561226725
-0.0078683141618967
-0.0075868628919124
-0.0069835856556892
-0.0061235427856445
-0.0050840191543102
-0.0039501353166997
-0.0028065014630556
-0.0017232740065082
-0.0007479458581656
9.505229536443947e-05
0.0008050026372075
0.0014031499158591
0.0019218244124203
0.0023922908585518
0.0028408165089786
0.0032890406437218
0.0037536132149398
0.0042464304715394
0.0047737993299961
0.0053335689008235
0.0059146312996745
0.0064988527446985
0.0070636169984936
0.0075846193358302
0.0080352257937192
0.0083835329860448
0.0085940547287464
0.0086300391703844
0.0084491223096847
0.0080019142478704
0.0072434106841683
0.0061491830274462
0.0047265775501728
0.003020241158083
0.0011102485004812
-0.00089771382045
-0.0028834622353315
-0.0047230497002601
-0.0063038039952516
-0.0075402869842946
-0.0083825225010514
-0.0088156796991825
-0.0088554322719573
-0.0085419490933418
-0.0079361479729413
-0.0071180025115609
-0.0061813816428184
-0.0052226511761546
-0.0043260632082819
-0.0035519467201083
-0.0029308828525245
-0.0024629838299006
-0.0021229591220617
-0.0018703495152294
-0.0016588631551712
-0.0014429443981498
-0.0011837348574772
-0.0008509344188496
-0.0004201380070298
0.0001258857082575
0.0007897079922258
0.0015536716673523
0.0023832363076508
0.0032375883311033
0.0040775369852781
0.0048659816384315
0.0055649895220994
0.0061327656731009
0.0065239439718425
0.0066930367611348
0.0065988493151962
0.0062124202959239
0.0055261133238673
0.0045589189976453
0.0033604048658162
0.0020101519767194
0.0006047302158549
-0.0007608959567733
-0.0020055330824106
-0.003066475270316
-0.0039001300465315
-0.0044790850952267
-0.0047877812758088
-0.004824411123991
-0.0046081477776169
-0.0041792574338614
-0.0035910294391214
-0.0029025739058852
-0.0021720144432038
-0.0014472188195213
-0.0007579434895887
-0.00011496047955
0.0004813268315047
0.0010295759420841
0.0015242783119902
0.0019614696502685
0.002344443462789
0.0026834735181182
0.0029934383928775
0.003292913082987
0.0036024362780153
0.0039421655237674
0.0043287593871355
0.0047691958025097
0.0052551007829606
0.005762152839452
0.0062544117681682
0.0066886306740343
0.0070133456028997
0.0071676983498036
0.0070871757343411
0.0067149931564927
0.0060150809586048
0.0049818400293588
0.003644265467301
0.0020652737002819
0.0003353606443852
-0.0014375511091202
-0.0031376352999359
-0.0046509662643074
-0.0058785593137145
-0.0067477701231837
-0.0072171492502093
-0.0072807511314749
-0.0069730044342577
-0.0063655162230134
-0.0055548716336488
-0.0046462845057249
-0.0037375465035438
-0.0029078044462949
-0.0022103225346654
-0.0016672507626935
-0.0012699856888502
-0.0009861628059297
-0.0007694659288972
-0.0005711978883482
-0.0003502094186842
-7.384794298559427e-05
0.0002867759903892
0.0007537197088822
0.0013291775248944
0.0019880072213709
0.0026859613135457
0.0033739816863089
0.0040077865123748
0.0045530549250543
0.0049864593893289
0.0052924789488315
