bvp
0.0114440349861979
0.0129962535575032
0.0144286649301648
0.0157020427286624
0.0167696326971054
0.0175650343298912
0.0179950986057519
0.0179427154362201
0.0172846615314483
0.0159187093377113
0.0137854758650064
0.0108851222321391
0.0072929630987346
0.0031634625047445
-0.0012827483005821
-0.005781409330666
-0.0100517068058252
-0.0138264335691928
-0.016881413757801
-0.0190572999417781
-0.020272072404623
-0.0205271448940038
-0.0199045650660991
-0.018552541732788
-0.0166609920561313
-0.0144338347017765
-0.0120679009705781
-0.0097401421517133
-0.0075980219990015
-0.0057507324963808
-0.0042607244104146
-0.0031363577581942
-0.0023320370819419
-0.0017615732504054
-0.0013193554477766
-0.0008997754193842
-0.0004115180345252
0.000214384519495
0.0010227411985397
0.0020362781360745
0.003259704913944
0.004680601414293
0.0062645869329571
0.0079535581171512
0.0096732471138238
0.011346542276442
0.0129027971997857
0.0142728630453348
0.0153761710971593
0.0161129795014858
0.016363376751542
0.0159973111003637
0.0149007756263017
0.0130081884562969
0.010328272357583
0.0069597233086824
0.0030914586968719
-0.0010209325700998
-0.0050975983031094
-0.0088746342808008
-0.0121273752301931
-0.0146823590621352
-0.0164265595376491
-0.017312616109848
-0.0173604451119899
-0.0166553761810064
-0.0153373517096042
-0.0135818496346473
-0.0115775875747203
-0.0095043182373046
-0.0075140595436096
-0.0057158037088811
-0.004166841506958
-0.0028784242458641
-0.0018301571253687
-0.0009796964004635
-0.0002682437188923
0.0003726352006196
0.0010136333294212
0.0017193879466503
0.0025394316762685
0.0035033640451729
0.0046222284436225
0.0058906795457005
0.0072859209030866
0.0087676281109452
0.010281678289175
0.0117670400068163
0.0131654618307948
0.0144216967746615
0.015466958284378
0.0162049792706966
0.0165142845362424
0.0162615422159433
0.015324292704463
0.0136191919445991
0.0111269690096378
0.007909002713859
0.0041093891486525
-5.92842698097229e-05
-0.0043389066122472
-0.0084518752992153
-0.0121301570907235
-0.0151437520980834
-0.0173209384083747
-0.0185619890689849
-0.0188528783619403
-0.0182709246873855
-0.016969546675682
-0.0151471458375453
-0.0130175352096557
-0.010789530351758
-0.0086484495550394
-0.0067372256889939
-0.005144964903593
-0.0039047105237841
-0.0029978808015584
-0.0023655120749026
-0.0019234686624258
-0.0015748762525618
-0.0012181485071778
-0.0007591820321977
-0.000130321830511
0.000697758514434
0.0017209209036082
0.0029140387196093
0.004239335656166
0.0056500108912587
0.0070926542393863
0.0085109509527683
0.0098503464832901
0.0110597237944602
0.0120867677032947
0.0128668369725346
0.0133127095177769
0.0133170206099748
0.0127689484506845
0.0115735232830047
0.0096688801422715
0.0070467013865709
0.0037689660675823
-2.8995797038078308e-05
-0.0041449363343417
-0.0083236861974
-0.0122822672128677
-0.0157425925135612
-0.018466729670763
-0.0202876012772321
-0.0211252681910991
-0.0209892690181732
-0.0199723094701766
-0.0182352941483259
-0.0159844905138015
-0.0134471245110034
-0.0108494851738214
-0.0083938566967844
-0.0062365401536226
-0.0044759791344404
-0.0031499206088483
-0.0022380212321877
-0.0016719608101993
-0.0013498023618012
-0.0011497377417981
-0.000944938394241
-0.0006213447777554
-9.560662147123368e-05
0.0006737393559888
0.001688323682174
0.0029227358754724
0.0043362765572965
0.0058750733733177
0.0074685751460492
0.0090300906449556
0.0104623213410377
0.0116584673523902
0.0124982316046953
0.012852132320404
0.0125969592481851
0.0116339148953557
0.0099093206226825
0.0074352812953293
0.004299936350435
0.0006649633869528
-0.0032452021259814
-0.0071609993465244
-0.0107966177165508
-0.0138897020369768
-0.0162367820739746
-0.0177113153040409
-0.0182660613209009
-0.0179272107779979
-0.0167847368866205
-0.0149789899587631
-0.0126848090440034
-0.0100952452048659
-0.0074039660394191
-0.0047867409884929
-0.0023843548260629
-0.0002898946404457
0.0014571747742593
0.0028704334981739
0.0040067546069622
0.0049452013336122
0.0057645570486783
0.0065325638279318
0.0073069250211119
0.0081385737285017
0.0090691531077027
0.0101234326139092
0.0113062262535095
0.0126055171713233
0.0139947663992643
0.0154344644397497
0.0168740879744291
0.018252607434988
0.0194968096911907
0.0205161180347204
0.0211974587291479
0.0214090328663587
0.0210175234824419
0.0199140179902315
0.0180412605404853
0.0154171288013458
0.0121451430022716
0.0084056565538048
0.0044341357424855
0.0004941696533933
-0.0031515408772975
-0.0062688132748007
-0.0086763054132461
-0.0102630937471985
-0.0109949568286538
-0.0109094679355621
-0.0101051144301891
-0.0087308743968606
-0.006975193042308
-0.0050473152659833
-0.0031512617133557
-0.0014607375487685
-0.0001010431442409
0.0008597620762884
0.0014104989822953
0.0015908689238131
0.0014820268843322
0.0011926930164918
0.0008396623888984
0.0005265538929961
0.0003328994789626
0.000315676734317
0.000507520569954
0.0009083326440304
0.0014861572999507
0.0021906660404056
0.002966740168631
0.003761212574318
0.0045203324407339
0.005177492275834
0.0056409225799143
0.0057941912673413
0.0055138547904789
0.0046961531043052
0.003280276665464
0.001263840124011
-0.0012888573110103
-0.0042453417554497
-0.0074143395759165
-0.0105706397444009
-0.0134868137538433
-0.0159609019756317
-0.017835434526205
-0.0190040897578001
-0.0194134768098592
-0.0190683864057064
-0.0180328413844108
-0.0164209939539432
-0.014382635243237
-0.0120878890156745
-0.0097115961834788
-0.0074160899966955
-0.0053325025364756
-0.0035444300156086
-0.0020836000330746
-0.0009405047167092
-7.608090527355671e-05
0.0005727033130824
0.0010843554046005
0.0015386391896754
0.0020036753267049
0.0025298995897173
0.003149916883558
0.0038785801734775
0.0047128004953265
0.005635289940983
0.0066207442432641
0.0076404875144362
0.0086634410545229
0.0096484348177909
0.0105262212455272
0.0111848106607794
0.0114764217287302
0.011247543618083
0.0103783151134848
0.008814362809062
0.0065806009806692
0.0037812516093254
0.000592018070165
-0.0027597048319876
-0.0060238223522901
-0.0089550986886024
-0.0113372523337602
-0.0130065446719527
-0.0138719137758016
-0.0139213977381587
-0.0132139874622225
-0.0118696028366684
-0.0100569259375333
-0.0079712234437465
-0.0058110454119741
-0.0037627420388162
-0.0019845752976834
-0.0005867481231689
0.0003810282796621
0.0009290426969528
0.0011180462315678
0.0010431939736008
0.0008172807283699
0.0005577243864536
0.000376627780497
0.0003734165802597
0.0006247702986001
0.0011699148453772
0.0020028678700327
0.0030787247233092
0.0043260781094431
0.0056576668284833
0.0069773527793586
0.0081825172528624
0.0091638173907995
0.0098056253045797
0.009991779923439
0.009621562436223
0.0086322566494345
0.0070208008401095
0.0048583676107227
0.0022905645892024
-0.0004799268208444
-0.0032234084792435
-0.0057156952098011
-0.0077635012567043
-0.009219940751791
-0.009994326159358
-0.0100579336285591
-0.0094427000731229
-0.0082341087982058
-0.0065600303933024
-0.0045759817585349
-0.0024520670995116
-0.0003605615347623
0.0015422506257891
0.0031363703310489
0.0043540308251976
0.0051855645142495
0.0056697474792599
0.0058749699965119
0.005882631521672
0.0057760365307331
0.0056338561698794
0.0055278497748076
0.0055222753435373
0.005671365186572
0.0060143652372062
0.0065688900649547
0.0073253773152828
0.0082450015470385
0.0092586856335401
0.0102690178900957
0.0111579857766628
0.0117933358997106
0.0120302764698863
0.0117214359343051
0.0107468366622924
0.0090529918670654
0.006678108125925
0.0037532043643295
0.0004826174117624
-0.0028848438523709
-0.0060831480659544
-0.0088567361235618
-0.010990671813488
-0.0123360250145196
-0.0128244999796152
-0.0124678518623113
-0.0113458801060915
-0.0095970025286078
-0.0074114743620157
-0.0050118691287934
-0.0026202062144875
-0.0004292465746402
0.0014149725902825
0.0028241116087883
0.003770993091166
0.0042854030616581
0.0044447034597396
0.0043588085100054
0.0041523943655192
0.003947100136429
0.0038459063507616
0.0039255209267139
0.0042356960475444
0.0047968467697501
0.0055953320115804
0.0065837600268423
0.0076854499056935
0.0087968837469816
0.0097897155210375
0.010516608133912
0.0108236381784081
0.0105702532455325
0.0096530402079224
0.0080282976850867
0.0057274987921118
0.0028597288765013
-0.0003982596099376
-0.0038207347970455
-0.0071569811552762
-0.0101584400981664
-0.0126096550375223
-0.0143564408645033
-0.0153219075873494
-0.015510001219809
-0.014995596371591
-0.0139020914211869
-0.0123780332505702
-0.0105780586600303
-0.0086456155404448
-0.0067020170390605
-0.0048433425836265
-0.0031390287913382
-0.0016308565391227
-0.0003322483971714
0.0007712535443715
0.0017128206091001
0.002528014127165
0.0032447068952023
0.0038831955753266
0.0044597978703677
0.0049884906038641
0.0054798265919089
0.0059416498988866
0.006383029744029
0.0068138469941914
0.0072360164485871
0.0076311784796416
0.0079505452886223
0.0081122238188982
0.0080086691305041
0.0075213438831269
0.0065396153368055
0.0049843112938106
0.0028325757011771
0.0001334897242486
-0.0029908877331763
-0.0063569950871169
-0.0097424751147627
-0.0129137840121984
-0.0156499333679676
-0.0177635978907346
-0.0191223416477441
-0.0196644198149442
-0.0194024946540594
-0.018414594233036
-0.0168273895978927
-0.0147982100024819
-0.0125004462897777
-0.0101127186790108
-0.0078057455830276
-0.0057230731472373
-0.0039635994471609
-0.0025761406868696
-0.001561971148476
-0.0008772467263042
-0.0004388904199004
-0.0001374408602714
0.0001454148441553
0.0005178744904696
0.0010643163695931
0.0018393143545836
0.0028649868909269
0.0041316514834761
0.0056001981720328
0.0071994443424046
0.0088240671902894
0.0103417774662375
0.0116034485399723
0.0124522065743803
0.0127373244613409
0.0123357390984892
0.0111777354031801
0.0092675108462572
0.006690370850265
0.0036062689032405
0.000232185004279
-0.0031829816289246
-0.0063843843527138
-0.0091344397515058
-0.011236697435379
-0.0125596411526203
-0.0130496025085449
-0.0127273928374052
-0.0116750318557024
-0.010021754540503
-0.0079317092895507
-0.0055883470922708
-0.0031740125268697
-0.000849817879498
0.0012584594078361
0.0030674911104142
0.004538576118648
0.0056738639250397
0.0065095899626612
0.0071124862879514
0.0075720916502177
0.0079799387603998
0.0084085259586572
0.0089060682803392
0.0095015680417418
0.0102080348879098
0.0110233183950185
0.0119315925985574
0.0129042901098728
0.0139006609097123
0.0148669704794883
0.0157318785786628
0.0164014957845211
0.0167606435716152
0.0166860371828079
0.0160709470510482
0.0148476120084524
0.0129966605454683
0.0105503601953387
0.0075966734439134
0.0042789983563125
0.0007872604764997
-0.0026591932401061
-0.005837102420628
-0.0085468348115682
-0.0106318863108754
-0.0119900871068239
-0.0125812953338027
-0.0124305095523595
-0.011621955782175
-0.010283425450325
-0.0085661197081208
-0.00662860320881
-0.004628425464034
-0.0027148127555847
-0.0010147982975468
0.0003841910511255
0.0014447523280978
0.002178453374654
0.0026375232264399
0.0029034656472504
0.0030736837070435
0.0032460945658385
0.0035027374979108
0.0038972832262516
0.0044526741839945
0.0051699578762054
0.0060403933748602
0.0070479619316756
0.0081595638766884
0.0093158492818474
0.0104314219206571
0.0113991219550371
0.0120948404073715
0.0123843997716903
0.0121357720345258
0.0112412013113498
0.0096420738846063
0.0073445942252874
0.0044258092530071
0.0010308651253581
-0.0026398724876344
-0.006350346840918
-0.0098517583683133
-0.0129109621047973
-0.0153408590704202
-0.017020059749484
-0.0178989209234714
-0.017997246235609
-0.0173932630568742
-0.016207069158554
-0.0145867727696895
-0.012698633596301
-0.010713892057538
-0.0087895793840289
-0.0070518110878765
-0.0055864928290247
-0.0044348197989165
-0.0035922764800488
-0.0030112722888588
-0.0026123961433768
-0.0023060296662151
-0.0020110406912863
-0.0016615744680166
-0.0012094969861209
-0.000628288835287
8.57827253639698e-05
0.0009177420288324
0.0018392205238342
0.0028137844055891
0.0038025989197194
0.0047642905265092
0.0056483405642211
0.0063899396918714
0.0069084949791431
0.0071116997860372
0.0069060642272233
0.0062044789083302
0.004933170042932
0.0030520586296916
0.000580608844757
-0.0023900330998003
-0.0057021169923245
-0.0091484002768993
-0.012495738454163
-0.0155115136876702
-0.0179906636476516
-0.0197776202112436
-0.0207797344774007
-0.0209729187190532
-0.0203981008380651
-0.0191482175141572
-0.0173535384237766
-0.015172810293734
-0.0127849429845809
-0.0103727634996175
-0.0080987839028239
-0.0060815131291747
-0.0043837209232151
-0.0030153705738484
-0.0019447688246145
-0.0011107717873528
-0.0004332590615376
0.000176157336682
0.0008033877238631
0.0015235913451761
0.0023950489703565
0.0034542833454906
0.0047108996659517
0.0061420877464115
0.0076934155076742
0.0092916451394557
0.010863147675991
0.0123446602374315
0.0136817516759037
0.0148206101730465
0.0156997218728065
0.0162449087947607
0.0163696613162755
0.015984172001481
0.0150146158412098
0.0134259294718503
0.0112373959273099
0.0085294730961322
0.0054430784657597
0.0021638590842485
-0.00110614602454
-0.0041726347990334
-0.0068638352677226
-0.0090424930676817
-0.0106147984042763
-0.0115350726991891
-0.0118075767531991
-0.0114813558757305
-0.0106389261782169
-0.0093871746212244
-0.0078510642051696
-0.0061637521721422
-0.0044507374987006
-0.0028139897622168
-0.0013246107846498
-2.427445724606514e-05
0.0010704660089686
0.0019662608392536
0.0026920107193291
0.0032922788523137
0.0038180081173777
0.0043213628232479
0.0048522185534238
0.0054514976218342
0.0061436207033693
0.0069353631697595
0.0078206481412053
0.0087833078578114
0.0097986692562699
0.0108389612287282
0.0118747316300868
0.0128670735284686
0.0137619003653526
0.0144905634224414
0.0149706844240427
0.0151070402935147
0.0147966360673308
0.0139424838125705
0.0124741271138191
0.0103664072230458
0.0076528917998075
0.0044321827590465
0.0008624691981822
-0.002856355626136
-0.0065046679228544
-0.0098614944145083
-0.0127257024869322
-0.0149441817775368
-0.0164323728531599
-0.017174681648612
-0.0172122549265623
-0.016631456092
-0.0155524220317602
-0.0141132827848196
-0.0124568287283182
-0.0107211833819746
-0.0090279085561633
-0.0074686110019683
-0.0060968128964304
-0.0049305828288197
-0.0039604501798748
-0.0031512968707829
-0.0024451573844999
-0.0017772181890904
-0.0010944580426439
-0.0003614127635955
0.0004435632145032
0.0013318444835022
0.0023066990543156
0.0033642621710896
0.004492781125009
0.0056723994202911
0.0068745957687497
0.0080628050491213
0.0091986311599612
0.0102492850273847
0.0111926849931478
0.0120203122496604
0.0127290906384587
0.0132989306002855
0.0136725483462214
0.0137527212500572
0.0134163927286863
0.0125415585935115
0.0110391052439808
0.0088777057826519
0.0060983896255493
0.0028184021357446
-0.0007807416841387
-0.0044797398149967
-0.0080504640936851
-0.0112782269716262
-0.0139785688370466
-0.0160104632377624
-0.017287353053689
-0.0177870132029056
-0.0175539795309305
-0.0166898351162672
-0.0153346946462988
-0.0136472471058368
-0.0117887472733855
-0.0099091967567801
-0.0081351632252335
-0.0065617533400654
-0.0052474741823971
-0.0042108874768018
-0.0034303863067179
-0.0028491667471826
-0.0023860330693423
-0.0019478669855743
-0.0014435824705287
-0.0008034484926611
5.403999239206314e-06
0.0009801636915653
0.0020944455172866
0.0033085148315876
0.0045764585956931
0.0058525423519313
0.0070956125855445
0.0082730278372764
0.0093632545322179
0.0103538427501916
0.0112380748614668
0.0120110940188169
0.0126637937501072
0.0131779620423913
0.0135196475312113
0.0136278793215751
0.0134109603241086
0.0127617483958601
0.0115850651636719
0.0098234973847866
0.0074777929112315
0.004618763923645
0.0013840969186276
-0.0020383074879646
-0.0054355557076632
-0.0085963252931833
-0.0113306194543838
-0.0134852090850472
-0.0149561241269111
-0.0156928747892379
-0.0156993325799703
-0.0150374993681907
-0.0138259129598736
-0.0122250663116574
-0.0104133356362581
-0.0085620293393731
-0.0068166381679475
-0.0052838246338069
-0.0040245312266051
-0.0030564395710825
-0.0023599900305271
-0.0018829796463251
-0.0015482744202017
-0.0012661884538829
-0.0009469871874898
-0.0005097424145787
0.0001092194579541
0.0009423824958503
0.0019803701434284
0.0031784565653651
0.0044741765595972
0.0058028195053339
0.0071073081344366
0.0083411270752549
0.0094683421775698
0.010465526022017
0.0113199166953563
0.0120209585875272
0.0125499125570058
0.0128715261816978
0.0129326190799474
0.0126690939068794
0.0120127703994512
0.0108937434852123
0.0092515228316187
0.0070619187317788
0.004363059066236
0.0012643249938264
-0.0020627961494028
-0.005407772026956
-0.008550857193768
-0.0112910326570272
-0.0134676061570644
-0.0149730388075113
-0.0157579090446233
-0.0158310756087303
-0.0152525892481207
-0.014118380844593
-0.0125473979860544
-0.0106784859672188
-0.0086670983582735
-0.0066718589514493
-0.0048324996605515
-0.0032478175126016
-0.0019651018083095
-0.0009831374045461
-0.000261845299974
0.0002657433506101
0.0006800796836614
0.0010610090103
0.0014777982141822
0.0019868500530719
0.0026319762691855
0.0034425598569214
0.0044294754043221
0.0055785486474633
0.0068474500440061
0.0081745125353336
0.0094933211803436
0.0107416696846485
0.0118657164275646
0.0128206312656402
0.0135651202872395
0.0140530401840806
0.0142256701365113
0.0140082594007253
0.0133181121200323
0.0120838861912488
0.0102693615481257
0.0078970296308398
0.0050582061521708
0.0018986421637237
-0.0014055598294362
-0.0046659456565976
-0.0076970104128122
-0.0103309005498886
-0.0124294096603989
-0.0138952592387795
-0.0146809443831443
-0.0147913433611392
-0.0142806945368647
-0.0132439527660608
-0.0118040144443511
-0.0100990086793899
-0.0082684587687253
-0.0064386273734271
-0.0047151362523436
-0.003183233551681
-0.0019049707334488
-0.0009108878439292
-0.000194983324036
0.0002821487141773
0.0005849453154951
0.0007935430621728
0.0009936937130987
0.0012637330219149
0.0016621393151581
0.0022230830509215
0.0029586409218609
0.0038606631569564
0.0049033984541893
0.0060504782013595
0.0072600012645125
0.0084832897409796
0.00966418068856
0.0107398685067892
0.011638312600553
0.0122757973149418
0.0125594716519117
0.0123944012448191
0.0116936918348073
0.010392602533102
0.0084674255922436
0.0059524462558329
0.0029466745909303
-0.0003921745810657
-0.0038642806466668
-0.0072489604353904
-0.0103284819051623
-0.0129160676151514
-0.0148798208683729
-0.0161489564925432
-0.0167061947286129
-0.0165821984410285
-0.0158522725105285
-0.0146276587620377
-0.0130433421581983
-0.0112449219450354
-0.0093748392537236
-0.0075586410239338
-0.0058930753730237
-0.0044400305487215
-0.0032232352532446
-0.0022258632816374
-0.0014006535056978
-0.0006918020080775
-4.8646703362464905e-05
0.000573158962652
0.0012112148106098
0.0018944091862067
0.0026414964813739
0.0034589194692671
0.0043409480713307
0.0052747596055269
0.0062456373125314
0.0072378301993012
0.008233131840825
0.0092111686244606
0.0101501513272523
0.011023212224245
0.0117861479520797
0.0123610403388738
0.0126329082995653
0.0124654611572623
0.0117263486608862
0.0103173963725566
0.0082038901746273
0.0054320013150572
0.0021304248366504
-0.0015032773371785
-0.005230136681348
-0.0088011864572763
-0.0119819957762956
-0.0145728597417473
-0.0164255686104297
-0.017451474443078
-0.0176284089684486
-0.0170096307992935
-0.0157194603234529
-0.0139303961768746
-0.0118356235325336
-0.0096263289451599
-0.0074722794815897
-0.0055066253989934
-0.0038177457172423
-0.0024474652018398
-0.001395191065967
-0.0006267419084906
-8.526770398020744e-05
0.0003000698052346
0.0006108051165938
0.000936500262469
0.0013641840778291
0.001960348105058
0.0027584068011492
0.0037590060383081
0.0049351304769515
0.0062375576235353
0.0076060844585299
0.008982652798295
0.0103161539882421
0.0115615855902433
0.0126779563724994
0.0136209093034267
0.0143311191350221
0.0147258229553699
0.0147033501416444
0.0141647653654217
0.013036704622209
0.0112811252474784
0.008903213776648
0.0059668915346264
0.0026040414813905
-0.000994894769974
-0.0046028844080865
-0.0079826982691884
-0.0109139140695333
-0.0132155520841479
-0.0147634604945778
-0.0155012104660272
-0.0154392085969448
-0.0146462023258209
-0.0132399965077638
-0.0113730076700448
-0.0092143658548593
-0.0069385604001581
-0.0047174547798931
-0.0027059521526098
-0.0010215109214186
0.0002726870588958
0.0011721192859113
0.0017228531651198
0.0020067424047738
0.0021270993165671
0.0021946826018393
0.0023101188708096
0.0025501884520053
0.0029643999878317
0.0035772423725575
0.0043924269266426
0.0053956736810505
0.0065536792390048
0.0078152678906917
0.0091192666441202
0.0104032484814524
0.0116057340055704
0.0126612018793821
0.0134906340390443
0.0139936609193682
0.0140515994280576
0.013542165979743
0.0123599367216229
0.0104416711255908
0.0077923918142914
0.0045016780495643
0.0007427278906106
-0.0032495982013642
-0.007215435616672
-0.0109039517119526
-0.0140950633212924
-0.0166130755096673
-0.0183381736278533
-0.0192154366523027
-0.0192584060132503
-0.018543979153037
-0.0171984173357486
-0.0153817981481552
-0.0132749881595373
-0.0110658397898077
-0.0089326780289411
-0.0070230043493211
-0.0054321461357176
-0.0041976575739681
-0.0033126669004559
-0.0027412623167037
-0.0024235816672444
-0.0022758753038942
-0.0021961908787488
-0.0020768670365214
-0.0018194927833974
-0.0013504405505955
-0.0006310520693659
0.0003439025022089
0.0015549981035292
0.0029656332917511
0.0045258016325533
0.0061763375997543
0.0078542120754718
0.009488321840763
0.0109831281006336
0.0122063960880041
0.0129951033741235
0.0131795406341552
0.01261568069458
0.0112146502360701
0.0089648943394422
0.0059445546939969
0.0023200290743261
-0.0016689491458237
-0.0057341773062944
-0.0095719266682863
-0.0128980167210102
-0.0154752917587757
-0.0171319376677274
-0.0177766811102628
-0.0174095183610916
-0.0161188431084156
-0.0140651455149054
-0.0114572579041123
-0.0085258381441235
-0.0055003687739372
-0.0025881882756948
4.734285175800324e-05
0.002302355132997
0.0041371309198439
0.0055704694241285
0.0066645853221416
0.0075067803263664
0.0081949811428785
0.0088281473144888
0.009496146813035
0.0102659976109862
0.0111720152199268
0.0122162699699401
0.0133757879957556
0.0146118979901075
0.015881098806858
0.0171442497521638
0.0183679442852735
0.0195184499025344
0.0205519199371337
0.0214034784585237
0.0219797417521476
0.0221581999212503
0.0217988826334476
0.0207705553621053
0.0189786329865455
0.016384731978178
0.0130206979811191
0.0089968722313642
0.0045002941042184
-0.0002191701205447
-0.0048741223290562
-0.0091709978878498
-0.0128420535475015
-0.0156739261001348
-0.01752744987607
-0.0183485746383667
-0.0181720834225416
-0.0171144399791955
-0.0153541360050439
-0.0131059270352125
-0.0105983186513185
-0.0080563435330986
-0.0056826807558536
-0.0036350849550217
-0.0020079561509191
-0.0008270414546132
-5.87007962167263e-05
0.0003745858557522
0.0005787367699667
0.0006714955670759
0.0007667578756809
0.0009633072768338
0.0013366801431402
0.001932576065883
0.0027631265111267
0.0038095717318356
0.0050294836983084
0.0063623753376305
0.0077346642501652
0.0090652266517281
0.0102672185748815
0.0112445140257477
0.0118874423205852
0.0120746027678251
0.0116810780018568
0.0105925863608717
0.0087286289781332
0.0060679279267787
0.0026657464914023
-0.0013395827263593
-0.0057320101186633
-0.0102355554699897
-0.0145461484789848
-0.0183751340955495
-0.0214872080832719
-0.0237181242555379
-0.0249787122011184
-0.0252563059329986
-0.0246118362993001
-0.0231689661741256
-0.0210975687950849
-0.0185943972319364
-0.0158644821494817
-0.0131039414554834
-0.0104829519987106
-0.008133084513247
-0.0061381608247756
-0.0045232502743601
-0.0032517344225198
-0.0022423916961997
-0.0013958953786641
-0.0006140025798231
0.0001905432436615
0.0010889277327805
0.0021330891177058
0.0033514751121401
0.0047445241361856
0.0062845200300216
0.0079229539260268
0.0096027962863445
0.0112679582089185
0.0128669012337923
0.0143531775102019
0.0156802907586097
0.0167839843779802
0.0175601914525032
0.0178624801337718
0.017525527626276
0.0163996219635009
0.014387285336852
0.0114765791222453
0.0077598118223249
0.0034316659439355
-0.0012322103139013
-0.0059101125225424
-0.0102734314277768
-0.0140246851369738
-0.0169288534671068
-0.0188309401273727
-0.0196605939418077
-0.0194333028048276
-0.0182515252381563
-0.0162939466536045
-0.0137880332767963
-0.010979501530528
-0.0081074489280581
-0.0053814966231584
-0.002960629761219
-0.00094232452102
0.0006349065806716
0.0017858714563772
0.0025747087784111
0.0031046466901898
0.0035014848690479
0.0038973733317106
0.0044136922806501
0.0051412554457783
0.0061234715394675
0.0073527516797184
0.0087834242731332
0.0103499786928296
0.0119793284684419
0.0135993687435984
0.0151482094079256
0.016576163470745
0.0178320854902267
0.0188413653522729
0.0194926913827657
0.0196432061493396
0.0191376414149999
0.0178374517709016
0.0156575012952089
0.0125946542248129
0.0087364772334694
0.0042570903897285
-0.0005955339875072
-0.005524231120944
-0.0102155301719903
-0.0143740233033895
-0.0177532844245433
-0.0201764721423387
-0.0215470846742391
-0.0218550190329551
-0.0211738031357526
-0.0196486171334981
-0.0174812022596597
-0.0149069158360362
-0.0121623408049345
-0.0094578992575407
-0.0069640586152672
-0.0048046768642961
-0.0030516313854604
-0.0017204460455104
-0.000771029095631
-0.0001183628119179
0.0003508448426146
0.000762146722991
0.0012381207197904
0.0018821279518306
0.0027626329101622
0.0039058686234056
0.005300389137119
0.0069055990315973
0.0086607066914439
0.0104947267100214
0.0123321367427706
0.0140900518745183
0.015668723732233
0.0169419832527637
0.0177555717527866
0.0179387666285038
0.0173298940062522
0.0158072467893362
0.0133159346878528
0.0098887402564287
0.0056571015156805
0.0008457819931209
-0.004248262848705
-0.0092871570959687
-0.0139268925413489
-0.01785359531641
-0.0208207909017801
-0.0226773917675018
-0.0233758110553026
-0.0229659788310527
-0.0215849056839942
-0.0194385852664709
-0.0167738925665617
-0.0138473743572831
-0.0108967274427413
-0.0081196688115596
-0.0056613087654113
-0.0036060567945241
-0.0019753894302994
-0.0007320898585021
0.0002116830437444
0.0009766654111444
0.0016876792069524
0.0024494028184562
0.003338785842061
0.0044062491506338
0.0056740981526672
0.007134236395359
0.0087516484782099
0.0104736983776092
0.0122408475726842
0.013993876054883
0.0156763214617967
0.0172312948852777
0.0185905359685421
0.0196622777730226
0.0203282460570335
0.020446928218007
0.0198601111769676
0.0184146761894226
0.0160026494413614
0.012601101770997
0.0082953898236155
0.0032815127633512
-0.0021518957801163
-0.0076575237326323
-0.0128711462020874
-0.017451474443078
-0.0211126897484064
-0.0236519537866115
-0.0249708257615566
-0.0250808019191026
-0.0240885559469461
-0.0221743956208229
-0.0195767357945442
-0.0165706947445869
-0.0134317129850387
-0.01040321867913
-0.0076787620782852
-0.0053873602300882
-0.0035838943440467
-0.0022525147069245
-0.0013167664874345
-0.000654625473544
-0.0001222796272486
0.0004206283483654
0.0010920972563326
0.0019768648780882
0.0031232896726578
0.0045416378416121
0.0062029352411627
0.0080467965453863
0.0099953785538673
0.0119646312668919
0.0138725470751523
0.0156443528831005
0.0172120835632085
0.0185060054063797
0.0194391924887895
0.0198946930468082
0.0197251681238412
0.0187713503837585
0.0168979801237583
0.0140337366610765
0.0102037619799375
0.0055465782061219
0.0003034025430679
-0.005217389203608
-0.0106791807338595
-0.0157469697296619
-0.0201146136969327
-0.0235335379838943
-0.0258354842662811
-0.0269450023770332
-0.0268817618489265
-0.0257520824670791
-0.0237323231995105
-0.02104770578444
-0.017949141561985
-0.0146889006718993
-0.0114945005625486
-0.008546557277441
-0.0059694540686905
-0.0038325432687997
-0.0021516433916985
-0.0008895985665731
3.672100137919188e-05
0.0007430737605318
0.00136227265466
0.0020257399883121
0.002845149487257
0.0038989023305475
0.0052249287255108
0.006820700597018
0.008649131283164
0.0106506245210766
0.0127592608332633
0.0149103477597236
0.0170320533215999
0.0190328806638717
0.0207967571914196
0.0221842676401138
0.0230366587638854
0.0231835581362247
0.0224596560001373
0.0207335129380226
0.0179402790963649
0.0141087416559457
0.0093767289072275
0.0039869076572358
-0.0017375773750245
-0.0074277431704103
-0.0127061977982521
-0.0172278191894292
-0.0207220427691936
-0.0230244938284158
-0.0240865759551525
-0.0239647384732961
-0.0227998234331607
-0.0207945257425308
-0.0181903466582298
-0.0152442110702395
-0.0122049627825617
-0.009290556423366
-0.0066694971174001
-0.0044488487765192
-0.0026708755176514
-0.0013181907124817
-0.0003212135634385
0.000430311250966
0.0010643925052136
0.0017016311176121
0.0024417196400463
0.0033582784235477
0.0044939364306628
0.0058578653261065
0.0074288779869675
0.0091627296060323
0.0110027408227324
0.0128886345773935
0.0147595489397645
0.0165539495646953
0.0182063579559326
0.0196414571255445
0.0207687001675367
0.0214739888906478
0.02161081507802
0.0210081301629543
0.0195013619959354
0.0169729962944984
0.0133911464363336
0.0088376849889755
0.0035147853195667
-0.0022727972827851
-0.0081537887454032
-0.0137373302131891
-0.01866015791893
-0.0226235538721084
-0.025416487827897
-0.0269270688295364
-0.0271436963230371
-0.0261498466134071
-0.0241185389459133
-0.0213011242449283
-0.0180004350841045
-0.0145315527915954
-0.0111806411296129
-0.0081716896966099
-0.0056493058800697
-0.0036754901520907
-0.0022352314554154
-0.0012504789046943
-0.0005978113040328
-0.0001266518374904
0.0003202749649062
0.0008875065250322
0.0016917086904868
0.0028083473443984
0.0042600585147738
0.0060135931707918
0.0079902047291398
0.0100861424580216
0.0121945366263389
0.0142198922112584
0.0160853266716003
0.0177356395870447
0.0191305987536907
0.0202269740402698
0.020958337932825
0.0212207045406103
0.0208719726651906
0.0197523441165685
0.0177221558988094
0.0147036081179976
0.0107121672481298
0.0058687962591648
0.0003935154527425
-0.005412574391812
-0.0111951474100351
-0.0165854655206203
-0.0212417971342802
-0.0248848963528871
-0.0273256674408912
-0.0284805968403816
-0.0283721573650836
-0.0271188095211982
-0.0249198786914348
-0.0220353100448846
-0.0187563747167587
-0.0153720863163471
-0.0121416868641972
-0.0092727122828364
-0.0069012437015771
-0.0050804056227207
-0.0037843773607164
-0.0029245908372104
-0.002368742134422
-0.0019610379822552
-0.0015451727667823
-0.0009854551171883
-0.0001812677364796
0.0009260330698452
0.0023519138339906
0.0040725888684391
0.0060356175526976
0.0081716068089008
0.0103985629975795
0.0126233752816915
0.0147492457181215
0.0166834089905023
0.0183336250483989
0.0195949673652648
0.0203377678990364
0.0204085707664489
0.0196514893323183
0.0179415829479694
0.0152182001620531
0.0115129956975579
0.0069634858518838
0.0018077264539897
-0.0036343401297926
-0.0089928656816482
-0.0138939395546913
-0.0180070828646421
-0.0210808999836444
-0.0229632891714572
-0.02360625192523
-0.023058021441102
-0.0214498620480299
-0.018981410190463
-0.0159018728882074
-0.0124851996079087
-0.0090014226734638
-0.0056894225999712
-0.0027365474961698
-0.0002641505561769
0.0016827778890728
0.0031328853219747
0.0041684876196086
0.0049025719054043
0.0054609500803053
0.0059662088751792
0.0065266992896795
0.0072311870753765
0.0081419376656413
0.0092875137925148
0.0106632262468338
0.0122379828244447
0.0139600485563278
0.0157612673938274
0.0175633914768695
0.0192871764302253
0.0208607986569404
0.022217659279704
0.0232774224132299
0.0239227022975683
0.0239929743111133
0.0233039315789937
0.0216832160949707
0.0190110802650451
0.0152576370164752
0.0105058290064334
0.0049535483121871
-0.0011018377263098
-0.007292513269931
-0.0132192317396402
-0.0184944458305835
-0.0227839462459087
-0.0258401110768318
-0.0275252424180507
-0.0278272796422243
-0.0268596746027469
-0.0248387586325407
-0.0220486503094434
-0.0188038349151611
-0.015412101522088
-0.012143874540925
-0.0092115923762321
-0.0067567834630608
-0.0048441463150084
-0.0034628976136446
-0.0025371096562594
-0.0019442986231297
-0.0015342921251431
-0.0011459228117018
-0.0006288948934525
0.0001314405817538
0.0011997764231637
0.0025892979465425
0.0042666532099246
0.0061634108424186
0.0081919133663177
0.0102595640346407
0.0122808013111352
0.0141864493489265
0.0159257110208272
0.0174571964889764
0.0187332015484571
0.0196843855082988
0.0202090740203857
0.0201735831797122
0.0194252748042345
0.0178148485720157
0.0152311334386467
0.0116438111290335
0.0071347597986459
0.0019042096100747
-0.0037487386725842
-0.0094621926546096
-0.0148531440645456
-0.019559284672141
-0.0232786908745765
-0.0258025992661714
-0.0270337909460067
-0.0269860420376062
-0.0257691964507102
-0.0235698539763689
-0.0206333454698324
-0.0172446258366107
-0.0137026440352201
-0.01028748229146
-0.0072265183553099
-0.0046703834086656
-0.0026849615387618
-0.0012560468167066
-0.0003027888014912
0.0003025892656296
0.0007129970472306
0.0010850245598703
0.0015582728665322
0.0022391965612769
0.0031955908052623
0.0044589955359697
0.0060259182937443
0.0078578693792223
0.0098860654979944
0.012022566050291
0.0141744408756494
0.0162541437894105
0.0181830283254385
0.0198873728513717
0.0212874729186296
0.0222852081060409
0.0227540284395217
0.0225385520607233
0.0214735753834247
0.0194184016436338
0.0162960551679134
0.0121302250772714
0.0070654656738042
0.0013568550348281
-0.0046629449352622
-0.0106208892539143
-0.0161412209272384
-0.0208860971033573
-0.0245901048183441
-0.0270784385502338
-0.0282723698765039
-0.0281901210546493
-0.0269428305327892
-0.0247218757867813
-0.0217775385826826
-0.0183926485478878
-0.0148533806204795
-0.0114166168496012
-0.0082823717966675
-0.0055830385535955
-0.0033842767588794
-0.0016875406727194
-0.000436273869127
0.000470747705549
0.001162709435448
0.0017806338146328
0.0024616268929094
0.0033217589370906
0.0044397227466106
0.0058494536206126
0.0075445957481861
0.0094881560653448
0.0116230137646198
0.0138806961476802
0.016183253377676
0.0184412486851215
0.020557515323162
0.0224347654730081
0.0239737350493669
0.0250596813857555
0.0255529452115297
0.0252947006374597
0.0241265669465065
0.0219211652874946
0.0186170861124992
0.014246767386794
0.0089491177350282
0.0029658172279596
-0.00337566412054
-0.0096905967220664
-0.0155796073377132
-0.0206806100904941
-0.0247096046805381
-0.0274791494011878
-0.0289052091538906
-0.0290096998214721
-0.0279139634221792
-0.0258210282772779
-0.0229911990463733
-0.0197138413786888
-0.016276191920042
-0.0129344835877418
-0.0098929889500141
-0.0072912508621811
-0.0051951594650745
-0.0035925528500229
-0.002404190134257
-0.0015101330354809
-0.0007753996178507
-6.909528747200966e-05
0.0007189530879259
0.001668905140832
0.0028317822143435
0.0042321910150349
0.00586769124493
0.0077096289023756
0.0097105307504534
0.0118120443075895
0.0139470659196376
0.0160432644188404
0.0180332567542791
0.0198628269135952
0.021484475582838
0.0228356830775737
0.0238168872892856
0.0242818221449852
0.0240454711019992
0.0229116063565015
0.0207143407315015
0.0173620879650115
0.0128716705366969
0.0073843831196427
0.0011597294360399
-0.0054513970389962
-0.0120457168668508
-0.0182111524045467
-0.0235673170536756
-0.0277989506721496
-0.0306864529848098
-0.0321296453475952
-0.032152947038412
-0.0308930184692144
-0.0285772997885942
-0.0254955142736434
-0.0219651199877262
-0.0182957984507083
-0.0147594911977648
-0.0115672424435615
-0.0088527631014585
-0.0066675757989287
-0.0049860877916216
-0.0037168958224356
-0.0027220752090215
-0.0018400754779577
-0.0009093442931771
0.0002062055282294
0.0015985164791345
0.0033105290494859
0.0053407307714223
0.0076517122797667
0.0101790651679039
0.012838814407587
0.0155359953641891
0.0181748755276203
0.020669337362051
0.0229529961943626
0.0249824076890945
0.026728430762887
0.0281620919704437
0.029238149523735
0.0298740044236183
0.0299327839165925
0.0292290542274713
0.0275641698390245
0.0247779004275798
0.0207964815199375
0.0156656298786401
0.0095660258084535
0.0028086192905902
-0.0041955760680139
-0.0109872929751873
-0.0171179547905921
-0.0222034938633441
-0.0259646698832511
-0.0282475352287292
-0.0290264636278152
-0.0284000989049673
-0.0265801604837179
-0.0238622538745403
-0.020583439618349
-0.0170810557901859
-0.0136568928137421
-0.0105502596125006
-0.0079225786030292
-0.0058492058888077
-0.0043204179964959
-0.0032555274665355
-0.0025241163093596
-0.0019689118489623
-0.0014275615103542
-0.0007467474788427
0.0002104726154357
0.0015525405760854
0.003341085743159
0.0055800406262278
0.0082187689840793
0.01116459723562
0.0143002737313508
0.0175009816884994
0.0206474624574184
0.023635771125555
0.0263845100998878
0.0288392137736082
0.0309702232480049
0.0327633209526538
0.0342050418257713
0.0352637842297554
0.0358735509216785
0.0359266996383667
0.0352783240377903
0.0337694138288497
0.0312684550881385
0.0277162790298461
0.0231589563190937
0.0177573598921298
0.0117696747183799
0.0055159665644168
-0.0006633717566728
-0.0064469240605831
-0.011563547886908
-0.0158131942152977
-0.0190758295357227
-0.0213116779923439
-0.0225573815405368
-0.0229202136397361
-0.0225725397467613
-0.021738177165389
-0.020660987123847
-0.0195676628500223
-0.0186409410089254
-0.0180042386054992
-0.0177168101072311
-0.017777556553483
-0.0181315168738365
-0.0186805929988622
-0.0193005800247192
-0.019859654828906
-0.0202346201986074
-0.0203224793076515
-0.0200470238924026
-0.0193677246570587
-0.0182915646582841
-0.0168729741126298
-0.015198471955955
-0.0133691215887665
-0.0114845614880323
-0.0096271205693483
