bvp
-0.0247873049229383
-0.0247001033276319
-0.0238679312169551
-0.0224137902259826
-0.0204947851598262
-0.0182815100997686
-0.015939213335514
-0.0136143444105982
-0.0114282881841063
-0.0094730453565716
-0.0078037488274276
-0.0064341109246015
-0.005340423900634
-0.0044691832736134
-0.0037449330557137
-0.0030816122889518
-0.0023952601477503
-0.0016108255367726
-0.0006643123924732
0.0004927818663418
0.0018867601174861
0.0035191599745303
0.0053697754628956
0.007397583220154
0.0095351990312337
0.0116838803514838
0.0137151358649134
0.0154773630201816
0.0168063100427389
0.0175408273935318
0.0175445210188627
0.0167285986244678
0.01506800763309
0.0126084852963685
0.0094664618372917
0.0058226687833666
0.0019096359610557
-0.0020052795298397
-0.0056404275819659
-0.008727902546525
-0.0110483365133404
-0.012458074837923
-0.0128983370959758
-0.0123907579109072
-0.0110252611339092
-0.0089432271197438
-0.0063194744288921
-0.0033450862392783
-0.0002100309357047
0.0029154326766729
0.0058958851732313
0.0086365798488259
0.0110816769301891
0.0132121546193957
0.0150446323677897
0.0166224837303161
0.0179979279637336
0.0192169193178415
0.0203141346573829
0.0213130004703998
0.0222244076430797
0.0230474155396223
0.0237764939665794
0.0244090221822261
0.0249450765550136
0.0253810286521911
0.0257022120058536
0.0258765891194343
0.0258495137095451
0.025542639195919
0.024860231205821
0.0236991234123706
0.0219599027186632
0.01956507563591
0.0164823364466428
0.0127415303140878
0.0084402728825807
0.0037399779539555
-0.0011465060524642
-0.0059737553820014
-0.0104868840426206
-0.0144454827532172
-0.0176436975598335
-0.0199272558093071
-0.0212098136544227
-0.0214827843010425
-0.0208113491535186
-0.0193221624940633
-0.0171930380165576
-0.0146409999579191
-0.0119011653587222
-0.0091987112537026
-0.0067204614169895
-0.0045939097180962
-0.0028803260065615
-0.0015814395155757
-0.0006535754073411
-2.423231489956379e-05
0.0003911389503628
0.0006754274945706
0.0009014301467686
0.0011273066047579
0.0013941233046352
0.0017224219627678
0.002107941545546
0.0025250094477087
0.0029393027070909
0.0033173873089253
0.003626222256571
0.0038295593112707
0.0038863434456288
0.0037485975772142
0.0033571277745068
0.0026386990211904
0.0015122876502573
-9.242817759513856e-05
-0.0022112471051514
-0.0048241950571537
-0.0078438548371195
-0.0111217908561229
-0.0144708920270204
-0.0176897831261158
-0.0205822829157114
-0.0229749307036399
-0.0247316733002662
-0.0257613137364387
-0.026022071018815
-0.0255288518965244
-0.0243556536734104
-0.0226244535297155
-0.0204842165112495
-0.0180874150246381
-0.0155698619782924
-0.0130359577015042
-0.0105474656447768
-0.0081215193495154
-0.0057432088069617
-0.0033835507929325
-0.001013676635921
0.0013876222074031
0.0038340094033628
0.006334492471069
0.0088932951912283
0.0115073267370462
0.0141642466187477
0.0168406683951616
0.0194988753646612
0.0220852121710777
0.0245351903140544
0.0267850924283266
0.0287827141582965
0.0304863210767507
0.0318502746522426
0.0328111313283443
0.0332862436771392
0.0331827811896801
0.0324126780033111
0.0309129524976015
0.0286674052476882
0.0257223714143037
0.0221915058791637
0.0182492081075906
0.0141141414642333
0.0100229689851403
0.0061988392844796
0.0028251502662897
3.16789373755455e-05
-0.0021090200170874
-0.0035824500955641
-0.0044326120987534
-0.0047559821978211
-0.0046848449856042
-0.0043651321902871
-0.0039379876106977
-0.0035269213840365
-0.0032261777669191
-0.0030905585736036
-0.0031318087130784
-0.0033254362642765
-0.0036244299262762
-0.0039705764502286
-0.0042994357645511
-0.0045430669561028
-0.0046393619850277
-0.0045492202043533
-0.0042666606605052
-0.0038116127252578
-0.0032150242477655
-0.0025115115568041
-0.0017415452748537
-0.0009530317038297
-0.0001979041844606
0.000469833612442
0.0009901616722345
0.0012903250753879
0.0012808050960302
0.0008593704551458
-7.266923785209656e-05
-0.0015859324485063
-0.0037039443850517
-0.0063980696722865
-0.0095886792987585
-0.0131445825099945
-0.0168853290379047
-0.0205932389944791
-0.0240356437861919
-0.0269928388297557
-0.0292840376496315
-0.0307865999639034
-0.031448345631361
-0.0312905982136726
-0.0304002538323402
-0.0289130546152591
-0.0269902311265468
-0.024794153869152
-0.0224736090749502
-0.020159862935543
-0.0179607737809419
-0.0159498769789934
-0.014163396321237
-0.0126068741083145
-0.0112600428983569
-0.0100800888612866
-0.0090100755915045
-0.0079886196181178
-0.0069559877738356
-0.005860342644155
-0.0046658762730658
-0.0033577652648091
-0.001940184039995
-0.0004297671839594
0.0011475263163447
0.0027523718308657
0.0043269800953567
0.0057923048734664
0.0070464424788951
0.0079678138718009
0.0084266690537333
0.0083042504265904
0.007515849545598
0.0060304356738924
0.0038815392181277
0.0011695120483636
-0.0019442269112914
-0.0052521922625601
-0.0085229333490133
-0.0115250367671251
-0.0140537116676568
-0.0159569233655929
-0.0171486362814903
-0.0176062081009149
-0.0173589661717414
-0.0164760388433933
-0.0150605738162994
-0.0132457837462425
-0.0111836772412061
-0.0090281693264842
-0.0069173574447631
-0.0049575129523873
-0.0032129203900694
-0.0017043137922883
-0.0004120012745261
0.0007206303998827
0.00177588686347
0.0028390744701027
0.0039794174954295
0.0052449284121394
0.0066653657704591
0.0082555180415511
0.0100154289975762
0.0119290137663483
0.0139637421816587
0.016072416678071
0.0181953962892293
0.0202593933790922
0.0221736151725053
0.0238257683813571
0.0250814668834209
0.0257951151579618
0.0258315689861774
0.0250892974436283
0.0235219504684209
0.0211561191827058
0.0180984530597925
0.0145292580127716
0.0106846876442432
0.0068307556211948
0.0032327072694897
0.0001253429800271
-0.0023088380694389
-0.0039520850405097
-0.0047578755766153
-0.0047532506287097
-0.0040331725031137
-0.0027431473135948
-0.0010576620697975
0.0008358974009752
0.0027520814910531
0.0045275669544935
0.0060400161892175
0.0072172246873378
0.0080389389768242
0.0085346708074212
0.0087759308516979
0.0088622663170099
0.0089030209928751
0.008999515324831
0.0092332065105438
0.0096594979986548
0.0103054782375693
0.0111718587577342
0.0122343255206942
0.0134420292451977
0.0147196631878614
0.0159741286188364
0.0170984808355569
0.0179710444062948
0.0184562671929597
0.018412921577692
0.0177095048129558
0.016246385872364
0.0139803420752286
0.0109402667731046
0.007230244576931
0.0030246139504015
-0.0014452878385782
-0.0059141051024198
-0.0101136937737464
-0.013808362185955
-0.0168223083019256
-0.0190511345863342
-0.0204624980688095
-0.0210905373096466
-0.0210218988358974
-0.0203759912401437
-0.0192872397601604
-0.0178916733711957
-0.0163161158561706
-0.0146688688546419
-0.0130310719832777
-0.0114514185115695
-0.0099471164867281
-0.0085102366283535
-0.0071206390857696
-0.0057618161663413
-0.0044275848194956
-0.0031176656484603
-0.0018298057839274
-0.0005535595118999
0.0007297098636627
0.0020417626947164
0.0034039379097521
0.0048340833745896
0.00634077610448
0.0079177133738994
0.0095373261719942
0.0111396312713623
0.0126238437369465
0.0138547457754611
0.0146807162091135
0.0149531280621886
0.0145480055361986
0.0133920134976506
0.0114837978035211
0.0089022405445575
0.0058006066828966
0.0023911951575428
-0.0010740468278527
-0.0043295864015817
-0.0071295937523245
-0.0092784678563475
-0.0106511311605572
-0.0112019404768943
-0.0109610483050346
-0.0100202243775129
-0.0085183456540107
-0.0066309543326497
-0.0045538521371781
-0.0024774516932666
-0.0005624392069876
0.001075314823538
0.0023707980290055
0.0033085129689425
0.0039167692884802
0.0042615393176674
0.0044371495023369
0.0045509589836001
0.004706953652203
0.0049932310357689
0.005474891513586
0.0061916499398648
0.0071543343365192
0.0083377882838249
0.0096807237714529
0.0110973641276359
0.0124888764694333
0.0137470457702875
0.0147535298019647
0.0153800444677472
0.0154952285811305
0.0149796595796942
0.0137448357418179
0.0117519060149788
0.0090280286967754
0.0056753885000944
0.0018671662546694
-0.002167819533497
-0.0061696153134107
-0.0098805483430624
-0.0130790015682578
-0.0156019385904073
-0.0173528380692005
-0.0183000117540359
-0.01847187243402
-0.0179503355175256
-0.0168602894991636
-0.0153545327484607
-0.0135953519493341
-0.01173762883991
-0.0099171390756964
-0.0082414476200938
-0.0067807422019541
-0.0055614719167351
-0.0045690378174185
-0.0037607499398291
-0.0030814921483397
-0.0024750558659434
-0.0018892018124461
-0.0012751836329698
-0.0005860565579496
0.0002215623389929
0.0011806222610175
0.0023049004375934
0.0035859118215739
0.0049951467663049
0.0064839934930205
0.0079816961660981
0.009395508095622
0.0106104314327239
0.0114882951602339
0.0118754198774695
0.0116247544065117
0.0106248520314693
0.0088254073634743
0.006256082560867
0.0030344980768859
-0.000643671490252
-0.0045306808315217
-0.0083572203293442
-0.0118592418730258
-0.0148011595010757
-0.0169972702860832
-0.0183297842741012
-0.0187572035938501
-0.0183103457093238
-0.0170847233384847
-0.0152343604713678
-0.0129577238112688
-0.010471761226654
-0.00798393599689
-0.0056698881089687
-0.0036564471665769
-0.0020111098419874
-0.0007417321321554
0.0001937041524797
0.0008713684510439
0.0013858980964869
0.0018385297153145
0.0023271096870303
0.0029359371401369
0.0037273662164807
0.0047347354702651
0.0059543293900787
0.0073439129628241
0.0088351061567664
0.0103503698483109
0.0118112796917557
0.0131358355283737
0.0142319137230515
0.0149925295263528
0.0152956275269389
0.0150150880217552
0.014043997041881
0.0123189063742756
0.0098368376493453
0.0066671296954154
0.002957412507385
-0.0010773343965411
-0.0051854630000889
-0.0091119743883609
-0.0126212770119309
-0.0155139062553644
-0.0176440477371215
-0.0189341604709625
-0.01937654055655
-0.0190216321498155
-0.0179641805589199
-0.0163311418145895
-0.0142676420509815
-0.011921701952815
-0.0094304215162992
-0.006907501257956
-0.0044337585568428
-0.0020569544285535
0.0001970430021174
0.002310070907697
0.0042652180418372
0.0060500893741846
0.0076614413410425
0.0091050034388899
0.0103919254615902
0.0115346107631921
0.0125452252104878
0.0134377023205161
0.0142278000712394
0.014928194694221
0.0155432522296905
0.0160681456327438
0.0164894163608551
0.0167774893343448
0.0168711692094802
0.0166703443974256
0.0160472076386213
0.0148707348853349
0.0130355600267648
0.0104890204966068
0.007251564413309
0.0034247105941176
-0.0008159829303622
-0.005239532329142
-0.009585577994585
-0.0135942883789539
-0.0170350894331932
-0.0197270810604095
-0.0215487796813249
-0.0224457718431949
-0.0224398002028465
-0.0216279011219739
-0.0201662462204694
-0.0182462185621261
-0.0160682573914527
-0.0138176959007978
-0.0116488533094525
-0.0096769239753484
-0.0079725636169314
-0.0065594082698225
-0.0054184198379516
-0.0044997166842222
-0.0037380172871053
-0.0030637949239462
-0.0024053363595157
-0.0016907935496419
-0.0008596347179263
0.0001238535623997
0.0012647176627069
0.0025401241146028
0.0039080409333109
0.0053170467726886
0.0067131696268916
0.0080428309738636
0.009253048337996
0.0102873891592025
0.0110767167061567
0.0115317935124039
0.0115451803430914
0.0110076032578945
0.0098385885357856
0.0080133350566029
0.0055714482441544
0.0026154755614697
-0.0006954183336347
-0.0041595171205699
-0.0075510488823056
-0.0106408335268497
-0.01321975979954
-0.0151216275990009
-0.016241118311882
-0.0165436472743749
-0.01606410369277
-0.0148956170305609
-0.0131732420995831
-0.0110558392480015
-0.0087087657302618
-0.0062917871400713
-0.0039508016780018
-0.0018065883778035
5.743920337408781e-05
0.0016046013915911
0.002856864593923
0.0039076460525393
0.0049213916063308
0.0061108395457267
0.0076952711679041
0.0098509853705763
0.012667535804212
0.0161218531429767
0.0200766865164041
0.0243016760796308
0.0285095702856779
0.0323946252465248
0.035663966089487
0.0380652733147144
0.0394108816981315
0.039587914943695
0.0385538935661315
0.0363285392522811
0.0329867675900459
0.0286515429615974
0.0234858617186546
0.0176846496760845
0.0114672519266605
0.0050697559490799
-0.0012642350047826
-0.0072940615937113
-0.0127949891611933
-0.017576789483428
-0.0215035956352949
-0.0245044790208339
-0.0265734121203422
-0.0277632772922515
-0.0281734857708215
-0.0279336422681808
-0.0271884016692638
-0.0260834172368049
-0.0247530508786439
-0.0233129635453224
-0.0218571238219738
-0.0204563681036233
-0.0191560760140419
-0.0179727412760257
-0.0168927665799856
-0.0158787760883569
-0.0148844085633754
-0.0138697447255253
-0.0128080826252698
-0.0116844456642866
-0.0104920919984579
-0.0092290453612804
-0.0078953048214316
-0.006493613589555
-0.0050322213210165
-0.0035254186950623
-0.0019927339162677
-0.0004597278311848
0.0010384707711637
0.0024514854885637
0.0037085143849253
0.0047140438109636
0.0053479727357625
0.0054812598973512
0.0050072073936462
0.0038723521865904
0.0020942511036992
-0.0002349931746721
-0.0029558883979916
-0.0058576161973178
-0.0087036723271012
-0.0112634096294641
-0.0133402915671467
-0.0147909000515937
-0.0155324861407279
-0.015539058484137
-0.0148324929177761
-0.0134793613106012
-0.0115945599973201
-0.0093384971842169
-0.0068993954919278
-0.0044669597409665
-0.0022068677935749
-0.0002421464305371
0.0013559961225837
0.002569327596575
0.003428456839174
0.0040039578452706
0.0043928697705268
0.0047026597894728
0.0050355056300759
0.0054758097976446
0.0060828914865851
0.0068867024965584
0.0078844977542757
0.0090429130941629
0.010307221673429
0.0116122066974639
0.0128910988569259
0.014079499989748
0.0151112806051969
0.015910979360342
0.0163894966244697
0.0164460986852645
0.0159798376262187
0.0149096008390188
0.0131955202668905
0.0108573175966739
0.0079850060865283
0.0047318851575255
0.001290826126933
-0.0021307775750756
-0.0053291362710297
-0.0081195747479796
-0.0103519298136234
-0.0119212791323661
-0.0127720469608902
-0.0128988549113273
-0.0123458802700042
-0.0112023036926984
-0.0095921866595745
-0.0076617067679762
-0.0055652386508882
-0.003447419963777
-0.0014248816296458
0.0004201773554086
0.0020333011634647
0.0033828252926468
0.0044633015058934
0.0052972920238971
0.0059287147596478
0.0064143072813749
0.0068199941888451
0.0072164330631494
0.0076680048368871
0.0082227196544408
0.0089090196415781
0.0097352778539061
0.0106898769736289
0.0117449667304754
0.0128626720979809
0.0139938127249479
0.0150649640709161
0.0159681867808103
0.016567213460803
0.01671570725739
0.0162769444286823
0.0151416901499032
0.0132479239255189
0.0106031289324164
0.0072988355532288
0.0035059724468737
-0.0005472362972795
-0.0046050027012825
-0.0084136528894305
-0.0117453802376985
-0.0144139127805829
-0.0162865910679101
-0.0172972586005926
-0.017455693334341
-0.0168447475880384
-0.0156034026294946
-0.0139015857130289
-0.0119146909564733
-0.0098054017871618
-0.0077145956456661
-0.0057552903890609
-0.004005798138678
-0.0025062658824026
-0.0012619094923138
-0.0002495693042874
0.000576966907829
0.0012822253629565
0.0019380105659365
0.0026059341616928
0.003327028825879
0.0041249906644225
0.0050122211687266
0.0059890495613217
0.0070414943620562
0.0081459498032927
0.0092766089364886
0.0104076713323593
0.0115097872912883
0.0125416442751884
0.0134390918537974
0.0141078494489192
0.0144256632775068
0.0142601011320948
0.0134969362989068
0.0120623894035816
0.0099365562200546
0.0071646906435489
0.0038619567640125
0.0002056668017758
-0.0035824310034513
-0.0072594857774674
-0.010587353259325
-0.0133568458259105
-0.0154081843793392
-0.0166448727250099
-0.0170387327671051
-0.0166299305856227
-0.0155220963060855
-0.0138662466779351
-0.011839335784316
-0.0096297785639762
-0.0074253780767321
-0.0053941756486892
-0.0036630504764616
-0.0023036103229969
-0.0013289384078234
-0.0006988635286688
-0.0003298174124211
-0.0001099565997719
8.119223639369011e-05
0.0003546723164618
0.000796579523012
0.0014562851283699
0.0023455368354916
0.0034476337023079
0.0047263554297387
0.0061290240846574
0.0075882775709033
0.0090291798114776
0.0103806629776954
0.0115803638473153
0.0125658707693219
0.0132615212351083
0.0135733764618635
0.0133968628942966
0.0126355178654193
0.0112242819741368
0.0091492254287004
0.006459318101406
0.0032704309560358
-0.0002383737592026
-0.0038418415933847
-0.0072997561655938
-0.0103895002976059
-0.0129281291738152
-0.0147840632125735
-0.0158828571438789
-0.0162090938538312
-0.0158045422285795
-0.0147619508206844
-0.013213999569416
-0.0113183120265603
-0.0092393076047301
-0.0071296459063887
-0.0051158783026039
-0.003288494888693
-0.0016952587757259
-0.0003420111024752
0.0007960674120113
0.0017603589221835
0.0026012461166828
0.0033737097401171
0.0041294693946838
0.0049094026908278
0.0057404302060604
0.0066347001120448
0.0075910221785306
0.0086000422015786
0.0096491714939475
0.0107222637161612
0.0117954704910516
0.0128350611776113
0.0137970745563507
0.0146198635920882
0.0152095770463347
0.0154359834268689
0.0151511002331972
0.0142221581190824
0.012563245370984
0.0101594924926757
0.007081039249897
0.0034816353581845
-0.0004185568541288
-0.0043617873452603
-0.0080866487696766
-0.0113576417788863
-0.0139851123094558
-0.0158361848443746
-0.0168389827013015
-0.0169850848615169
-0.0163322146981954
-0.0149996597319841
-0.0131521262228488
-0.0109793599694967
-0.0086769210174679
-0.0064262910746037
-0.0043754051439464
-0.0026249126531183
-0.0012244964018464
-0.0001794358249753
0.0005383107345551
0.0009793760254979
0.0012063274625688
0.0012868870981037
0.0012954394333064
0.0013126623816788
0.0014129313640296
0.0016493978910148
0.0020492915064096
0.0026174704544246
0.0033416375517845
0.0041956277564167
0.0051394612528383
0.0061174440197646
0.0070550725795328
0.0078541692346334
0.0083904508501291
0.0085205119103193
0.0080996137112379
0.0070078140124678
0.0051809954456985
0.0026342356577515
-0.000537259504199
-0.0041751288808882
-0.0080763800069689
-0.0120090451091527
-0.0157298892736434
-0.0190055314451456
-0.0216352716088295
-0.0234716590493917
-0.0244348160922527
-0.0245201680809259
-0.0237973928451538
-0.0223976802080869
-0.0204928126186132
-0.0182719603180885
-0.015918655321002
-0.0135927991941571
-0.0114238588139414
-0.0095086013898253
-0.0079033244401216
-0.0066158417612314
-0.0056076822802424
-0.0048064542934298
-0.0041213128715753
-0.0034569029230624
-0.0027252538129687
-0.0018555996939539
-0.0008022105321288
0.0004494218155741
0.0018819712568074
0.0034564551897346
0.0051280539482831
0.0068528945557773
0.0085798371583223
0.0102371918037533
0.011725096963346
0.0129173770546913
0.0136745870113372
0.0138644538819789
0.0133818835020065
0.0121662449091672
0.0102168889716267
0.0076046595349907
0.0044734138064086
0.0010281424038112
-0.0024856003001332
-0.0058054323308169
-0.0086790081113576
-0.010895749554038
-0.0123170353472232
-0.012889509089291
-0.0126382140442729
-0.0116516938433051
-0.0100661367177963
-0.0080489236861467
-0.0057810610160231
-0.0034382017329335
-0.0011736713349819
0.0008936244994401
0.0026857778429985
0.0041679851710796
0.0053475876338779
0.0062697581015527
0.0070108501240611
0.0076658651232719
0.0083277877420187
0.0090697519481182
0.0099367573857307
0.0109448283910751
0.0120879784226417
0.0133470306172966
0.0146932564675807
0.0160906296223402
0.017498068511486
0.0188667234033346
0.0201323349028825
0.0212085526436567
0.0219869017601013
0.0223464928567409
0.0221717804670333
0.0213682428002357
0.0198699217289686
0.0176483690738677
0.014729181304574
0.0112067107111215
0.0072453115135431
0.0030646659433841
-0.001084997318685
-0.0049529816024005
-0.0083182081580162
-0.0110094705596566
-0.012913953512907
-0.0139820175245404
-0.0142302550375461
-0.0137347485870122
-0.0126137128099799
-0.0110142324119806
-0.009107613004744
-0.0070780301466584
-0.0050988770090043
-0.0033076321706175
-0.0017904611304402
-0.0005812337622046
0.000331203918904
0.0009952383115887
0.0014867829158902
0.0018952132668346
0.0023088101297616
0.0028046639636158
0.0034438369330018
0.0042701377533376
0.0053094080649316
0.006564206443727
0.0080049969255924
0.0095684947445988
0.011167537420988
0.0127038350328803
0.014074670150876
0.0151718603447079
0.0158781297504901
0.0160696562379598
0.0156283639371395
0.0144604602828621
0.0125181367620825
0.0098188687115907
0.0064528845250606
0.0025790333747863
-0.0015847000759094
-0.0057809213176369
-0.009746465831995
-0.013246364891529
-0.0160952098667621
-0.0181672722101211
-0.0194006823003292
-0.019797446206212
-0.0194189324975013
-0.0183769054710865
-0.016821539029479
-0.014926541596651
-0.0128707140684127
-0.0108182886615395
-0.008901759982109
-0.0072106206789612
-0.0057876710779964
-0.0046316813677549
-0.0037064012140035
-0.0029537922237068
-0.0023049006704241
-0.0016874230932444
-0.0010338374413549
-0.0002883279812522
0.0005904508871026
0.0016273853834718
0.0028272352647036
0.0041735996492207
0.0056326370686292
0.0071569262072443
0.0086879963055253
0.0101610571146011
0.0115086361765861
0.0126538500189781
0.0134967472404241
0.0139107853174209
0.0137579524889588
0.0129158999770879
0.011307718232274
0.0089276442304253
0.0058546778745949
0.0022482983767986
-0.0016701691783964
-0.0056436494924128
-0.0094090001657605
-0.0127256987616419
-0.015399120748043
-0.0172948408871889
-0.0183415543287992
-0.0185299105942249
-0.0179148912429809
-0.0166145823895931
-0.014798417687416
-0.0126674119383096
-0.0104287164285779
-0.0082687735557556
-0.0063319290056824
-0.004707290790975
-0.0034253266640007
-0.0024642501957714
-0.0017608117777854
-0.0012220707722008
-0.0007410878315567
-0.0002143222372978
0.0004465699894353
0.0013063624501228
0.002396835014224
0.003712844569236
0.0052182427607476
0.0068555348552763
0.008555213920772
0.010244395583868
0.0118529265746474
0.0133155286312103
0.0145703693851828
0.0155551508069038
0.01620021648705
0.0164214000105857
0.0161222945898771
0.0152131207287311
0.0136394444853067
0.0114018637686967
0.0085569787770509
0.0052108010277152
0.0015156362205743
-0.0023354915902018
-0.0061248326674103
-0.0096322484314441
-0.012657156214118
-0.015036903321743
-0.0166606307029724
-0.0174801405519247
-0.0175163336098194
-0.0168558936566114
-0.0156364999711513
-0.0140244904905557
-0.0121908029541373
-0.010291900485754
-0.0084599191322922
-0.0067977495491504
-0.0053729768842458
-0.0042123296298086
-0.0033004952128976
-0.0025841165333986
-0.0019819783046841
-0.0014005742268636
-0.0007504874374717
3.939354792237282e-05
0.0010123641695827
0.002180342329666
0.0035243588499724
0.0050022061914205
0.0065624127164483
0.0081509994342923
0.0097069013863801
0.0111573692411184
0.0124183325096964
0.0133961196988821
0.0139897745102643
0.0140964239835739
0.0136220343410968
0.0124972630292177
0.0106940977275371
0.008237512782216
0.0052088974043726
0.0017437455244362
-0.0019739591516554
-0.0057248305529356
-0.0092745851725339
-0.0123979300260543
-0.01490637101233
-0.0166728217154741
-0.0176413301378488
-0.0178235713392496
-0.0172892417758703
-0.0161524564027786
-0.014555943198502
-0.0126542933285236
-0.0105967447161674
-0.0085138315334916
-0.0065107773989439
-0.0046646166592836
-0.0030218688771128
-0.0015960754826664
-0.0003674980252981
0.0007085625547915
0.0016838412266224
0.0026027637068182
0.0035031954757869
0.0044237598776817
0.0054026464931666
0.0064682494848966
0.0076309978030622
0.0088802315294742
0.0101865213364362
0.0115079162642359
0.0127955647185444
0.0139946974813938
0.0150399412959814
0.0158503577113151
0.0163307543843984
0.0163771230727434
0.0158845167607069
0.0147630777209997
0.0129616083577275
0.0104888575151562
0.0074255829676985
0.0039244517683982
0.0001951199956238
-0.0035233481321483
-0.0069932714104652
-0.0100039970129728
-0.0123890209943056
-0.0140345841646194
-0.014883542433381
-0.0149360289797186
-0.014245331287384
-0.0129132326692342
-0.0110866744071245
-0.0089466832578182
-0.0066855759359896
-0.0044796718284487
-0.0024665300734341
-0.0007341902237385
0.0006780959665775
0.0017733410932123
0.0025863838382065
0.0031730267219245
0.0036018355749547
0.003945916891098
0.0042743165977299
0.004646270070225
0.0051078223623335
0.0056864093057811
0.0063834735192358
0.0071735801175236
0.0080141508951783
0.0088559109717607
0.0096459332853555
0.0103274155408144
0.0108387432992458
0.0111104175448417
0.0110644977539777
0.0106201320886611
0.0097030727192759
0.0082591529935598
0.0062701432034373
0.003767255693674
0.0008388170972466
-0.0023754015564918
-0.0057072164490818
-0.0089852474629879
-0.0120463808998465
-0.0147391352802515
-0.0169295594096183
-0.0185114033520221
-0.0194188077002763
-0.0196361131966114
-0.0192006714642047
-0.0181996952742338
-0.0167592838406562
-0.0150254536420106
-0.0131453070789575
-0.011251482181251
-0.0094478242099285
-0.0078032938763499
-0.0063579413108527
-0.0051308637484908
-0.0041227512992918
-0.0033141006715595
-0.002662592800334
-0.0021050469949841
-0.0015668084379285
-0.0009749012533575
-0.0002691196277737
0.000590403098613
0.0016179368831217
0.002799839247018
0.0040985951200127
0.0054655228741467
0.0068537942133843
0.0082182558253407
0.0095023978501558
0.0106272595003247
0.0114921703934669
0.0119832372292876
0.011985233053565
0.0114000961184501
0.0101691875606775
0.0082884617149829
0.0058144582435488
0.0028649750165641
-0.000388425309211
-0.0037383791059255
-0.0069656483829021
-0.0098624834790825
-0.0122499875724315
-0.0139920273795723
-0.0150108989328145
-0.0152973271906375
-0.0149069027975201
-0.0139475846663117
-0.0125616695731878
-0.0109038036316633
-0.0091225188225507
-0.0073482631705701
-0.005683394614607
-0.0041948212310671
-0.0029137884266674
-0.0018401022534817
-0.0009463968453928
-0.0001829518005251
0.0005152309313416
0.0012178064789623
0.0019858230371028
0.002860450418666
0.0038581537082791
0.0049728122539818
0.0061817411333322
0.0074516087770462
0.008741246536374
0.010002315044403
0.011183351278305
0.0122385462746024
0.0131342327222228
0.0138457072898745
0.0143452705815434
0.0145922936499118
0.0145333809778094
0.0141062950715422
0.013244611211121
0.011892007663846
0.0100233247503638
0.007659844122827
0.0048757125623524
0.0017962408019229
-0.0014136946992948
-0.0045691938139498
-0.0074865883216261
-0.010002901777625
-0.0119913797825574
-0.0133692920207977
-0.0140995243564248
-0.0141906822100281
-0.013694854453206
-0.0127031467854976
-0.0113407876342535
-0.0097568081691861
-0.0081044882535934
-0.0065164826810359
-0.0050840266048908
-0.0038508211728185
-0.0028210910968482
-0.001972101163119
-0.0012649465352296
-0.0006514703854918
-7.951818406581879e-05
0.0005008256994187
0.0011330149136483
0.0018543926998972
0.0026977267116308
0.003685928415507
0.0048187235370278
0.0060639744624495
0.0073633678257465
0.0086469119414687
0.0098469778895378
0.0109072644263505
0.0117820855230093
0.0124250166118144
0.0127778220921754
0.0127706667408347
0.0123312063515186
0.0113981999456882
0.0099415984004735
0.0079851802438497
0.0056164320558309
0.0029733497649431
0.0002198978327214
-0.0024720793589949
-0.0049357637763023
-0.0070254802703857
-0.0086329178884625
-0.0096957767382264
-0.010196529328823
-0.0101539641618728
-0.0096144527196884
-0.0086487689986824
-0.0073501672595739
-0.0058282855898141
-0.0041995127685368
-0.0025730971246957
-0.001035246066749
0.0003579384647309
0.0015737109351903
0.0025945333763957
0.0034192088060081
0.0040677390061318
0.0045799030922353
0.0050055207684636
0.005393742583692
0.0057871309109032
0.0062189372256398
0.0067117186263203
0.0072780014015734
0.0079213436692953
0.0086348950862884
0.0094005204737186
0.010191892273724
0.0109745180234313
0.011695503257215
0.0122720282524824
0.0125938281416893
0.0125404307618737
0.0120014129206538
0.0108941281214356
0.0091818664222955
0.0068899602629244
0.0041120839305222
0.0010027638636529
-0.0022430003155022
-0.0054162731394171
-0.0083185257390141
-0.0107803624123334
-0.0126731283962726
-0.0139154950156807
-0.0144797125831246
-0.0143951484933495
-0.0137442303821444
-0.0126500306650996
-0.0112573727965354
-0.0097134057432413
-0.0081517398357391
-0.0066799293272197
-0.0053734946995973
-0.0042767967097461
-0.0034037474542856
-0.0027376031503081
-0.0022357741836458
-0.0018388252938166
-0.0014781773788854
-0.0010844533098861
-0.000601481180638
-2.88855517283082e-07
0.0007172439945861
0.0015261273365467
0.0023903467226773
0.0032733010593801
0.0041455086320638
0.0049881529994308
0.0057899486273527
0.0065401783213019
0.0072210109792649
0.0077957641333341
0.0081968093290925
0.0083291549235582
0.0080934278666973
0.0074094757437705
0.0062264213338494
0.0045287357643246
0.0023489471059292
-0.0002236657310277
-0.0030511585064232
-0.0059652002528309
-0.0087837316095829
-0.0113272164016962
-0.0134387323632836
-0.015001717954874
-0.0159483738243579
-0.0162607431411743
-0.0159683749079704
-0.0151414247229695
-0.0138780372217297
-0.0122922463342547
-0.0105076655745506
-0.008650854229927
-0.006838234141469
-0.0051609855145215
-0.0036760868970304
-0.0024048876948654
-0.0013354190159589
-0.0004279918503016
0.0003747325390577
0.0011357960756868
0.0019142520613968
0.0027576128486543
0.0036951859947293
0.0047368984669446
0.0058791413903236
0.0071078264154493
0.0083942729979753
0.0096941664814949
0.010953932069242
0.0121175274252891
0.0131302345544099
0.0139379613101482
0.0144799947738647
0.0146815394982695
0.0144559340551495
0.013720073737204
0.0124186761677265
0.0105450246483087
0.0081491256132721
0.0053368373773992
0.0022635830100625
-0.0008819716749712
-0.0039038658142089
-0.0066235763952136
-0.0088968453928828
-0.0106234336271882
-0.0117506422102451
-0.0122730014845728
-0.012229829095304
-0.0116971153765916
-0.0107729444280266
-0.0095631312578916
-0.0081731034442782
-0.006704828236252
-0.0052532264962792
-0.0038995747454464
-0.0027030259370803
-0.0016937031177803
-0.0008741724304854
-0.000228302553296
0.0002714514266699
0.0006604242371395
0.0009804064175114
0.0012795365182682
0.0016093594022095
0.0020173904486
0.0025364616885781
0.0031754749361425
0.0039196382276713
0.0047392738051712
0.0055970381945371
0.0064515266567468
0.0072603006847202
0.0079752886667847
0.0085295774042606
0.0088326446712017
0.0087834624573588
0.0082928175106644
0.0073046060279011
0.0058105448260903
0.0038552980404347
0.0015324372798204
-0.0010257882531732
-0.0036616842262446
-0.0062073138542473
-0.0085022803395986
-0.0104112839326262
-0.0118353515863418
-0.0127148190513253
-0.0130293574184179
-0.0128000527620315
-0.0120912166312336
-0.01100580021739
-0.0096725299954414
-0.0082280533388257
-0.0067978114821016
-0.0054802261292934
-0.0043384772725403
-0.0033995085395872
-0.0026576230302453
-0.0020799743942916
-0.0016133221797645
-0.0011956403031945
-0.0007702875882387
-0.0002926248125731
0.0002688099630177
0.0009271455928683
0.0016733624506741
0.0024825900327414
0.0033274190500378
0.0041871271096169
0.0050454922020435
0.0058829677291214
0.0066713513806462
0.0073711387813091
0.0079308301210403
0.0082890009507536
0.0083779050037264
0.008130382746458
0.0074947765097022
0.0064533082768321
0.0050300415605306
0.0032839677296578
0.001299733761698
-0.0008160048164427
-0.0029397252947092
-0.0049412515945732
-0.0066942940466105
-0.0080862026661634
-0.0090286377817392
-0.0094681549817323
-0.0093936203047633
-0.0088375080376863
-0.0078706182539463
-0.0065918103791773
-0.0051140859723091
-0.0035493201576173
-0.0019977032206952
-0.0005445755086839
0.0007421728223562
0.0018184585496783
0.0026689963415265
0.0033069094642996
0.00376946805045
0.0041121561080217
0.0044030006974935
0.0047164447605609
0.0051227360963821
0.005674242042005
0.0063965949229896
0.0072883386164903
0.0083268405869603
0.009476282633841
0.0106910960748791
0.0119129661470651
0.0130687616765499
0.0140739548951387
0.0148379821330308
0.0152682587504386
0.0152745973318815
0.0147780589759349
0.0137255815789103
0.012106142938137
0.0099618704989552
0.0073906248435378
0.0045391079038381
0.001586491940543
-0.0012774597853422
-0.0038739668671041
-0.006055814679712
-0.0077247899025678
-0.0088380081579089
-0.0094035267829895
-0.0094718309119343
-0.0091249719262123
-0.0084649641066789
-0.0076020457781851
-0.0066416463814675
-0.0056735239923
-0.0047668609768152
-0.0039681098423898
-0.0032979231327772
-0.0027506269980221
-0.0022986026015132
-0.0018974137492477
-0.0014922419795766
-0.0010306417243555
-0.0004782149335369
0.0001725411275401
0.000905706488993
0.0016948423581197
0.0025161844678223
0.0033536781556904
0.0041958857327699
0.0050311624072492
0.0058460123836994
0.0066258297301828
0.0073505681939423
0.0079831983894109
0.0084623703733086
0.0087056281045079
0.0086165443062782
0.0080946739763021
0.0070541817694902
0.0054490221664309
0.0032946686260402
0.0006766037549823
-0.0022583771497011
-0.0053233280777931
-0.0083158211782574
-0.0110413432121276
-0.0133353509008884
-0.0150797180831432
-0.0162074211984872
-0.0166990831494331
-0.0165777653455734
-0.0159012041985988
-0.0147558813914656
-0.0132578033953905
-0.0115467468276619
-0.0097659854218363
-0.0080405324697494
-0.006462818942964
-0.0050857891328632
-0.0039243008941411
-0.0029612998478114
-0.0021561628673225
-0.0014568517217412
-0.0008102362044155
-0.0001645799493417
0.0005297777242958
0.0013142686802893
0.0022142883390188
0.0032335831783711
0.0043490938842296
0.0055132773704826
0.0066681327298283
0.0077580353245139
0.0087338052690029
0.0095513192936778
0.0101650645956397
0.0105203427374362
0.0105511583387851
0.0101850796490907
0.0093551594763994
0.0080191399902105
0.0061796582303941
0.0038958743680268
0.0012824397999793
-0.0015048088971525
-0.0042937449179589
-0.006919726729393
-0.0092385150492191
-0.0111317038536071
-0.0125115886330604
-0.0133266923949122
-0.0135664213448762
-0.013262634165585
-0.0124863982200622
-0.0113415727391839
-0.0099562956020236
-0.0084707047790288
-0.0070199389010667
-0.0057138670235872
-0.0046195071190595
-0.0037554153241217
-0.0031018233858048
-0.0026178145781159
-0.0022537671029567
-0.0019569103606045
-0.0016746120527386
-0.001357932575047
-0.0009651598520576
-0.0004647113382816
0.0001636226661503
0.0009287567809224
0.0018277820199728
0.0028435322456061
0.003942304290831
0.0050787609070539
0.0062086908146739
0.0072944983839988
0.0082922801375389
0.0091338930651545
0.009724298492074
0.0099561549723148
0.0097312275320291
0.0089814150705933
0.0076857432723045
0.0058795758523046
0.0036545759066939
0.0011507787276059
-0.0014584464952349
-0.0039878552779555
-0.0062626027502119
-0.0081333238631486
-0.0094834091141819
-0.0102369915693998
-0.0103715592995285
-0.0099257118999958
-0.0089940316975116
-0.0077110743150115
-0.0062290658243
-0.00469621270895
-0.0032418258488178
-0.0019667400047183
-0.0009348057210445
-0.0001662746071815
0.00036330986768
0.0007161647081375
0.0009774137288331
0.0012384532019495
0.0015856036916375
0.0020912028849124
0.0028020883910357
0.0037314863875508
0.004860854241997
0.0061496961861848
0.0075474875047802
0.0090022897347807
0.0104656368494033
0.0118935154750943
0.0132407899945974
0.0144526353105902
0.0154595933854579
0.0161772929131984
0.0165101531893014
0.0163622554391622
0.0156561713665723
0.0143503751605749
0.0124470982700586
0.0099962940439581
0.007101175840944
0.0039183506742119
0.0006445636972784
-0.0025078514590859
-0.0053378394804894
-0.0076774423941969
-0.0094063999131321
-0.010459054261446
-0.0108248284086585
-0.0105462111532688
-0.0097130192443728
-0.0084480214864015
-0.0068875262513756
-0.0051669529639184
-0.0034147864207625
-0.001746267080307
-0.0002500382252037
0.0010236524976789
0.0020634981337934
0.0028896632138639
0.0035448758862912
0.0040852893143892
0.0045715998858213
0.0050635440275073
0.0056164446286857
0.0062756221741437
0.007069282233715
0.0080040078610181
0.0090667931362986
0.0102283507585525
0.0114401550963521
0.0126298740506172
0.0137011129409074
0.0145369702950119
0.0150071186944842
0.0149806337431073
0.0143436174839735
0.0130151202902197
0.010959236882627
0.0081970309838652
0.0048170434311032
0.0009759850800037
-0.0031157615594565
-0.0072169676423072
-0.0110779842361807
-0.0144662614911794
-0.0171959958970546
-0.0191478375345468
-0.0202706158161163
-0.0205747634172439
-0.0201261527836322
-0.0190376639366149
-0.0174565389752388
-0.015550403855741
-0.0134913865476846
-0.0114366738125681
-0.0095099871978163
-0.0077916751615703
-0.0063194101676344
-0.0050923181697726
-0.0040754941292107
-0.0032119962852448
-0.0024404181167483
-0.0017067593289539
-0.0009692067978903
-0.000199622081709
0.0006172197754494
0.0014847402926534
0.0023957970552146
0.0033365974668413
0.0042923958972096
0.005249454639852
0.0061900676228106
0.0070842420682311
0.0078824292868375
0.0085107237100601
0.0088733229786157
0.0088630970567464
0.00837342441082
0.0073122838512063
0.0056233080103993
0.0033087192568928
0.0004436913877725
-0.0028249435126781
-0.0062945866957306
-0.0097308307886123
-0.0128946080803871
-0.015569120645523
-0.01758249476552
-0.0188233125954866
-0.0192465465515851
-0.0188688617199659
-0.0177581086754798
-0.0160249751061201
-0.0138174351304769
-0.0113105932250618
-0.0086887450888752
-0.0061235418543219
-0.0037543626967817
-0.001676462823525
6.103329360485077e-05
0.0014501309487968
0.0025188929866999
0.0033281759824603
0.0039634425193071
0.0045196926221251
0.0050863828510046
0.0057385531254112
0.0065335226245224
0.0075061037205159
0.0086600724607706
0.0099629517644643
0.0113507127389311
0.0127426711842417
0.0140577005222439
0.0152207026258111
0.0161582492291927
0.0167889017611742
0.0170155391097068
0.0167286992073059
0.0158242881298065
0.0142294550314545
0.0119263306260108
0.0089667616412043
0.0054763271473348
0.0016444537322968
-0.0022994389291852
-0.0061130332760512
-0.0095638763159513
-0.0124496733769774
-0.0146148223429918
-0.015962341800332
-0.0164631400257349
-0.0161580611020326
