bvp
-0.0058073089458048
-0.0038390106055885
-0.0022061478812247
-0.0009232270531356
4.142412217333913e-05
0.0007519761566072
0.001292391330935
0.0017542417626827
0.0022267315071076
0.0027887532487511
0.00350037147291
0.0043937228620052
0.0054675620049238
0.0066899405792355
0.0080066910013556
0.0093513717874884
0.0106551721692085
0.0118560027331113
0.0129035301506519
0.0137507580220699
0.0143325831741094
0.0145522616803646
0.0142904985696077
0.0134291276335716
0.011877809651196
0.0095993988215923
0.0066283121705055
0.00307570816949
-0.0008784076198935
-0.0050009060651063
-0.0090256417170166
-0.0126800723373889
-0.0157169811427593
-0.0179412439465522
-0.0192266162484884
-0.0195286683738231
-0.0188929084688425
-0.0174465347081422
-0.0153741864487528
-0.0128897549584507
-0.0102102169767022
-0.0075327074155211
-0.0050170524045825
-0.0027761154342442
-0.0008740441408008
0.0006715235067531
0.0018851427594199
0.0028244436252862
0.0035668686032295
0.0041980650275945
0.0048047443851828
0.0054658707231283
0.0062394165433943
0.007154693827033
0.0082146879285573
0.0094010941684246
0.0106788435950875
0.0120029421523213
0.0133274728432297
0.0146085061132907
0.0157955568283796
0.016819380223751
0.0175839867442846
0.0179653130471706
0.0178207568824291
0.017014430835843
0.0154534047469496
0.0131141133606433
0.0100459493696689
0.0063670417293906
0.0022634649649262
-0.0020220670849084
-0.0062185889109969
-0.0100582223385572
-0.0133033227175474
-0.0157704763114452
-0.0173464082181453
-0.0179946199059486
-0.017755564302206
-0.0167392268776893
-0.0151097746565938
-0.0130637045949697
-0.0108063286170363
-0.0085352342575788
-0.0064319446682929
-0.004652882926166
-0.0033137432765215
-0.0024710814468562
-0.002110994188115
-0.0021547300275415
-0.0024788782466202
-0.0029373308643698
-0.0033801302779465
-0.0036717425100505
-0.0037062687333673
-0.0034151703584939
-0.0027691791765391
-0.0017771199345588
-0.0004792754189111
0.0010619645472615
0.0027642510831356
0.0045205331407487
0.0061979964375495
0.0076437727548182
0.0086921136826276
0.0091747986152768
0.0089404201135039
0.0078778825700283
0.0059370547533035
0.003144055372104
-0.000392309622839
-0.0044860299676656
-0.0088903559371829
-0.0133208837360143
-0.0174811165779829
-0.0210913680493831
-0.0239187180995941
-0.0257976483553648
-0.0266398843377828
-0.0264378115534782
-0.0252577364444732
-0.0232263952493667
-0.0205200985074043
-0.0173514001071453
-0.0139465983957052
-0.0105212517082691
-0.0072613251395523
-0.004308664239943
-0.001749375835061
0.000392023473978
0.0021506613120436
0.0036072512157261
0.0048613846302032
0.0060070767067372
0.0071219275705516
0.0082643236964941
0.0094722155481576
0.010763855651021
0.0121422009542584
0.0136018730700016
0.0151343094184994
0.0167281832545995
0.0183655023574829
0.0200149845331907
0.0216251239180564
0.0231193993240594
0.0243942141532897
0.0253174528479576
0.025729751214385
0.02545827627182
0.0243483278900384
0.0223054699599742
0.0193318799138069
0.0155397271737456
0.0111373467370867
0.00640051625669
0.0016401303000748
-0.0028318350668996
-0.0067358454689383
-0.0098538128659129
-0.012049101293087
-0.0132719613611698
-0.0135495075955986
-0.0129705211147665
-0.0116774179041385
-0.0098588913679122
-0.0077291410416364
-0.0054977294057607
-0.0033434070646762
-0.0013995324261486
0.0002484801225364
0.0015612074639648
0.0025439318269491
0.0032402332872152
0.0037170802243053
0.0040488648228347
0.0043069547973573
0.0045545538887381
0.0048466552980244
0.0052323569543659
0.0057539260014891
0.0064438404515385
0.0073231398127973
0.0084002986550331
0.0096677206456661
0.0110920090228319
0.0125995958223938
0.0140663515776395
0.0153212547302246
0.01616713963449
0.0164096355438232
0.0158875621855258
0.01450333930552
0.0122455898672342
0.0091997180134058
0.0055449893698096
0.0015325248241424
-0.0025499067269265
-0.0064134919084608
-0.0097976438701152
-0.0124911535531282
-0.0143470633774995
-0.0152913955971598
-0.0153257735073566
-0.0145247019827365
-0.0130260419100523
-0.0110152969136834
-0.0087057873606681
-0.0063170911744236
-0.0040510375984013
-0.0020642010495066
-0.000450593419373
0.0007532155141234
0.001553894020617
0.0019943807274103
0.0021498128771781
0.0021174759604036
0.0020033600740134
0.0019094282761216
0.0019216611981391
0.0021013054065406
0.0024803653359413
0.0030596810393035
0.0038117854855954
0.0046902438625693
0.0056416066363453
0.006613262463361
0.0075493482872843
0.0083734495565295
0.008971182629466
0.0091891596093773
0.0088550401851534
0.0078125968575477
0.0059604560956358
0.0032805576920509
-0.000150048173964
-0.0041628610342741
-0.0085164122283458
-0.0129252169281244
-0.0170918926596641
-0.0207377113401889
-0.0236286539584398
-0.0255962032824754
-0.0265549644827842
-0.0265141539275646
-0.0255728531628847
-0.0238980613648891
-0.0216964371502399
-0.0191890969872474
-0.0165921673178672
-0.0140996081754565
-0.0118649154901504
-0.0099844727665185
-0.0084894709289073
-0.007349376566708
-0.0064848684705793
-0.0057879006490111
-0.0051408344879746
-0.0044281426817178
-0.0035511492751538
-0.002449173014611
-0.0011086454614996
0.0004462481010705
0.0021674868185073
0.0039926241151988
0.0058514764532446
0.0076727764680981
0.0093866474926471
0.0109180677682161
0.0121775232255458
0.0130576128140091
0.0134373316541314
0.0131944688037037
0.0122291734442114
0.0104948254302144
0.0080176535993814
0.0048955758102238
0.0012883392628282
-0.002594731748104
-0.0065130200237035
-0.0102165406569838
-0.0134671479463577
-0.0160583779215812
-0.0178349651396274
-0.0187102854251861
-0.0186756290495395
-0.0177958104759454
-0.0161922480911016
-0.0140224257484078
-0.0114615419879555
-0.0086833536624908
-0.0058439075946807
-0.0030773296020925
-0.0004960135556757
0.0018170941621065
0.0038179513067007
0.0055026118643581
0.0068991309963166
0.0080545172095298
0.009024878963828
0.0098713478073477
0.0106560252606868
0.0114342756569385
0.0122467642650008
0.0131164994090795
0.0140514560043811
0.0150490971282124
0.0160954296588897
0.0171545594930648
0.018156349658966
0.0189934112131595
0.0195304919034242
0.0196201764047145
0.0191214755177497
0.0179234221577644
0.0159697327762842
0.0132753457874059
0.0099316323176026
0.0061037153936922
0.0020183974411338
-0.0020611863583326
-0.0058659510686993
-0.0091474950313568
-0.0117055093869566
-0.013414055109024
-0.0142319975420832
-0.0141961872577667
-0.0134088117629289
-0.0120209688320755
-0.0102101732045412
-0.0081585049629211
-0.006037414073944
-0.0039951857179403
-0.0021446575410664
-0.0005551171489059
0.0007491380674764
0.0017826987896114
0.0025909652467817
0.0032465942203998
0.0038400071207433
0.0044555002823472
0.0051482124254107
0.0059400009922683
0.0068323691375553
0.0078177042305469
0.008879279717803
0.0099914344027638
0.0111256809905171
0.0122546050697565
0.0133505342528224
0.0143804131075739
0.015295460820198
0.0160189475864171
0.0164431910961866
0.016441136598587
0.0158862229436635
0.0146754253655672
0.0127553064376115
0.0101437009871006
0.0069356770254671
0.0032957927323877
-0.0005567660555243
-0.0043715210631489
-0.0078962678089737
-0.0109052127227187
-0.0132214352488517
-0.01473287679255
-0.0154002169147133
-0.0152558553963899
-0.0143960984423756
-0.0129666347056627
-0.01114222407341
-0.0091075617820024
-0.0070441393181681
-0.0051177148707211
-0.0034613495226949
-0.0021596839651465
-0.0012409193441271
-0.0006779166869819
-0.0003990279510617
-0.0003057643771171
-0.0002903076820075
-0.00025016348809
-0.0001007048413157
0.0002164570614695
0.0007315170951187
0.0014522662386298
0.0023708343505859
0.0034606559202075
0.0046714069321751
0.0059355664998292
0.0071815149858593
0.008341196924448
0.0093485377728939
0.0101310471072793
0.0106009626761078
0.0106544941663742
0.0101843578740954
0.0090998504310846
0.0073465574532747
0.0049283290281891
0.001928286626935
-0.0014868937432765
-0.0050876587629318
-0.0086196530610322
-0.0118419416248798
-0.0145536558702588
-0.01661092415452
-0.0179361775517463
-0.0185182206332683
-0.0184049010276794
-0.0176911856979131
-0.0165049135684967
-0.0149920722469687
-0.0133022703230381
-0.0115756532177329
-0.009932143613696
-0.0084628863260149
-0.0072230156511068
-0.0062276744283735
-0.0054577197879552
-0.0048732054419815
-0.0044230963103473
-0.0040488704107701
-0.0036885198205709
-0.0032823774963617
-0.0027787592262029
-0.0021391725167632
-0.0013450705446302
-0.0004033301956951
0.0006574383005499
0.0017968835309147
0.002971950918436
0.0041457344777882
0.0052920533344149
0.0063863326795399
0.007387219928205
0.0082244230434298
0.0087990518659353
0.0089959055185318
0.008703913539648
0.0078353630378842
0.0063437642529606
0.0042418111115694
0.0016103731468319
-0.0014046095311641
-0.0046053128316998
-0.0077651487663388
-0.0106568122282624
-0.013076776638627
-0.0148616377264261
-0.0159025937318801
-0.0161629281938076
-0.0156862735748291
-0.0145847424864768
-0.013014705851674
-0.0111527629196643
-0.0091748042032122
-0.0072368970140814
-0.0054594674147665
-0.0039178682491183
-0.002640587510541
-0.0016137369675561
-0.0007909769192337
-0.0001059498172253
0.0005176917184144
0.0011574554955586
0.0018808469176292
0.0027334864716976
0.0037296318914741
0.00484956568107
0.0060479319654405
0.0072683417238295
0.0084544643759727
0.0095553994178771
0.010532391257584
0.0113653829321265
0.0120484912768006
0.0125778233632445
0.0129410624504089
0.0131078213453292
0.0130251422524452
0.0126257510855793
0.0118410401046276
0.010611074976623
0.0088985422626137
0.0067075886763632
0.0040976968593895
0.0011857501231133
-0.0018659817287698
-0.0048697860911488
-0.0076317116618156
-0.0099714351817965
-0.0117443399503827
-0.0128593705594539
-0.0132861966267228
-0.0130511196330189
-0.0122270649299025
-0.0109243867918849
-0.0092841247096657
-0.0074679390527307
-0.0056391065008938
-0.0039391652680933
-0.0024716411717236
-0.0012969336239621
-0.0004317667335271
0.0001492172013968
0.0005047573940828
0.0007117603672668
0.0008508769096806
0.0009979340247809
0.0012186439707875
0.0015631242422387
0.0020629647187888
0.0027319707442075
0.003563824808225
0.0045261681079864
0.0055640791542828
0.0066147153265774
0.0076208664104342
0.0085382666438817
0.0093348231166601
0.0099827703088521
0.0104489233344793
0.0106854364275932
0.010626008734107
0.0101921912282705
0.0093093160539865
0.0079284217208623
0.0060478206723928
0.0037278470117598
0.0010893704602494
-0.0017064869171008
-0.0044823484495282
-0.0070617105811834
-0.0092833852395415
-0.0110140517354011
-0.0121580781415104
-0.0126671586185693
-0.0125470412895083
-0.0118558816611766
-0.0106929223984479
-0.0091841621324419
-0.0074710510671138
-0.0056971996091306
-0.0039902096614241
-0.0024448428303003
-0.0011146338656544
-1.716194674372673e-05
0.0008520265109837
0.0015094224363565
0.0019805328920483
0.0022994433529675
0.0025090863928198
0.0026607092004269
0.0028102453798055
0.0030106098856776
0.0033022281713783
0.0037082354538142
0.004235265776515
0.0048746676184237
0.0056076142936944
0.0064149941317737
0.0072787832468748
0.0081715881824493
0.0090473797172307
0.009839367121458
0.0104612605646252
0.0108130518347024
0.0107929166406393
0.0103115607053041
0.0093073658645153
0.0077600823715329
0.0057002087123692
0.0032136691734194
0.00043937319424
-0.0024428304750472
-0.005231802817434
-0.0077255857177078
-0.0097418995574116
-0.0111440923064947
-0.0118639087304472
-0.0119064059108495
-0.0113397305831313
-0.0102787800133228
-0.0088639510795474
-0.0072404039092361
-0.0055456105619668
-0.0039008744060993
-0.0024031931534409
-0.0011209989897906
-9.232154116034508e-05
0.0006766370497643
0.0012122485786676
0.001572573557496
0.0018366076983511
0.0020826393738389
0.0023717386648058
0.0027437524404376
0.0032190650235861
0.0038019521161913
0.0044830832630395
0.0052420804277062
0.0060539348050951
0.0068961638025939
0.007751113269478
0.0086037060245871
0.0094389943405985
0.0102394856512546
0.010979488492012
0.0116201378405094
0.0121056772768497
0.0123574147000908
0.0122736897319555
0.011746447533369
0.0106890890747308
0.0090616736561059
0.0068867253139615
0.0042546656914055
0.0013157812645658
-0.0017408678540959
-0.0047139599919319
-0.0074136271141469
-0.0096787149086594
-0.0113875549286603
-0.0124638583511114
-0.0128824291750788
-0.0126747246831655
-0.011925246566534
-0.0107582230120897
-0.0093231443315744
-0.0077793002128601
-0.0062776422128081
-0.0049435766413807
-0.0038640208076685
-0.0030816516373306
-0.0025953422300517
-0.0023644901812076
-0.002319028833881
-0.0023751442786306
-0.0024504805915057
-0.002470881678164
-0.0023702685721218
-0.0020956217776983
-0.0016198551747947
-0.000950131798163
-0.0001232747454196
0.0008082364220172
0.0017901216633617
0.0027720187790691
0.0037095616571605
0.0045676524750888
0.0053176307119429
0.0059268930926918
0.0063481759279966
0.006514199078083
0.0063438336364924
0.0057605383917689
0.0047142654657363
0.0031956140883266
0.0012394901132211
-0.0010753744281828
-0.003630387596786
-0.006277275737375
-0.0088511621579527
-0.0111849289387464
-0.013125667348504
-0.0145511720329523
-0.0153810307383537
-0.0155799761414527
-0.0151595193892717
-0.0141786243766546
-0.0127384960651397
-0.0109711587429046
-0.0090211443603038
-0.0070276469923555
-0.005117645021528
-0.0034011928364634
-0.0019604791887104
-0.0008391351439058
-3.5820528864860535e-05
0.0004949648864567
0.0008309339173138
0.0010613827034831
0.0012674075551331
0.0015134774148464
0.001847879961133
0.0023032040335237
0.0028970316052436
0.0036354991607367
0.0045168516226112
0.0055293152108788
0.0066460818052291
0.0078254295513033
0.0090133007615804
0.0101423598825931
0.0111301569268107
0.0118806203827261
0.0122879920527338
0.0122438892722129
0.0116518996655941
0.010449344292283
0.0086285294964909
0.0062473593279719
0.0034256726503372
0.0003335457295179
-0.0028239241801202
-0.0058292052708566
-0.0084812901914119
-0.010620204731822
-0.0121408151462674
-0.0129961716011166
-0.0131925726309418
-0.012781798839569
-0.0118536446243524
-0.0105267325416207
-0.0089372238144278
-0.0072278520092368
-0.0055345660075545
-0.0039713932201266
-0.0026225633919239
-0.0015382748097181
-0.0007261745631694
-0.0001515848562121
0.0002444144338369
0.0005250964313745
0.000749441795051
0.0009717242792248
0.0012421114370226
0.0016041146591305
0.0020925104618072
0.0027341404929757
0.0035456847399473
0.0045266523957252
0.0056557501666247
0.006895066704601
0.0081954831257462
0.009497482329607
0.0107289645820856
0.0118017587810754
0.0126080624759197
0.0130225596949458
0.012915707193315
0.0121779246255755
0.0107485484331846
0.008638571947813
0.0059363008476793
0.0027945735491812
-0.0005894303321838
-0.0039921104907989
-0.0071812141686677
-0.0099385930225253
-0.0120847718790173
-0.0134962145239114
-0.0141117321327328
-0.0139346662908792
-0.013035150244832
-0.0115452101454138
-0.0096410615369677
-0.0075158709660172
-0.0053515955805778
-0.0032989382743835
-0.0014676032587885
7.562246173620224e-05
0.0013050269335508
0.0022328486666083
0.0029043536633253
0.0033911410719156
0.0037805633619427
0.0041625602170825
0.0046210857108235
0.0052275052294135
0.0060291271656751
0.0070393895730376
0.0082384785637259
0.0095828305929899
0.0110164228826761
0.0124785397201776
0.0139095867052674
0.0152560146525502
0.0164689347147941
0.0174951069056987
0.0182670466601848
0.0186986345797777
0.0186884030699729
0.0181330144405365
0.0169516094028949
0.0151084959506988
0.0126220099627971
0.009564958512783
0.0060629695653915
0.0022885287180542
-0.0015512779355049
-0.0052328463643789
-0.0085378959774971
-0.0112768970429897
-0.0133093148469924
-0.0145546197891235
-0.0149957761168479
-0.0146792195737361
-0.0137094743549823
-0.012235227972269
-0.0104287546128034
-0.0084682963788509
-0.0065262471325695
-0.0047538424842059
-0.0032620215788483
-0.0021091680973768
-0.0012999810278415
-0.0007911352440714
-0.0005017607472836
-0.0003292062319815
-0.0001655924133956
8.895620703697205e-05
0.0005147629417479
0.0011622044257819
0.0020475485362112
0.0031586424447596
0.0044650044292211
0.0059230523183941
0.007475868333131
0.0090545024722814
0.0105825001373887
0.011979304254055
0.0131591111421585
0.0140266166999936
0.014476066455245
0.0143968574702739
0.0136855915188789
0.0122652109712362
0.0101072946563363
0.0072491196915507
0.0037989472039043
-6.846347241662443e-05
-0.0041215228848159
-0.0080936579033732
-0.0117213390767574
-0.0147813949733972
-0.0171109698712825
-0.0186140406876802
-0.0192630384117364
-0.0190962497144937
-0.0182107500731945
-0.0167477410286664
-0.0148706594482064
-0.0127469291910529
-0.0105369668453931
-0.0083842519670724
-0.0064035756513476
-0.0046683615073561
-0.003202422754839
-0.0019845808856189
-0.0009663507807999
-8.981907740235329e-05
0.0007058449555188
0.0014843603130429
0.002308526309207
0.0032326872460544
0.0042949323542416
0.0055105378851294
0.0068706744350492
0.008347937837243
0.0099031496793031
0.0114900395274162
0.0130609301850199
0.0145735749974846
0.0159926898777484
0.0172788426280021
0.0183680672198534
0.0191578958183527
0.0195103269070386
0.0192722100764513
0.0183075089007616
0.0165296755731105
0.0139253474771976
0.0105659598484635
0.0066055306233465
0.0022652591578662
-0.0021903025917708
-0.0064792148768901
-0.0103297661989927
-0.0135086514055728
-0.0158417355269193
-0.0172284040600061
-0.0176560189574956
-0.0172044839709997
-0.0160291958600282
-0.0143311116844415
-0.0123277585953474
-0.0102287512272596
-0.0082164537161588
-0.0064327949658036
-0.0049701994284987
-0.0038657274562865
-0.0031027349177747
-0.0026231512892991
-0.0023451161105185
-0.0021753727924078
-0.0020136183593422
-0.0017600399442017
-0.0013328799977898
-0.0006858459673821
0.0001855157315731
0.0012502488680183
0.0024567190557718
0.0037459610030055
0.0050596497021615
0.0063455384224653
0.0075597404502332
0.0086660729721188
0.009631659835577
0.0104155372828245
0.0109571581706404
0.0111740101128816
0.0109687326475977
0.0102431746199727
0.0089153824374079
0.0069384137168526
0.0043191816657781
0.0011300584301352
-0.0024902569130063
-0.006347622256726
-0.010213641449809
-0.0138504542410373
-0.0170346312224864
-0.0195781588554382
-0.021345442160964
-0.0222652591764926
-0.022335011512041
-0.0216152854263782
-0.0202156566083431
-0.0182808488607406
-0.0159835610538721
-0.013514095917344
-0.0110585875809192
-0.0087739061564207
-0.0067695607431232
-0.005099453497678
-0.0037639506626874
-0.0027200861368328
-0.0018953746184706
-0.0012028878554701
-0.000553925987333
0.0001336871646344
0.0009284764528274
0.0018806527368724
0.0030212975107133
0.0043576192110776
0.0058632232248783
0.00747791538015
0.0091230403631925
0.0107191754505038
0.0121954157948493
0.0134917711839079
0.0145591227337718
0.0153553131967782
0.0158344041556119
0.0159365162253379
0.0155878160148859
0.0147108454257249
0.0132433446124196
0.0111618321388959
0.0085006430745124
0.0053592072799801
0.001895572990179
-0.0016929842531681
-0.005196563899517
-0.0084160827100276
-0.0111788623034954
-0.0133474376052618
-0.014823717996478
-0.0155547894537448
-0.0155402058735489
-0.0148340109735727
-0.0135411825031042
-0.0118082370609045
-0.0098062604665756
-0.0077083613723516
-0.0056659416295588
-0.0037938656751066
-0.002169317100197
-0.0008346028625965
0.0002027102746069
0.0009684106335043
0.0015165107324719
0.001922158524394
0.0022726980969309
0.0026561697013676
0.0031486423686146
0.00380385434255
0.0046479045413434
0.0056779705919325
0.0068635256029665
0.0081520024687051
0.0094824098050594
0.0107989739626646
0.0120512153953313
0.0131874307990074
0.0141545236110687
0.0148987667635083
0.0153609570115804
0.0154712134972214
0.0151495663449168
0.0143145462498068
0.0128987189382314
0.0108649600297212
0.0082195159047842
0.0050249267369508
0.0014092056080698
-0.0024392856284976
-0.0062926695682108
-0.009914125315845
-0.0130899483337998
-0.0156534630805253
-0.0174978543072938
-0.0185805093497037
-0.0189206786453723
-0.018590647727251
-0.0177022069692611
-0.0163929648697376
-0.0148140164092183
-0.0131169855594635
-0.0114390915259718
-0.0098881321027874
-0.0085334442555904
-0.007403832860291
-0.0064886682666838
-0.0057457135990262
-0.0051175635308027
-0.0045463177375495
-0.0039792470633983
-0.0033698687329888
-0.002680015284568
-0.0018829060718417
-0.000963102094829
8.508237078785896e-05
0.001255365088582
0.0025260825641453
0.0038610901683568
0.0052156648598611
0.0065435846336185
0.0078041544184088
0.0089692045003175
0.0100204851478338
0.0109333861619234
0.0116605795919895
0.0121270772069692
0.0122365625575184
0.011885623447597
0.0109836021438241
0.0094747859984636
0.0073549095541238
0.0046781180426478
0.0015584686771035
-0.0018367543816566
-0.0053050485439598
-0.0086315218359231
-0.011611096560955
-0.0140647832304239
-0.0158526226878166
-0.0168931018561124
-0.0171775817871093
-0.0167633667588233
-0.0157562531530857
-0.0142965568229556
-0.0125439688563346
-0.0106590678915381
-0.0087878266349434
-0.0070492499507963
-0.0055244723334908
-0.0042503238655626
-0.0032219621352851
-0.0024051205255091
-0.0017478644149377
-0.0011839169310405
-0.000636925920844
-3.550923429429531e-05
0.0006686097476631
0.0014936232473701
0.0024351903703063
0.0034767945762723
0.0045936256647109
0.0057561150752007
0.0069355210289359
0.0081056663766503
0.0092410892248153
0.0103154443204402
0.0113032963126897
0.0121841114014387
0.0129434941336512
0.0135681284591555
0.0140316952019929
0.0142797455191612
0.0142283979803323
0.0137774664908647
0.0128311812877655
0.011322078295052
0.0092319948598742
0.0066058258526027
0.0035542612895369
0.000243476126343
-0.0031239443924278
-0.0063327923417091
-0.0091812843456864
-0.0115040438249707
-0.0131852189078927
-0.0141606535762548
-0.0144186597317457
-0.0140044819563627
-0.0130187980830669
-0.011604132130742
-0.0099245924502611
-0.0081463512033224
-0.0064232419244945
-0.0048845945857465
-0.0036217458546161
-0.0026785698719322
-0.002051819814369
-0.0016986664850264
-0.0015469086356461
-0.0015077085699886
-0.0014875460183247
-0.0013951134169474
-0.0011504889698699
-0.0007011881098151
-3.320747055113316e-05
0.0008313726866617
0.0018459828570485
0.0029542245902121
0.004100945778191
0.0052361637353897
0.0063169552013278
0.0073100738227367
0.0081901438534259
0.0089329862967133
0.0095090987160801
0.0098796216771006
0.0099955219775438
0.0097985360771417
0.0092231482267379
0.0082042645663023
0.0066934656351804
0.0046804239973425
0.0022122177761048
-0.0005993185332044
-0.0035883621312677
-0.0065599335357546
-0.0093188155442476
-0.0116936331614851
-0.0135517502203583
-0.0148060666397213
-0.0154176708310842
-0.0153970625251531
-0.0147997345775365
-0.0137122366577386
-0.0122403120622038
-0.0105073135346174
-0.0086492588743567
-0.0067985644564032
-0.0050666956230998
-0.0035326331853866
-0.0022369148209691
-0.0011825752444565
-0.0003417967818677
0.0003360984846949
0.0009174589067697
0.0014771590940654
0.0020885500125586
0.0028118132613599
0.0036876862868666
0.0047373520210385
0.0059617292135953
0.0073371357284486
0.0088139167055487
0.0103254402056336
0.0118019971996545
0.0131794940680265
0.0144029967486858
0.0154282040894031
0.0162195060402154
0.0167442560195922
0.0169662609696388
0.0168408490717411
0.016314323991537
0.015333124436438
0.0138614773750305
0.0118988174945116
0.0094904564321041
0.0067292107269167
0.0037479409947991
0.0007046844111755
-0.0022334761451929
-0.004904493689537
-0.0071671549230813
-0.0089161777868866
-0.0100896274670958
-0.01066854596138
-0.0106749553233385
-0.0101706758141517
-0.0092512620612978
-0.0080338642001152
-0.0066423835232853
-0.0051928348839282
-0.0037870325613766
-0.0025146114639937
-0.0014513772912323
-0.0006506741046905
-0.0001340857706964
0.0001149524468928
0.0001506521366536
5.317875184118748e-05
-8.778320625424385e-05
-0.0001848642714321
-0.0001610743347555
4.288787022233009e-05
0.000463293865323
0.0011107386089861
0.0019698112737387
0.0030045507010072
0.0041679888963699
0.0054063750430941
0.0066585415042936
0.0078571755439043
0.0089331660419702
0.0098191695287823
0.0104478038847446
0.0107460506260395
0.010633666999638
0.0100322002544999
0.0088829016312956
0.007167131640017
0.0049215825274586
0.002241980517283
-0.0007221613777801
-0.0037789554335176
-0.006717103999108
-0.0093386946246027
-0.011486149393022
-0.0130529878661036
-0.0139843337237834
-0.0142751969397068
-0.0139666274189949
-0.0131379505619406
-0.0118967182934284
-0.0103684971109032
-0.0086849611252546
-0.0069702975451946
-0.0053310422226786
-0.0038505552802234
-0.0025828694924712
-0.0015449333004653
-0.0007163507398217
-5.241064354777336e-05
0.0005003255791962
0.0009968897793442
0.0014914791099727
0.002033426426351
0.0026615143287926
0.0033982098102569
0.0042456476949155
0.0051880991086363
0.0062003694474697
0.0072538973763585
0.0083179045468568
0.0093581778928637
0.0103403534740209
0.0112413978204131
0.0120512619614601
0.0127522516995668
0.013296022079885
0.0135991480201482
0.0135561618953943
0.0130593944340944
0.0120192421600222
0.0103847309947013
0.0081639066338539
0.0054366183467209
0.0023503899574279
-0.0008995441021397
-0.0040972717106342
-0.0070331832394003
-0.0095262173563241
-0.0114384554326534
-0.0126832369714975
-0.0132311088964343
-0.0131136570125818
-0.0124199911952018
-0.0112832989543676
-0.0098604746162891
-0.0083104539662599
-0.0067771170288324
-0.0053782975301146
-0.0041979476809501
-0.0032804110087454
-0.0026293690316379
-0.00221439008601
-0.0019826628267765
-0.0018687641713768
-0.0018012425862252
-0.0017117897514253
-0.0015488311182707
-0.0012874330859631
-0.0009258332429453
-0.0004733768873848
5.6736229453235865e-05
0.0006491566309705
0.0012881677830591
0.0019575026817619
0.0026388727128505
0.0033144778572022
0.0039697955362498
0.0045885574072599
0.0051408661529421
0.0055751679465174
0.0058217947371304
0.0058010201901197
0.0054291109554469
0.0046291584149003
0.0033496567048132
0.0015849221963435
-0.0006104706553742
-0.003121412359178
-0.0057860147207975
-0.0084158722311258
-0.0108185969293117
-0.0128210205584764
-0.0142901223152875
-0.0151474364101886
-0.015373058617115
-0.0150000369176268
-0.0141032030805945
-0.0127856871113181
-0.0111668771132826
-0.0093735940754413
-0.0075319288298487
-0.0057586445473134
-0.0041524223051965
-0.0027831057086586
-0.0016807629726827
-0.0008318675681948
-0.0001877967733889
0.0003192340955138
0.0007641962729394
0.0012216088362038
0.0017552741337567
0.0024117366410791
0.0032234999816864
0.0042094816453754
0.0053642881102859
0.006648663431406
0.0079947626218199
0.0093241073191165
0.0105657968670129
0.0116655547171831
0.0125854164361953
0.0132963936775922
0.0137653537094593
0.013944998383522
0.013774974271655
0.0131914727389812
0.0121437506750226
0.0106151467189192
0.0086396215483546
0.0063041499815881
0.003734525758773
0.0010766102932393
-0.0015167626552283
-0.0038987349253147
-0.0059431972913444
-0.0075543788261711
-0.008671429939568
-0.0092707443982362
-0.0093653388321399
-0.0090031391009688
-0.0082625607028603
-0.0072432346642017
-0.0060550486668944
-0.0048048347234725
-0.0035837106406688
-0.0024654443841427
-0.001509835710749
-0.0007559249643236
-0.0002112374641001
0.0001494125463068
0.0003762261476367
0.0005330757703632
0.0006849123165011
0.0008868651930242
0.0011799277272075
0.0015922231832519
0.0021386556327342
0.0028192971367388
0.0036196908913552
0.0045122187584638
0.0054608630016446
0.0064276782795786
0.0073748021386563
0.0082610798999667
0.0090362019836902
0.009637527167797
0.0099904099479317
0.0100120930001139
0.009624502621591
0.008770721964538
0.0074262749403715
0.0056080054491758
0.0033803281839936
0.0008526924066245
-0.001832554815337
-0.0045143673196434
-0.007022357545793
-0.0091902837157249
-0.0108814518898725
-0.0120120327919721
-0.0125577626749873
-0.0125466948375105
-0.0120476400479674
-0.0111579447984695
-0.0099899005144834
-0.0086573818698525
-0.0072645917534828
-0.005899641662836
-0.0046329665929079
-0.0035151042975485
-0.0025718742981553
-0.0017981596756726
-0.0011553596705198
-0.0005835993215441
-2.592918463051319e-05
0.0005561627913266
0.001183588639833
0.0018649749690666
0.0026006055995821
0.0033869594335556
0.0042203860357403
0.0050975461490452
0.006011632271111
0.0069487588480114
0.0078893536701798
0.0088103367015719
0.0096856663003563
0.0104882847517728
0.0111903790384531
0.0117567759007215
0.0121352421119809
0.0122523577883839
0.0120189432054758
0.0113448658958077
0.010161355137825
0.00844556838274
0.0062373275868594
0.0036394228227436
0.0008036836516112
-0.0020899176597595
-0.0048555480316281
-0.0073216930031776
-0.009348802268505
-0.0108395516872406
-0.0117393098771572
-0.0120372325181961
-0.0117727825418114
-0.0110378433018922
-0.0099651357159018
-0.0087061319500207
-0.0074097942560911
-0.0062046139501035
-0.0051816282793879
-0.0043862266466021
-0.0038234365638345
-0.0034686126746237
-0.0032754696439951
-0.0031816300470381
-0.0031170384027063
-0.0030138352885842
-0.0028091978747397
-0.0024468575138598
-0.001890477607958
-0.0011385949328541
-0.0002223402989329
0.0008091913186945
0.0019011043477803
0.0030009783804416
0.0040656942874193
0.0050632846541702
0.0059703071601688
0.0067688478156924
0.0074432068504393
0.0079735815525054
0.008326425217092
0.0084492219612002
0.0082770492881536
0.0077454140409827
0.0068023083731532
0.0054223160259425
0.0036220457404851
0.0014670763630419
-0.0009344340069219
-0.003445184091106
-0.0059119299985468
-0.0081790536642074
-0.0101034063845872
-0.0115672843530774
-0.0124895423650741
-0.0128346066921949
-0.0126166781410574
-0.0118965562433004
-0.0107689248397946
-0.0093477601185441
-0.0077597801573574
-0.0061397347599267
-0.0046172770671546
-0.0032969722524285
-0.0022418396547436
-0.0014684011694043
-0.0009508949005976
-0.0006304202834144
-0.0004276292165741
-0.0002574621466919
-4.313362296670675e-05
0.0002744478406384
0.0007318893913179
0.0013439606409519
0.0021107885986566
0.0030236802995204
0.0040630670264363
0.005193025805056
0.0063605140894651
0.0075027728453278
0.0085586253553628
0.0094773676246404
0.0102204997092485
0.0107534425333142
0.0110332639887928
0.0110050477087497
0.0106089059263467
0.0097898850217461
0.0085105374455451
0.0067678978666663
0.004606916103512
0.0021203230135142
-0.0005658974987454
-0.0033110566437244
-0.0059719821438193
-0.0084104500710964
-0.0105029493570327
-0.0121511770412325
-0.0132879354059696
-0.0138807808980345
-0.0139351682737469
-0.0134943835437297
-0.0126357497647404
-0.0114623149856925
-0.0100900465622544
-0.0086327288299798
-0.0071865594945847
-0.0058216452598571
-0.0045847580768167
-0.0035049684811383
-0.0025936658494174
-0.0018405609298497
-0.0012142113409936
-0.000669949222356
-0.0001579681411385
0.0003700358793139
0.0009527595248073
0.0016148663125932
0.0023678559809923
0.0032113313209265
0.0041352766565978
0.005124180112034
0.0061618415638804
0.0072345621883869
0.0083252293989062
0.0094001069664955
0.0104035716503858
0.0112636592239141
0.0118972565978765
0.0122149642556905
0.0121311116963624
0.0115753635764122
0.0105034820735454
0.0089089963585138
0.0068337083794176
0.0043714246712625
0.0016617006622254
-0.0011237373109906
-0.0037970812991261
-0.0061750225722789
-0.0081062912940979
-0.0094941314309835
-0.0103015359491109
-0.0105444053187966
-0.0102812414988875
-0.0096005033701658
-0.0086073400452733
-0.0074132508598268
-0.0061278236098587
-0.0048496383242309
-0.00365666532889
-0.0026004235260188
-0.0017068972811102
-0.0009779734537005
-0.0003886902704834
0.0001087016426026
0.0005669523961842
0.0010273377411067
0.0015179230831563
0.0020591667853295
0.0026658866554498
0.0033447043970227
0.0040917936712503
0.004895091522485
0.0057379393838346
0.0066003515385091
0.0074596395716071
0.0082912296056747
0.0090719759464263
0.0097878351807594
0.0104367788881063
0.0110152391716837
0.0114939212799072
0.0118026193231344
0.0118341743946075
0.0114645194262266
0.0105809262022376
0.0091093340888619
0.0070358151569962
0.0044185402803123
0.0013846948277205
-0.0018891994841396
-0.0052053239196538
-0.0083671947941184
-0.0111933872103691
-0.0135284289717674
-0.0152522232383489
-0.0162889901548624
-0.0166190527379512
-0.0162872616201639
-0.0153963677585124
-0.0140859466046094
-0.0125094614923
-0.0108158774673938
-0.0091357380151748
-0.0075739882886409
-0.0062068197876214
-0.0050758845172822
-0.0041818507015705
-0.0034865983761847
-0.0029260185547173
-0.0024235029704868
-0.0018984344787895
-0.0012761121615767
-0.0005025980062782
0.0004449849948287
0.0015595718286931
0.0028118812479078
0.0041610528714954
0.0055654575116932
0.0069882972165942
0.0083964699879288
0.0097565595060586
0.0110343974083662
0.0121990963816642
0.0132251679897308
0.0140868807211518
0.0147470738738775
0.0151505786925554
0.0152239110320806
0.0148777365684509
0.0140181211754679
0.0125686600804328
0.0104971071705222
0.0078364685177803
0.0046893302351236
0.0012162550119683
-0.0023823094088584
-0.0058860974386334
-0.0090772388502955
-0.0117637328803539
-0.0137993954122066
-0.0150963515043258
-0.0156285446137189
-0.0154269281774759
-0.0145732164382934
-0.0131962466984987
-0.0114631429314613
-0.0095590846613049
-0.0076617011800408
-0.0059185149148106
-0.0044317264109849
-0.003251826390624
-0.0023789918050169
-0.0017713559791445
-0.0013581491075456
-0.0010527377016842
-0.0007638926617801
-0.0004070149734616
8.640578016638756e-05
0.0007646717131137
0.0016546077094972
0.0027577348519116
0.0040466161444783
0.0054691932164132
0.0069615854881703
0.0084593556821346
0.0099013727158308
0.0112329181283712
0.0124100521206855
0.0134009821340441
0.0141836497932672
0.0147352963685989
0.0150161832571029
0.0149623649194836
0.0144952004775404
0.0135420253500342
0.0120548643171787
0.0100195296108722
0.0074622323736548
0.0044577931985259
0.001132255536504
-0.0023462160024791
-0.005785958841443
-0.0089909564703702
-0.0117773590609431
-0.0139915598556399
-0.0155283603817224
-0.0163424368947744
-0.0164483003318309
-0.0159112196415662
-0.0148366410285234
-0.0133586721494793
-0.0116263404488563
-0.0097923474386334
-0.0080020949244499
-0.0063766418024897
-0.0049951318651437
-0.003887889906764
-0.0030407982412725
-0.0024038841947913
-0.001902449177578
-0.001451444113627
-0.0009706411510705
-0.0003969306126236
0.0003099159803241
0.0011663630139082
0.0021680840291082
0.0032998968381434
0.0045438492670655
0.0058755241334438
0.0072583220899105
0.0086456146091222
0.009986556135118
0.0112307947129011
0.0123299062252044
0.0132321193814277
0.0138725489377975
0.0141675528138875
0.014018427580595
0.0133244916796684
0.0120028313249349
0.0100104818120598
0.0073664407245814
0.0041682170704007
0.0005894289934076
-0.0031477194279432
-0.0068094292655587
-0.0101788369938731
-0.0130732227116823
-0.0153530361130833
-0.0169264487922191
-0.0177521184086799
-0.0178405735641717
-0.0172549188137054
-0.0161061659455299
-0.0145379807800054
-0.0127083072438836
-0.0107747418805956
-0.008878581225872
-0.0071271788328886
-0.0055864960886538
-0.0042869793251156
-0.0032291405368596
-0.0023847380653023
-0.0017019342631101
-0.0011143535375595
-0.000550496391952
5.759298801422119e-05
0.0007681050337851
0.0016239245887845
0.0026469621807336
0.0038352021947503
0.0051641822792589
0.006593395024538
0.0080762421712279
0.0095692472532391
0.0110345315188169
0.0124347424134612
0.0137264765799045
0.0148541238158941
0.0157433431595563
0.0162987876683473
0.0164091661572456
0.0159582179039716
0.0148428920656442
0.0129993259906768
0.0104282246902585
0.0072076823562383
0.0034902994520962
-0.0005109820049256
-0.0045449673198163
-0.0083479490131139
-0.0116707347333431
-0.0143087757751345
-0.0161286890506744
-0.0170789454132318
-0.0171838775277137
-0.0165297649800777
-0.0152487941086292
-0.0135022718459367
-0.0114646833389997
-0.0093087386339902
-0.0071914489381015
-0.0052425283938646
-0.0035553111229091
-0.0021819346584379
-0.0011319816112518
-0.0003707187715917
0.0001763342879712
0.0006050632800906
0.0010105017572641
0.0014730438124388
0.0020535278599709
0.002792558632791
0.00370988342911
0.0048022740520536
0.006043423898518
0.007389647886157
0.0087897535413503
0.0101941237226128
0.0115591194480657
0.0128480195999145
0.0140307042747735
0.0150768375024199
0.0159390941262245
0.0165367182344198
0.0167532414197921
0.0164508055895566
0.0154959931969642
0.0137902600690722
0.0112968450412154
0.0080578550696372
0.0041977623477578
-8.620135486125946e-05
-0.0045461039990186
-0.0089155286550521
-0.0129393516108393
-0.0163943096995353
-0.019105115905404
-0.0209545772522687
-0.021888330578804
-0.0219207741320133
-0.0211378093808889
-0.0196879282593727
-0.0177627466619014
-0.015573083423078
-0.0133228693157434
-0.0111826313659548
-0.0092718740925192
-0.0076562296599149
-0.0063526309095323
-0.0053371442481875
-0.0045562186278402
-0.0039398754015564
-0.003412157529965
-0.0028958464972674
-0.0023177876137197
-0.0016217641532421
-0.0007790164090692
0.0002146246843039
0.0013465723022818
0.0025910299737006
0.0039136260747909
0.0052804518491029
0.006663255393505
0.0080349585041403
0.0093610398471355
0.0105926264077425
0.011660199612379
0.0124681983143091
0.0128990951925516
0.0128324562683701
0.0121664423495531
0.0108311139047145
0.0088030723854899
0.0061240745708346
0.0029113460332155
-0.0006450992077589
-0.0042990110814571
-0.0077775954268872
-0.0108155086636543
-0.0131878769025206
-0.0147386128082871
-0.0153958797454833
-0.0151730068027973
-0.0141597157344222
-0.0125071927905082
-0.0104074794799089
-0.0080700628459453
-0.0057012126781046
-0.0034850048832595
-0.0015623862855136
-1.3375189155340196e-05
0.0011490569449961
0.001971885561943
0.0025434042327106
0.002968808170408
0.0033519323915243
0.0037862351164221
0.004349554888904
0.0050994763150811
