bvp
0.0244152285158634
0.0249329265207052
0.0246871598064899
0.0235748067498207
0.0215534139424562
0.0186552871018648
0.0149954864755272
0.0107702957466244
0.0062411213293671
0.0017067093867808
-0.0025292648933827
-0.0061880801804363
-0.0090423990041017
-0.0109411794692277
-0.0118242464959621
-0.0117183635011315
-0.010723759420216
-0.0090017216280102
-0.0067565497010946
-0.0042052567005157
-0.0015500318259
0.0010350397787988
0.0034121959470212
0.0054883286356925
0.0072200261056423
0.0086137168109416
0.0097192069515585
0.0106168966740369
0.0114020677283406
0.0121687846258282
0.0129928681999444
0.013917239382863
0.0149489575996994
0.0160679593682289
0.017238937318325
0.0184230934828519
0.0195846166461706
0.0206860918551683
0.0216819755733013
0.0225188545882701
0.0231335964053869
0.0234429351985454
0.0233351960778236
0.0226778350770473
0.0213421136140823
0.0192326288670301
0.0163098983466625
0.0126043017953634
0.0082241082563996
0.0033568451181054
-0.0017413692548871
-0.0067717498168349
-0.0114314695820212
-0.0154563942924141
-0.0186523497104644
-0.0209075175225734
-0.0221946574747562
-0.0225682333111763
-0.0221517160534858
-0.02111685462296
-0.0196633990854024
-0.018000416457653
-0.0163250900804996
-0.0148020526394248
-0.0135495755821466
-0.0126317050307989
-0.0120529867708683
-0.0117597738280892
-0.011657228693366
-0.0116383638232946
-0.0116065442562103
-0.0114850392565131
-0.011220428161323
-0.0107826758176088
-0.0101637691259384
-0.0093744024634361
-0.0084376223385334
-0.0073855547234416
-0.0062605836428701
-0.0051127709448337
-0.0039946250617504
-0.0029644351452589
-0.0020958315581083
-0.0014804899692535
-0.0012243567034602
-0.0014430359005928
-0.0022483309730887
-0.0037215044721961
-0.0058862161822617
-0.0086918771266937
-0.0120069999247789
-0.0156248454004526
-0.0192862246185541
-0.0227134767919778
-0.0256423000246286
-0.0278471391648054
-0.0291636697947978
-0.0295052789151668
-0.0288663562387228
-0.0273151397705078
-0.0249850936233997
-0.0220642313361167
-0.0187751203775405
-0.0153483673930168
-0.0119989765807986
-0.0089060114696621
-0.0061935018748044
-0.0039193090051412
-0.0020773475989699
-0.0006081047467887
0.0005882205441594
0.0016339644789695
0.0026517207734286
0.0037455749697983
0.0049928156659007
0.00644335988909
0.0081167612224817
0.0099965892732143
0.0120333302766084
0.0141551159322261
0.0162771269679069
0.0183101184666156
0.0201667416840791
0.0217575691640377
0.0229795612394809
0.023711659014225
0.0238270983099937
0.0232179369777441
0.0218208469450473
0.0196370556950569
0.0167451165616512
0.013305552303791
0.0095483884215354
0.0057386495172977
0.0021367562003433
-0.0010273833759129
-0.0035693338140845
-0.0053615532815456
-0.0063400669023394
-0.0065066125243902
-0.0059263231232762
-0.0047176582738757
-0.0030351309105753
-0.001049936749041
0.0010677203536033
0.0031659505330026
0.0051288539543747
0.0068875551223754
0.0084165064617991
0.0097176572307944
0.0108056776225566
0.011703330092132
0.0124416137114167
0.0130550805479288
0.0135727738961577
0.0140118561685085
0.0143768908455967
0.0146627370268106
0.0148593978956341
0.014959143474698
0.0149633772671222
0.014884503558278
0.0147415297105908
0.0145497564226388
0.0143026076257228
0.0139504354447126
0.0133945625275373
0.0125071415677666
0.0111654931679368
0.0092870304360985
0.0068593779578804
0.0039582625031471
0.0007448237156495
-0.0025564285460859
-0.005690305493772
-0.0084059759974479
-0.0104899806901812
-0.0117945596575737
-0.0122535591945052
-0.0118795270100235
-0.0107520809397101
-0.0090104257687926
-0.0068440190516412
-0.0044724489562213
-0.0021185190416872
1.935864565894008e-05
0.0017908237641677
0.0031097372993826
0.0039631072431802
0.004410293418914
0.0045694289728999
0.0045955870300531
0.0046577397733926
0.0049163033254444
0.0055002635344862
0.0064886445179581
0.0079030226916074
0.0097083915024995
0.0118178278207778
0.0141025362536311
0.0164087321609258
0.0185816138982772
0.0204895865172147
0.0220345053821802
0.0231440253555774
0.0237553026527166
0.0238016285002231
0.0232079457491636
0.0218955017626285
0.0197975188493728
0.0168845895677804
0.013189947232604
0.0088208857923746
0.0039476677775382
-0.0012208186089992
-0.006455878727138
-0.0115204481408
-0.0161864757537841
-0.0202602259814739
-0.0236029345542192
-0.0261396467685699
-0.0278588198125362
-0.0288073346018791
-0.0290824081748724
-0.0288190431892871
-0.028174165636301
-0.0273078400641679
-0.0263619050383567
-0.025445457547903
-0.0246338993310928
-0.0239717923104763
-0.0234706159681081
-0.0231078434735536
-0.02283476293087
-0.0225896090269088
-0.0223084166646003
-0.0219316910952329
-0.0214082915335893
-0.0206955969333648
-0.019757829606533
-0.0185679830610752
-0.0171134378761053
-0.0154013987630605
-0.0134633090347051
-0.0113616585731506
-0.0091994842514395
-0.0071228053420782
-0.0053096213378012
-0.0039501665160059
-0.0032216978725045
-0.00325673003681
-0.0041096205823123
-0.0057360660284757
-0.0079950392246246
-0.010666524991393
-0.0134767312556505
-0.0161311347037553
-0.0183519329875707
-0.0199094098061323
-0.0206410326063632
-0.020460095256567
-0.0193581078201532
-0.0174017641693353
-0.01472251676023
-0.0114975310862064
-0.0079253539443016
-0.0042046969756484
-0.0005174931138753
0.0029892707243561
0.0062179109081625
0.009122903458774
0.0117055913433432
0.0140061434358358
0.0160944443196058
0.0180594138801097
0.0199946016073226
0.0219794902950525
0.0240598544478416
0.0262344367802143
0.0284556932747364
0.0306443981826305
0.0327072031795978
0.0345494709908962
0.0360853895545005
0.0372444912791252
0.0379678644239902
0.0381951369345188
0.0378554537892341
0.036871250718832
0.0351711772382259
0.0327084548771381
0.0294832047075033
0.0255599413067102
0.0210718438029289
0.0162132680416107
0.0112231774255633
0.0063600288704037
0.0018732477910816
-0.0020210035145282
-0.0051557021215558
-0.0074238129891455
-0.0087884906679391
-0.0092875659465789
-0.009028029628098
-0.0081740114837884
-0.0069286143407225
-0.0055074687115848
-0.0041077374480664
-0.0028865067288279
-0.0019579210784286
-0.0013957147020846
-0.001228719484061
-0.0014384458772838
-0.0019648084416985
-0.0027137044817209
-0.0035683163441717
-0.0044083972461521
-0.005129765253514
-0.0056560677476227
-0.0059428182430565
-0.0059762033633887
-0.0057679740712046
-0.0053471368737518
-0.0047526992857456
-0.0040365131571888
-0.0032774887513369
-0.0025926386006176
-0.0021325112320482
-0.002061441540718
-0.0025290520861744
-0.003641452640295
-0.0054376409389078
-0.0078752394765615
-0.0108294207602739
-0.0141036799177527
-0.0174515619874
-0.0206078588962554
-0.0233212318271398
-0.0253813099116086
-0.0266372188925743
-0.0270080082118511
-0.0264887735247612
-0.0251497868448495
-0.0231246035546064
-0.0205914620310068
-0.0177520103752613
-0.0148084247484803
-0.0119415801018476
-0.0092941094189882
-0.0069608697667717
-0.0049875495024025
-0.0033753381576389
-0.0020878729410469
-0.0010599470697343
-0.0002071042545139
0.0005644955672323
0.0013426593504846
0.0021909903734922
0.0031394995748996
0.0041858376935124
0.0053033744916319
0.0064538931474089
0.0075994124636054
0.0087064821273088
0.0097414944320917
0.0106611233204603
0.0114026675000786
0.0118791442364454
0.0119860600680112
0.0116239953786134
0.0107295978814363
0.009298013523221
0.007386615499854
0.0051051126793026
0.0026017213240265
5.027558654546738e-05
-0.0023616892285645
-0.004448511172086
-0.0060480264946818
-0.0070423167198896
-0.0073703145608305
-0.0070326775312423
-0.0060900468379259
-0.0046540386974811
-0.0028717834502458
-0.0009047789499163
0.0010958462953567
0.00301019474864
0.0047554154880344
0.0062776762060821
0.0075464807450771
0.0085568940266966
0.0093321176245808
0.0099230157211422
0.0104028824716806
0.0108547396957874
0.0113540263846516
0.0119560174643993
0.0126930931583046
0.0135734230279922
0.0145759880542755
0.0156525317579507
0.0167418103665113
0.0177833009511232
0.0187143012881279
0.0194531194865703
0.0198887474834918
0.019888998940587
0.0193223934620618
0.0180858522653579
0.016131917014718
0.0134887220337986
0.0102659780532121
0.0066445637494325
0.002854416379705
-0.0008540204726159
-0.0042422581464052
-0.007112571503967
-0.0093220425769686
-0.010783021338284
-0.0114647485315799
-0.0113998055458068
-0.0106838280335068
-0.0094640925526618
-0.0079208044335246
-0.0062437718734145
-0.0046084020286798
-0.0031569532584398
-0.0019874111749231
-0.0011460569221526
-0.0006241732044145
-0.000367434346117
-0.0002959192206617
-0.0003216305340174
-0.0003604626981541
-0.0003409085038583
-0.0002086571039399
6.906705675646663e-05
0.0004996042698621
0.0010665645822882
0.0017347708344459
0.0024562934413552
0.0031782118603587
0.0038477666676044
0.0044101998209953
0.0048003979027271
0.0049355230294167
0.0047181667760014
0.0040532303974032
0.0028700486291199
0.0011418901849538
-0.0010964849498122
-0.0037400880828499
-0.0066244448535144
-0.0095500200986862
-0.0123094338923692
-0.014712318778038
-0.0166023895144462
-0.0178659800440073
-0.0184374712407588
-0.0183036066591739
-0.0175032019615173
-0.0161210019141435
-0.0142786111682653
-0.0121227959170937
-0.0098095722496509
-0.0074855685234069
-0.0052704168483614
-0.0032466903794556
-0.001461373292841
6.726931314915419e-05
0.0013456940650939
0.0024045153986662
0.0032959529198706
0.0040841996669769
0.0048321718350052
0.0055939052253961
0.0064124790951609
0.0073155835270881
0.0083091193810105
0.0093766395002603
0.0104864789173007
0.0116002233698964
0.0126771200448274
0.013671152293682
0.0145192053169012
0.0151300812140107
0.0153887625783681
0.015176948159933
0.0143985757604241
0.0130017735064029
0.01099618896842
0.0084624728187918
0.0055479877628386
0.0024487408809363
-0.0006165006197988
-0.0034335292875766
-0.0058175334706902
-0.0076313777826726
-0.0087927738204598
-0.009275360032916
-0.0091124679893255
-0.008397246710956
-0.0072699729353189
-0.0058967806398868
-0.0044473032467067
-0.0030744967516511
-0.0018986868672072
-0.0009978208690881
-0.00040382752195
-0.0001037688925862
-4.649162292480469e-05
-0.0001562619581818
-0.0003499235026538
-0.0005482961423695
-0.0006798398680984
-0.0006870748475193
-0.0005388897843658
-0.0002371575683355
0.0001897891052067
0.0007007345557212
0.0012525301426649
0.001806363929063
0.0023307455703616
0.0027989102527499
0.0031790696084499
0.0034209918230772
0.0034494940191507
0.0031742481514811
0.0025096526369452
0.0013937251642346
-0.0001941034570336
-0.0022200471721589
-0.0045982454903423
-0.0072029465809464
-0.0098787918686866
-0.012452557682991
-0.0147523470222949
-0.0166273415088653
-0.0179590005427598
-0.0186682138592004
-0.0187257472425699
-0.0181599222123622
-0.0170536469668149
-0.0155303534120321
-0.0137318288907408
-0.0117950411513447
-0.0098359873518347
-0.0079446583986282
-0.0061881570145487
-0.0046135485172271
-0.0032465292606502
-0.002089271787554
-0.0011209452059119
-0.0003018284915015
0.0004194888751953
0.0010984988184645
0.0017883916152641
0.0025337943807244
0.0033654291182756
0.0042973579838871
0.0053272801451385
0.0064402911812067
0.0076134563423693
0.0088146608322858
0.0099945422261953
0.0110806636512279
0.0119826775044202
0.0126061979681253
0.0128642152994871
0.0126815326511859
0.0120023936033248
0.0108066480606794
0.0091229975223541
0.0070310081355273
0.004656427539885
0.00216128048487
-0.0002749662380665
-0.0024775012861937
-0.0042926059104502
-0.0056027360260486
-0.0063436939381062
-0.0065136174671351
-0.0061685433611273
-0.0054085608571767
-0.0043577966280281
-0.0031452807597815
-0.0018934515537694
-0.0007116071647033
0.0003118829336017
0.0011200453154742
0.0016936126630753
0.0020474805496633
0.0022225107531994
0.0022785577457398
0.0022882774937897
0.0023271944373846
0.0024576655123382
0.0027148495428264
0.0031028985977172
0.0035998215898871
0.0041670016944408
0.0047595044597983
0.0053354315459728
0.005864068865776
0.0063268830999732
0.0067088748328387
0.0069891926832497
0.0071364399045705
0.0071065612137317
0.0068445866927504
0.0062912278808653
0.0053913909941911
0.0041035315953195
0.0024099540896713
0.0003283666446805
-0.0020779422484338
-0.0046995226293802
-0.0073924930766224
-0.0099950665608048
-0.0123441191390156
-0.0142938494682312
-0.0157355554401874
-0.0166120398789644
-0.0169194769114255
-0.0166978854686021
-0.0160199478268623
-0.0149809028953313
-0.0136881405487656
-0.0122541664168238
-0.0107886884361505
-0.0093834046274423
-0.0080992728471755
-0.0069657899439334
-0.0059847477823495
-0.0051317894831299
-0.0043622469529509
-0.0036240096669644
-0.0028685864526778
-0.0020566708408296
-0.0011634507682174
-0.0001822814811021
0.0008799820207059
0.0020111850462853
0.0031951828859746
0.0044075581245124
0.005613257177174
0.0067703765816986
0.0078390296548604
0.0087856026366353
0.0095763560384511
0.0101701999083161
0.0105183962732553
0.0105678010731935
0.0102679170668125
0.0095825335010886
0.0085015222430229
0.0070506297051906
0.0052978596650063
0.0033527538180351
0.0013541146181523
-0.0005505562294274
-0.0022223936393857
-0.0035430679563432
-0.0044258488342165
-0.0048228721134364
-0.0047253780066967
-0.0041616833768785
-0.003196523990482
-0.00192625913769
-0.0004665711894631
0.0010595968924462
0.0025290527846664
0.0038268156349658
0.0048614349216222
0.0055813640356063
0.0059796711429953
0.0060850856825709
0.0059509603306651
0.0056460564956068
0.0052448064088821
0.0048213293775916
0.004446258302778
0.0041781747713685
0.0040528802201151
0.004082886967808
0.0042669218964874
0.0045959688723087
0.0050513446331024
0.0056044589728116
0.0062231551855802
0.006878082640469
0.0075398194603621
0.0081654507666826
0.0086869020015001
0.0090133184567093
0.0090454975143074
0.0086936801671981
0.0078952684998512
0.0066314218565821
0.004938016179949
0.0029066510032862
0.0006736056529916
-0.001600713469088
-0.0037530027329921
-0.0056355027481913
-0.0071315942332148
-0.0081644002348184
-0.0087019754573702
-0.0087616024538874
-0.0084056239575147
-0.0077302930876612
-0.0068535944446921
-0.0058983345516026
-0.0049711940810084
-0.0041489489376544
-0.0034766257740557
-0.0029710798989981
-0.0026241226587444
-0.002406359417364
-0.0022756450343877
-0.0021866571623831
-0.0020940876565873
-0.0019509273115545
-0.0017116508679464
-0.0013452691491693
-0.0008486956357955
-0.0002480994153302
0.0004114921612199
0.0010800468735396
0.0017144602024927
0.0022854185663163
0.002776097273454
0.0031776470132172
0.0034878440201282
0.00370709807612
0.0038271103985607
0.0038209820631891
0.003644993994385
0.0032514522317796
0.0026008447166532
0.0016651409678161
0.0004305788315832
-0.0010940097272396
-0.0028697936795651
-0.0048234360292553
-0.0068473648279905
-0.0088125048205256
-0.0105894394218921
-0.012064091861248
-0.0131448153406381
-0.0137686571106314
-0.0139100467786192
-0.0135848727077245
-0.0128427157178521
-0.0117518631741404
-0.0103910602629184
-0.0088533572852611
-0.0072493497282266
-0.005696021951735
-0.004292014054954
-0.0030939627904444
-0.0021106861531734
-0.0013153976760804
-0.0006619933992624
-9.423960000276566e-05
0.000451760366559
0.0010408819653093
0.0017242655158042
0.002527370583266
0.0034504767972975
0.0044786925427615
0.005588159430772
0.0067430343478918
0.0078933872282505
0.0089812129735946
0.0099523738026618
0.0107666561380028
0.0113955717533826
0.011810977011919
0.011979741975665
0.011868605390191
0.0114509724080562
0.0107112070545554
0.0096483584493398
0.0082811610773205
0.0066533591598272
0.0048364335671067
0.002924257190898
0.0010181397665292
-0.0007880786433815
-0.002414648188278
-0.003796957898885
-0.004886822309345
-0.005657491274178
-0.0061095179989933
-0.0062697399407625
-0.0061822854913771
-0.005898259114474
-0.0054688118398189
-0.004942440893501
-0.0043640560470521
-0.003770759794861
-0.0031845797784626
-0.0026114489883184
-0.0020504528656601
-0.0015025828033685
-0.0009717880748212
-0.0004637530073523
1.5624798834323883e-05
0.0004658955149352
0.0008993125520646
0.0013411918189376
0.001820859266445
0.0023612345103174
0.0029736249707639
0.0036544308532029
0.0043832813389599
0.0051297429017722
0.0058658407069742
0.0065690595656633
0.0072106467559933
0.0077427718788385
0.0080979606136679
0.0082003977149724
0.007981370203197
0.0073950728401541
0.0064326687715947
0.0051277973689138
0.0035519748926162
0.0018078649882227
2.0424718968570232e-05
-0.0016810214146971
-0.0031818957068026
-0.0043889107182621
-0.0052291057072579
-0.0056556174531579
-0.0056607741862535
-0.0052833957597613
-0.0046000052243471
-0.003704739967361
-0.0026910877786576
-0.0016432972624897
-0.000634244759567
0.0002795897889882
0.0010659443214535
0.0017180666327476
0.0022489975672215
0.0026862700469791
0.0030669467523694
0.0034300682600587
0.0038107531145215
0.0042351549491286
0.0047106789425015
0.0052196267060935
0.0057272869162261
0.0061969230882823
0.0065983552485704
0.0069109834730625
0.0071279988624155
0.0072583025321364
0.0073196133598685
0.0073266285471618
0.0072804191149771
0.0071626123972237
0.0069382153451442
0.0065662418492138
0.0060116034001111
0.0052490825764834
0.0042604771442711
0.0030377167277038
0.0015919278375804
-4.300940781831741e-05
-0.0018123467452824
-0.0036413939669728
-0.0054389722645282
-0.0071080746129155
-0.0085593555122613
-0.0097234500572085
-0.0105593688786029
-0.0110543128103017
-0.0112175727263093
-0.0110754109919071
-0.0106673808768391
-0.0100448504090309
-0.0092726480215787
-0.0084251444786787
-0.0075733764097094
-0.0067743281833827
-0.0060669835656881
-0.0054702493362128
-0.0049825054593384
-0.004585372749716
-0.0042518959380686
-0.0039529860951006
-0.0036567235365509
-0.0033282283693552
-0.0029371385462582
-0.002464240649715
-0.0018985418137162
-0.0012337637599557
-0.0004750059451907
0.0003530120011419
0.001207249937579
0.0020350744016468
0.002783223753795
0.003400444984436
0.0038349693641066
0.0040355380624532
0.0039581097662448
0.0035729873925447
0.0028707152232527
0.0018688780255615
0.0006170934066176
-0.0008054892532527
-0.0023001139052212
-0.0037629415746778
-0.0051012854091823
-0.0062463493086397
-0.0071582216769456
-0.0078209089115262
-0.0082328580319881
-0.0084037380293011
-0.008355782367289
-0.0081211626529693
-0.0077366530895233
-0.0072419689968228
-0.0066799819469451
-0.0060913432389497
-0.0055065085180103
-0.0049420827999711
-0.0044001219794154
-0.0038727724459022
-0.0033542951568961
-0.0028478559106588
-0.0023592885117977
-0.0018882043659687
-0.0014254719717428
-0.0009555956348776
-0.000460734590888
7.436203304678202e-05
0.0006575206061825
0.0012872284278273
0.0019534700550138
0.0026393020525574
0.003323916811496
0.0039861318655312
0.004605202935636
0.0051560709252953
0.0056001204065978
0.0058821500279009
0.0059405732899904
0.0057228785008192
0.005195468198508
0.0043481597676873
0.0032006618566811
0.0018096496351063
0.00026720832102
-0.0013123948592692
-0.0028118200134485
-0.0041279597207903
-0.0051819263026118
-0.005919667892158
-0.006307631265372
-0.0063329897820949
-0.0060114269144833
-0.0053919958882033
-0.0045493673533201
-0.0035674786195158
-0.0025252727791666
-0.0014908858574926
-0.0005219038575887
0.00033686356619
0.0010620523244142
0.0016580391675233
0.0021513509564101
0.0025780112482607
0.0029741511680185
0.0033737155608832
0.003810346359387
0.0043136421591043
0.0048955073580145
0.005540442187339
0.006212955340743
0.0068742875009775
0.0074923788197338
0.0080435099080204
0.0085133779793977
0.0088956244289875
0.00918385758996
0.0093638394027948
0.0094102760776877
0.0092858485877513
0.0089453663676977
0.0083490833640098
0.0074795130640268
0.0063474560156464
0.0049836682155728
0.0034332908689975
0.0017598854610696
4.518590867519379e-05
-0.0016193441115319
-0.0031410518568009
-0.004434319678694
-0.0054317377507686
-0.0060939844697713
-0.0064126448705792
-0.0064079193398356
-0.0061248005367815
-0.0056250267662107
-0.0049728997983038
-0.0042233155108988
-0.0034225587733089
-0.0026165754534304
-0.0018514683470129
-0.0011659497395157
-0.0005874643102288
-0.0001325788907706
0.0001955297775566
0.0004107491113245
0.0005432930774986
0.0006337636150419
0.0007236413657665
0.0008467403240501
0.0010257475078105
0.0012726911809295
0.0015928160864859
0.0019907203968614
0.0024691293947398
0.0030163598712533
0.0035947973374277
0.004140178207308
0.0045701679773628
0.0047975368797779
0.004742563702166
0.0043433671817183
0.0035669980570673
0.0024172726552933
0.0009348052553832
-0.0008052580524235
-0.0026971467304974
-0.0046168603003025
-0.0064374119974672
-0.008036820217967
-0.0093074245378375
-0.0101739037781953
-0.0106060579419136
-0.0106187164783477
-0.010265439748764
-0.0096262106671929
-0.0087888371199369
-0.0078345276415348
-0.0068351635709404
-0.005854164250195
-0.0049398536793887
-0.0041162418201565
-0.0033843573182821
-0.0027316198684275
-0.0021362137049436
-0.001566837541759
-0.0009880783036351
-0.000371940433979
0.0002933908253908
0.001002870965749
0.0017415862530469
0.0024941861629486
0.0032487637363374
0.0039955512620508
0.0047269933857023
0.0054389312863349
0.0061277775093913
0.006785349920392
0.0073962956666946
0.0079349819570779
0.0083613973110914
0.0086226891726255
0.0086572440341115
0.0083978166803717
0.0077830809168517
0.0067788250744342
0.0053957570344209
0.0036954605020582
0.0017838822677731
-0.0002057990059256
-0.0021342681720852
-0.0038718422874808
-0.0053071109578013
-0.0063543082214891
-0.0069621913135051
-0.007119140587747
-0.0068500190973281
-0.0062079550698399
-0.005266566760838
-0.0041153030470013
-0.002854386344552
-0.0015843538567423
-0.0003924220800399
0.0006603505462408
0.0015482418239116
0.0022801514714956
0.0028880410827696
0.0034143375232815
0.0039041996933519
0.0043990314006805
0.0049309143796563
0.0055214706808328
0.006184231955558
0.0069272294640541
0.0077523048967123
0.0086492197588086
0.009590140543878
0.0105323027819395
0.0114275244995951
0.0122313182801008
0.0129060493782162
0.0134154558181762
0.013714961707592
0.0137472096830606
0.0134461782872676
0.0127465408295392
0.0115957157686352
0.0099689047783613
0.0078854840248823
0.0054182205349206
0.0026861601509153
-0.000163716962561
-0.0029747493099421
-0.0055989609099924
-0.0079146577045321
-0.0098339291289448
-0.0113003309816122
-0.0122867580503225
-0.0127960639074444
-0.0128596639260649
-0.012533975765109
-0.0118980268016457
-0.0110492650419473
-0.0100922295823693
-0.0091215902939438
-0.0082058934494853
-0.007380018942058
-0.0066496203653514
-0.0060015865601599
-0.0054134158417582
-0.0048579922877252
-0.0043056365102529
-0.0037278700619935
-0.0031010946258902
-0.0024071251973509
-0.0016329898498952
-0.00077292509377
0.0001690345816314
0.0011803030502051
0.0022438943851739
0.0033421136904507
0.0044592218473553
0.0055759497918188
0.0066534541547298
0.0076235020533204
0.0083944424986839
0.0088633857667446
0.0089296614751219
0.0085116680711507
0.0075626233592629
0.0060784937813878
0.0041014202870428
0.001724915811792
-0.0009058827999979
-0.0036096177063882
-0.0061950436793267
-0.0084818303585052
-0.0103106154128909
-0.0115552879869937
-0.0121420631185173
-0.012060796841979
-0.0113613102585077
-0.0101406406611204
-0.0085267294198274
-0.0066651385277509
-0.0047107087448239
-0.0028153404127806
-0.0011074233334511
0.0003266360145062
0.0014491213951259
0.002268596785143
0.0028327200561761
0.0032178116962313
0.0035156900994479
0.0038161487318575
0.0041878898628056
0.0046672406606376
0.0052580921910703
0.0059376866556704
0.006664942484349
0.0073914323002099
0.0080727115273475
0.0086762104183435
0.0091838436201214
0.0095899235457181
0.009896719828248
0.0101072071120142
0.0102127771824598
0.0101835215464234
0.0099698938429355
0.009509022347629
0.00873046182096
0.0075674378313124
0.0059723458252847
0.0039314590394496
0.0014791436260566
-0.0012943719048053
-0.0042506484314799
-0.0072239660657942
-0.010044515132904
-0.0125547964125871
-0.014621015638113
-0.0161455944180488
-0.0170767176896333
-0.0174079686403274
-0.0171714816242456
-0.0164344497025012
-0.0152997728437185
-0.013899047859013
-0.0123723121359944
-0.0108434213325381
-0.009403564967215
-0.0081083811819553
-0.0069815116003155
-0.0060158777050673
-0.0051756538450717
-0.0044046398252248
-0.0036385471466928
-0.0028170936275273
-0.0018950242083519
-0.0008473999332636
0.0003350658807903
0.0016508693806827
0.003083620686084
0.0045994622632861
0.0061551076360046
0.0077066654339432
0.009212682954967
0.0106381196528673
0.0119566358625888
0.0131427710875868
0.0141610410064458
0.0149609930813312
0.0154766701161861
0.0156296901404857
0.0153384655714035
0.014535455033183
0.0131892561912536
0.011318814009428
0.0089912340044975
0.0063116112723946
0.0034148097038269
0.0004578905063681
-0.002390460576862
-0.0049648256972432
-0.0071216151118278
-0.0087557518854737
-0.009809486567974
-0.0102723771706223
-0.0101753417402505
-0.0095834229141473
-0.008590230718255
-0.0073103341273963
-0.0058636576868593
-0.0043585668317973
-0.0028851376846432
-0.0015130162937566
-0.0002844725677277
0.0007900807540863
0.0017267559887841
0.0025586662814021
0.0033262658398598
0.0040672020986676
0.004809483885765
0.0055701662786304
0.0063557177782058
0.0071619302034378
0.00797616597265
0.0087837083265185
0.0095746144652366
0.010342800989747
0.0110752563923597
0.0117447767406702
0.0123161738738417
0.0127563625574111
0.0130362585186958
0.0131244137883186
0.0129800774157047
0.0125513793900609
0.0117780584841966
0.0105973687022924
0.0089561389759182
0.0068291332572698
0.0042344145476818
0.0012409947812557
-0.0020281714387238
-0.0054046032018959
-0.0086991181597113
-0.0117288492619991
-0.0143354665488004
-0.0163979679346084
-0.017840813845396
-0.0186346806585788
-0.0187924653291702
-0.0183660648763179
-0.0174424983561038
-0.0161328762769699
-0.0145569881424307
-0.0128322066739201
-0.0110674547031521
-0.0093562677502632
-0.0077667059376835
-0.0063373148441314
-0.0050846831873059
-0.0040104072540998
-0.0031009796075522
-0.0023292689584195
-0.0016589672304689
-0.0010463707149028
-0.0004424466751515
0.0001988979056477
0.0009113173000514
0.0017148368060588
0.0026190867647528
0.0036204224452376
0.0046968450769782
0.0058132102712988
0.0069345608353614
0.0080301137641072
0.0090623879805207
0.0099769067019224
0.0107021704316139
0.0111557058990001
0.0112521303817629
0.0109103014692664
0.010059374384582
0.0086485398933291
0.0066618053242564
0.0041326778009533
0.0011505139991641
-0.0021463930606842
-0.0055852308869361
-0.0089730257168412
-0.0121125299483537
-0.014823755249381
-0.016967998817563
-0.0184644386172294
-0.0192941110581159
-0.01949343085289
-0.0191401857882738
-0.0183380618691444
-0.0172046683728694
-0.0158615969121456
-0.0144250923767685
-0.0129982298240065
-0.0116643104702234
-0.0104805463925004
-0.0094720507040619
-0.008626502007246
-0.0078927809372544
-0.007191352546215
-0.00643693190068
-0.0055596432648599
-0.0045135682448744
-0.0032763020135462
-0.0018464678432792
-0.0002419630327494
0.0015007101465016
0.003330431645736
0.0051903170533478
0.0070239179767668
0.0087784677743911
0.0104117207229137
0.011896064504981
0.0132135022431612
0.0143493069335818
0.0152845829725265
0.0159817487001419
0.0163749027997255
0.0163783878087997
0.0159068815410137
0.0148938065394759
0.0133050708100199
0.0111517664045095
0.0084990505129098
0.0054664192721247
0.0022196983918547
-0.0010450086556375
-0.0041233771480619
-0.0068260794505476
-0.0089984973892569
-0.0105330655351281
-0.0113776652142405
-0.0115428026765584
-0.011100429110229
-0.010172045789659
-0.0089115370064973
-0.0074856770224869
-0.0060533210635185
-0.0047464519739151
-0.0036577023565769
-0.0028359161224216
-0.0022868672385811
-0.0019768842030316
-0.0018412136705592
-0.0017967148451134
-0.0017525955336168
-0.0016184340929612
-0.0013161624083295
-0.0007951764855533
-4.158192314207554e-05
0.0009235435863956
0.0020546081941574
0.0032954453490674
0.0045907590538263
0.0058912141248583
0.0071558961644768
0.0083555476740002
0.0094704702496528
0.010478101670742
0.0113382507115602
0.011987523175776
0.012345241382718
0.0123277595266699
0.0118633601814508
0.0109013430774211
0.009422761388123
0.0074575082398951
0.005095268599689
0.0024791471660137
-0.0002130670181941
-0.0027901087887585
-0.005068882368505
-0.0068953661248087
-0.0081594828516244
-0.0088032782077789
-0.0088264932855963
-0.0082873124629259
-0.0072900708764791
-0.0059629781171679
-0.0044429819099605
-0.0028734975494444
-0.001399447210133
-0.0001488864654675
0.0007894941372796
0.0013798023574054
0.0016391512472182
0.0016275957459583
0.0014333705184981
0.0011579208076
0.0009033315000124
0.000762216746807
0.0008085025474429
0.0010900202905759
0.0016264647711068
0.0024139126762747
0.0034288293682038
0.0046260543167591
0.0059391469694674
0.0072894101031124
0.0085944840684533
0.0097697796300053
0.0107285398989915
0.011382452212274
0.0116390772163867
0.0114012397825717
0.0105774980038404
0.0091030318289995
0.0069612907245755
0.004197318572551
0.0009209017734974
-0.0026989676989614
-0.0064508039504289
-0.010107816196978
-0.0134552363306283
-0.0163093917071819
-0.0185281261801719
-0.0200157240033149
-0.0207271967083215
-0.0206728838384151
-0.0199170261621475
-0.0185673050582408
-0.0167615488171577
-0.0146567560732364
-0.0124170146882534
-0.0101952729746699
-0.0081122992560267
-0.0062433229759335
-0.0046208263374865
-0.0032501555979251
-0.0021228443365544
-0.0012182153295725
-0.0004983954131603
9.302003309130669e-05
0.0006238874047994
0.0011614237446337
0.0017625384498387
0.0024707480333745
0.0033154389820992
0.0043097310699522
0.0054504922591149
0.0067213056609034
0.0080946702510118
0.0095324348658323
0.010981360450387
0.0123611260205507
0.0135548096150159
0.0144140282645821
0.0147780049592256
0.0144994184374809
0.0134707149118185
0.0116453785449266
0.0090519236400723
0.005800187587738
0.0020747783128172
-0.0018874111119657
-0.005825993604958
-0.0094825094565749
-0.0126223172992467
-0.0150539772585034
-0.0166470389813184
-0.0173479225486516
-0.0171878132969141
-0.0162767432630062
-0.0147842392325401
-0.0129108736291527
-0.0108569264411926
-0.0087972022593021
-0.0068690315820276
-0.0051685450598597
-0.0037469994276762
-0.0026101656258106
-0.0017251791432499
-0.0010298294946551
-0.0004389248788356
0.0001474134624004
0.0008252402767539
0.0016639158129692
0.0026949616149067
0.0039163837209343
0.0053014466539025
0.0068054990842938
0.0083754239603877
0.0099606784060597
0.0115165784955024
0.0130006093531847
0.014370359480381
0.0155817326158285
0.0165798552334308
0.0172848384827375
0.0175886396318674
0.0173736363649368
0.0165389124304056
0.0150170922279357
0.0127849327400326
0.009875270538032
0.0063873683102428
0.0024893812369555
-0.0015930710360407
-0.0056039076298475
-0.0092887878417968
-0.0124224312603473
-0.0148311713710427
-0.0164096001535654
-0.017126340419054
-0.017016589641571
-0.0161642171442508
-0.0146828489378094
-0.0127077773213386
-0.0103973727673292
-0.0079269241541624
-0.0054677324369549
-0.003163268789649
-0.0011123837903141
0.0006382660940289
0.0020914366468787
0.0032892529852688
0.004301646258682
0.0052130711264908
0.0061062593013048
0.0070484075695276
0.0080841006711125
0.0092351008206605
0.0105045093223452
0.0118779242038726
0.0133207608014345
0.0147808538749814
0.0161994248628616
0.0175225771963596
0.0187032520771026
0.0196931175887584
0.0204332880675792
0.0208480171859264
0.020840648561716
0.020296785980463
0.0191002525389194
0.0171573460102081
0.0144211687147617
0.0109142428264021
0.0067459121346473
0.00211231270805
-0.0027260296046733
-0.0074782418087124
-0.0118571519851684
-0.0156082082539796
-0.0185308828949928
-0.0204941686242818
-0.0214487537741661
-0.0214310158044099
-0.0205530002713203
-0.0189835894852876
-0.0169283971190452
-0.0146065866574645
-0.0122252674773335
-0.009958554059267
-0.0079318555071949
-0.0062145185656845
-0.004826933145523
-0.0037525412626564
-0.0029423185624182
-0.0023153563961386
-0.0017677317373454
-0.0011931951157748
-0.0005027200095355
0.0003678663633763
0.0014546199236065
0.0027604319620877
0.0042558084242045
0.0058889333158731
0.0075987046584486
0.0093254847452044
0.0110172303393483
0.0126265585422515
0.014095701277256
0.015338834375143
0.0162364058196544
0.016642415896058
0.0163977928459644
0.0153519921004772
0.0133956344798207
0.0104933595284819
0.0067021735012531
0.0021707736887037
-0.0028742926660925
-0.0081480694934725
-0.0133317494764924
-0.0181037802249193
-0.0221719034016132
-0.0253015626221895
-0.0273401644080877
-0.0282310415059328
-0.0280137229710817
-0.026814704760909
-0.0248286444693803
-0.0222903508692979
-0.0194454491138458
-0.0165260415524244
-0.0137306237593293
-0.0112063344568014
-0.0090373400598764
-0.0072443285025656
-0.0057924552820622
-0.0046009351499378
-0.0035547730512917
-0.0025259354151785
-0.0014007277786731
-9.79313626885414e-05
0.0014290385879576
0.003196810837835
0.0051935613155364
0.0073793251067399
0.0096925813704729
0.0120621342211961
0.0144153945147991
0.0166791565716266
0.0187765583395957
0.0206201560795307
0.0221011377871036
0.0230857916176319
0.0234263408929109
0.022976666688919
0.0216072704643011
0.0192275214940309
0.0158169865608215
0.0114546613767743
0.0063317571766674
0.0007389888633042
-0.0049683265388011
-0.0104142287746071
-0.0152431167662143
-0.0191539973020553
-0.0219278093427419
-0.0234446804970502
-0.0236895456910133
-0.0227480083703994
-0.020792543888092
-0.0180608369410038
-0.014831168577075
-0.0113942846655845
-0.0080210529267787
-0.0049325367435812
-0.0022786911576986
-0.0001278882846236
0.0015319683589041
0.0027810945175588
0.0037464532069861
0.0045768129639327
0.0054213507100939
0.0064128646627068
0.0076507464982569
0.0091876601800322
0.0110294520854949
0.0131432004272937
0.0154622131958603
0.0178925544023513
0.0203272458165884
0.0226599816232919
0.0247919261455535
0.026631036773324
0.0280826315283775
0.0290354043245315
0.0293535720556974
0.0288834162056446
0.0274735074490308
0.0250036790966987
0.021420232951641
0.0167706906795501
0.0112219657748937
0.0050475420430302
-0.0014118319377303
-0.0077917901799082
-0.0137396557256579
-0.0189460683614015
-0.0231722854077816
-0.0262671895325183
-0.0281733386218547
-0.028921028599143
-0.0286144502460956
-0.0274179857224226
-0.0255393460392951
-0.0232049543410539
-0.0206351187080144
-0.0180236902087926
-0.0155182061716914
-0.0132058719173073
-0.0111163780093193
-0.0092380940914154
-0.0075364643707871
-0.0059677334502339
-0.0044868481345474
-0.0030533117242157
-0.001635588472709
-0.0002104809973388
0.0012397377286106
0.0027279565110802
0.0042633539997041
0.0058543365448713
0.0075099291279911
0.0092391660436987
0.0110492929816246
0.0129369487985968
0.0148686310276389
0.0167608894407749
0.0184714905917644
0.0198042280972003
0.0205283071845769
0.0204103905707597
0.0192548707127571
0.0169456675648689
0.0134788071736693
0.0089779756963253
0.0036908376496285
-0.0020347302779555
-0.0077917175367474
-0.0131620895117521
-0.0177605729550123
-0.0212728902697563
-0.0234904550015926
-0.0243308246135711
-0.023833442479372
-0.0221400670707225
-0.0194720849394798
-0.0161037165671587
-0.0123308282345533
-0.0084408782422542
-0.004685397259891
-0.0012556842993944
0.0017309552058577
0.0042294631712138
0.0062561919912695
0.0078784180805087
0.0092045227065682
0.0103665236383676
0.0114938225597143
0.0126896891742944
0.0140188103541731
0.0155043052509427
0.0171301588416099
0.0188481546938419
0.020590603351593
0.022285159677267
0.0238644089549779
0.0252698007971048
0.0264548417180776
0.0273867156356573
0.0280383788049221
0.0283693112432956
0.0283063314855098
0.0277335904538631
0.0264938566833734
0.0244073495268821
0.0213104877620935
0.0171041991561651
0.011795213446021
0.0055160671472549
-0.0014770627021789
-0.0088232010602951
-0.0160951055586338
-0.0228550266474485
-0.0287089385092258
-0.0333452150225639
-0.0365592055022716
-0.0382644943892955
-0.0384884402155876
-0.0373600088059902
-0.0350973904132843
-0.0319877192378044
-0.0283531062304973
-0.0245116539299488
-0.0207434836775064
-0.0172648262232542
-0.0142106283456087
-0.0116287283599376
-0.0094898808747529
-0.0077095823362469
-0.00616952823475
-0.0047348090447485
-0.0032732766121625
-0.0016753133386373
0.0001355046406388
0.0021977163851261
0.0045046862214803
0.0070019559934735
0.0095990188419818
0.0121885212138295
0.0146619826555252
0.0169216059148311
0.0188898406922817
0.0205124747008085
0.0217510014772415
0.0225662030279636
0.0228994991630315
0.0226590614765882
0.0217184238135814
0.0199357513338327
0.0171920638531446
0.0134301371872425
0.0086783617734909
0.0030617304146289
-0.0031950715929269
-0.0097763119265437
-0.0163002330809831
-0.0223597474396228
-0.027571877464652
-0.0316239707171916
-0.0343062542378902
-0.0355270504951477
-0.0353132970631122
-0.0337998457252979
-0.0312094837427139
-0.027826065197587
-0.0239637624472379
-0.0199367441236972
-0.0160320252180099
-0.0124834757298231
-0.0094482088461518
-0.006994548253715
-0.0051069068722426
-0.0037007061764597
-0.0026410454884171
-0.0017671501263976
-0.0009200843051075
3.62936407327652e-05
0.001204552128911
0.0026470459997653
0.0043812980875372
0.0063827130943536
0.0085953567177057
0.0109423529356718
0.0133302109315991
0.0156537145376205
0.0178076084703207
0.0196983497589826
0.0212460272014141
0.0223735086619853
0.0229882970452308
0.0229702126234769
0.0221763961017131
0.0204652342945337
0.0177325345575809
0.0139465369284152
0.0091700684279203
0.0035701114684343
-0.0025829104706645
-0.008934985846281
-0.0150918951258063
-0.0206700004637241
-0.0253372397273778
-0.0288424827158451
-0.0310342665761709
-0.0318662971258163
-0.0313921645283699
-0.0297556854784488
-0.027176771312952
-0.0239290501922369
-0.0203110389411449
