bvp
-0.0083387531340122
-0.006648426875472
-0.0051852734759449
-0.003967453725636
-0.002987696789205
-0.0022188897710293
-0.0016147980932146
-0.0011129120830446
-0.000643061241135
-0.0001387172378599
0.0004529883153736
0.0011637737043201
0.0020003346726298
0.0029461332596838
0.0039682029746472
0.0050253756344318
0.0060721430927515
0.0070542250759899
0.0078992303460836
0.0085093369707465
0.00876335054636
0.0085328258574008
0.0077076912857592
0.0062219034880399
0.004073494579643
0.0013358416035771
-0.0018452918156981
-0.0052711619064211
-0.0087160151451826
-0.0119495103135705
-0.0147581035271286
-0.0169665049761533
-0.018451515585184
-0.0191462486982345
-0.0190427936613559
-0.018197014927864
-0.0167261846363544
-0.0147920837625861
-0.0125763695687055
-0.0102579835802316
-0.0079958941787481
-0.0059154764749109
-0.0040981881320476
-0.002577775157988
-0.0013442136114463
-0.0003544086357578
0.0004536055494099
0.001147985109128
0.0017943336861208
0.0024513746611773
0.0031678706873208
0.0039765075780451
0.0048887282609939
0.0058961696922779
0.0069768950343132
0.0081018945202231
0.0092378091067075
0.01034368108958
0.0113639179617166
0.0122234318405389
0.0128301428630948
0.0130832949653267
0.0128833074122667
0.012143850326538
0.010809538885951
0.0088752266019582
0.0063941101543605
0.0034715519286692
0.0002547055482864
-0.0030788420699536
-0.0063358130864799
-0.0093233902007341
-0.0118658319115638
-0.013821467757225
-0.0150970686227083
-0.0156568065285682
-0.0155252097174525
-0.014782927930355
-0.0135540794581174
-0.0119889210909605
-0.0102465068921446
-0.008478638716042
-0.0068182190880179
-0.005373403429985
-0.0042218794114887
-0.0034035579301416
-0.0029171975329518
-0.0027236223686486
-0.0027534747496247
-0.0029167337343096
-0.0031132381409406
-0.0032452405430376
-0.0032321370672434
-0.0030221138149499
-0.002594465855509
-0.0019553077872842
-0.0011311322450637
-0.0001617225352674
0.000900509301573
0.0019806430209428
0.0029713313560932
0.0037358382251113
0.0041254363022744
0.0040036998689174
0.0032698691356927
0.0018774385098367
-0.0001525534316897
-0.0027243816293776
-0.0056711928918957
-0.0087734591215848
-0.0117872525006532
-0.0144712328910827
-0.0166069623082876
-0.018013346940279
-0.0185596719384193
-0.0181811563670635
-0.0168904736638069
-0.0147760417312383
-0.0119858141988515
-0.0087002115324139
-0.0051060160622
-0.001381997950375
0.0023099761456251
0.0058372188359498
0.0091070923954248
0.0120685715228319
0.014706932939589
0.0170377772301435
0.0191001258790493
0.0209474023431539
0.0226354394108057
0.0242072828114032
0.0256824810057878
0.0270578414201736
0.0283162966370582
0.0294364243745803
0.030398279428482
0.0311845652759075
0.0317776277661323
0.032154019922018
0.032277688384056
0.0320929922163486
0.0315223596990108
0.0304727964103221
0.0288515463471412
0.02658979780972
0.0236664321273565
0.0201191641390323
0.0160434301942586
0.011587830260396
0.0069469232112169
0.0023464248515665
-0.0019803619943559
-0.0058189122937619
-0.0089949257671833
-0.0113877821713685
-0.0129371602088212
-0.0136466259136796
-0.0135844200849533
-0.0128750894218683
-0.0116800274699926
-0.0101742930710315
-0.008529519662261
-0.0069045214913785
-0.0054350048303604
-0.0042197229340672
-0.0033119993750005
-0.0027205818332731
-0.0024138754233717
-0.0023255753330886
-0.0023652929812669
-0.0024336026981472
-0.0024384153075516
-0.0023091710172593
-0.0020037479698657
-0.0015072426758706
-0.0008266726508736
1.5805475413799286e-05
0.0009869253262877
0.0020379461348056
0.003095643594861
0.004056816920638
0.0047898022457957
0.0051464457064867
0.004984050989151
0.004189065657556
0.0026973681524395
0.0005105333402752
-0.0022957539185881
-0.0055753141641616
-0.0091259162873029
-0.0127118779346346
-0.0160907227545976
-0.019036877900362
-0.0213628932833671
-0.022940332069993
-0.0237120240926742
-0.0236909314990043
-0.0229514725506305
-0.0216173939406871
-0.0198468323796987
-0.017816612496972
-0.0157055184245109
-0.0136744063347578
-0.0118481293320655
-0.0103066517040133
-0.0090832589194178
-0.0081667276099324
-0.0075088217854499
-0.0070356456562876
-0.0066615003161132
-0.0063039646483957
-0.0058949808590114
-0.005385669413954
-0.0047470955178141
-0.0039678141474723
-0.0030503766611218
-0.0020103871356695
-0.0008747435640543
0.0003244173713028
0.0015532206743955
0.002770569641143
0.0039179637096822
0.0049142870120704
0.0056610433384776
0.0060559906996786
0.0060089332982897
0.0054542361758649
0.0043624704703688
0.0027569269295781
0.000727669103071
-0.0015700140502303
-0.0039315642789006
-0.0061263097450137
-0.0079254610463976
-0.0091310264542698
-0.0096000153571367
-0.0092600425705313
-0.0081146704033017
-0.0062389047816395
-0.003764493856579
-0.000857516482938
0.0023005737457424
0.005522271618247
0.0086240619421005
0.0114443795755505
0.0138618471100926
0.0158063694834709
0.0172616709023714
0.0182585138827562
0.0188607852905988
0.0191512573510408
0.0192202497273683
0.0191546212881803
0.0190278831869363
0.0188949201256036
0.0187909770756959
0.0187327582389116
0.0187186133116483
0.0187256578356027
0.0187070611864328
0.0185934659093618
0.0182962901890277
0.0177101604640483
0.0167193859815597
0.0152141526341438
0.0131123838946223
0.0103786801919341
0.0070368936285376
0.0031760754063725
-0.0010518841445446
-0.0054456703364849
-0.0097769508138298
-0.0138116348534822
-0.0173285473138093
-0.0201433710753917
-0.0221316274255514
-0.0232401806861162
-0.023487988859415
-0.0229591187089681
-0.0217901319265365
-0.0201535765081644
-0.0182369127869606
-0.0162193216383457
-0.0142536424100399
-0.0124560678377747
-0.0109006538987159
-0.0096189593896269
-0.0086049633100628
-0.0078215282410383
-0.0072105592116713
-0.0067109405063092
-0.0062750806100666
-0.0058721303939819
-0.0054823802784085
-0.0050924704410135
-0.0046912375837564
-0.0042665163055062
-0.0038059689104557
-0.003298194380477
-0.0027324659749865
-0.0021037994883954
-0.0014259368181228
-0.0007457500323653
-0.0001490050926804
0.0002495995722711
0.0003283070400357
-1.8965452909469604e-05
-0.000863482709974
-0.0022236183285713
-0.004050473216921
-0.0062255403026938
-0.00857266318053
-0.0108804432675242
-0.0129316989332437
-0.0145339118316769
-0.0155431097373366
-0.0158774256706237
-0.0155200641602277
-0.0145142106339335
-0.0129519328474998
-0.0109576722607016
-0.0086727524176239
-0.0062467269599437
-0.0038290056400001
-0.0015549925155937
0.0004681444261223
0.0021712486632168
0.0035278766881674
0.0045535760000348
0.0052979113534092
0.0058310921303927
0.0062322639860212
0.0065798889845609
0.006942031905055
0.0073709674179553
0.0079034827649593
0.0085617043077945
0.009349750354886
0.0102471206337213
0.0112051162868738
0.0121483178809285
0.0129783991724252
0.0135810934007167
0.013836421072483
0.0136308521032333
0.0128733869642019
0.0115140555426478
0.0095580983906984
0.0070721260271966
0.0041817901656031
0.0010603461414575
-0.0020884647965431
-0.0050480053760111
-0.0076104798354208
-0.0096053164452314
-0.0109213553369045
-0.0115125197917222
-0.0113920513540506
-0.0106221307069063
-0.0093015972524881
-0.007554467767477
-0.0055198371410369
-0.0033397236838936
-0.0011450238525867
0.0009539611637592
0.0028708567842841
0.0045453789643943
0.0059476466849446
0.007082900032401
0.0079886270686984
0.008720657788217
0.0093380659818649
0.0098947780206799
0.0104352226480841
0.0109911262989044
0.0115795955061912
0.0122035583481192
0.0128566529601812
0.0135286785662174
0.0142022250220179
0.014840992167592
0.015381196513772
0.0157320238649845
0.0157844759523868
0.0154300443828105
0.0145829711109399
0.0131941558793187
0.0112584363669157
0.0088221970945596
0.0059884646907448
0.0029142487328499
-0.0002019526436924
-0.0031421782914549
-0.0056969644501805
-0.0076922159641981
-0.009008390828967
-0.0095904618501663
-0.0094497818499803
-0.0086589446291327
-0.0073394402861595
-0.0056414045393466
-0.0037227482534945
-0.0017374046146869
0.0001711207441985
0.0018798523815348
0.003298598807305
0.0043778652325272
0.0051104929298162
0.0055277720093727
0.005690433550626
0.0056771701201796
0.0055738664232194
0.005463758483529
0.0054186037741601
0.0054910467006266
0.0057090516202151
0.0060758120380342
0.0065733166411519
0.0071626938879489
0.0077811842784285
0.0083408756181597
0.0087323728948831
0.0088347932323813
0.0085313702002167
0.0077269747853279
0.0063642174936831
0.0044366884976625
0.0019962680526077
-0.0008483338169753
-0.0039408486336469
-0.0070930905640125
-0.0101051656529307
-0.0127851404249668
-0.0149661432951688
-0.0165244713425636
-0.0173956230282783
-0.0175791829824447
-0.0171315483748912
-0.0161524415016174
-0.0147698875516653
-0.0131259988993406
-0.011363061144948
-0.0096082650125026
-0.0079609081149101
-0.0064869411289691
-0.0052196746692061
-0.0041634468361735
-0.0032970134634524
-0.002576736267656
-0.0019464890938252
-0.0013530038995668
-0.000754868844524
-0.000122677301988
0.0005622119642794
0.0013056236784905
0.0020990343764424
0.0029238811694085
0.0037570958957076
0.0045710965059697
0.0053283809684216
0.0059741199947893
0.0064340205863118
0.0066222492605447
0.0064545818604528
0.0058630132116377
0.0048099267296493
0.0032958192750811
0.0013606608845293
-0.0009149899706244
-0.003409877885133
-0.0059695919044315
-0.0084231384098529
-0.0106021109968423
-0.0123581457883119
-0.0135793406516313
-0.0142024252563714
-0.0142163280397653
-0.0136580690741539
-0.012603310868144
-0.0111543191596865
-0.0094280410557985
-0.0075464355759322
-0.0056306668557226
-0.0037953443825244
-0.0021375836804509
-0.0007242306019179
0.0004155752831138
0.0012903154129162
0.0019397271098569
0.0024240834172815
0.0028117676265537
0.0031676467042416
0.0035446737892925
0.0039802212268114
0.0044963876716792
0.0051036314107477
0.0058062993921339
0.0066018402576446
0.0074677974916994
0.0083484025672078
0.0091553144156932
0.0097792102023959
0.0101028820499777
0.0100154438987374
0.0094303097575902
0.0083034755662083
0.0066441004164516
0.0045157745480537
0.0020324639044702
-0.0006516271969303
-0.0033577219583094
-0.0058989622630178
-0.0080980882048606
-0.009809779934585
-0.0109425857663154
-0.0114678861573338
-0.0114133022725582
-0.0108494777232408
-0.00987577624619
-0.0086058899760246
-0.0071559650823473
-0.0056361719034612
-0.0041433325968682
-0.0027541257441043
-0.0015203389339148
-0.0004666976165026
0.00040676118806
0.001119085936807
0.0017061955295503
0.0022186115384101
0.002710395026952
0.0032254916150122
0.0037914861459285
0.004419389180839
0.0051053818315267
0.0058337757363915
0.0065809898078441
0.0073191672563552
0.0080174803733825
0.0086399903520941
0.0091405408456921
0.0094578806310892
0.009515855461359
0.0092337457463145
0.0085460189729928
0.0074184951372444
0.0058519560843706
0.0038820961490273
0.0015834502410143
-0.0009285592241212
-0.0035041384398937
-0.0059746615588665
-0.0081734880805015
-0.009956331923604
-0.0112169999629259
-0.0118957860395312
-0.0119804954156279
-0.0115046072751283
-0.0105440514162182
-0.0092072794213891
-0.0076161390170454
-0.0058881379663944
-0.0041318051517009
-0.0024485022295266
-0.0009276494383811
0.0003651480656117
0.001398273743689
0.0021753620821982
0.0027282473165541
0.0031078541651368
0.0033777535427361
0.0036076453980058
0.0038618592079728
0.0041880998760461
0.0046152384020388
0.0051584616303443
0.0058231940492987
0.0066009769216179
0.0074581019580364
0.0083273444324731
0.0091109341010451
0.009691571816802
0.009946797043085
0.0097667062655091
0.0090724816545844
0.0078303031623363
0.0060584628954529
0.0038282196037471
0.0012594878207892
-0.0014885611599311
-0.0042327987030148
-0.0067842630669474
-0.008965921588242
-0.0106326341629028
-0.0116921961307525
-0.0121169090270996
-0.0119391409680247
-0.0112366853281855
-0.010117276571691
-0.0087057016789913
-0.0071310428902506
-0.0055131027474999
-0.0039515541866421
-0.0025197053328156
-0.0012620077468454
-0.0001954324543476
0.0006865230388939
0.0014101092237979
0.0020179292187094
0.0025624528061598
0.0030945313628762
0.0036511830985546
0.0042492896318435
0.0048878574743866
0.0055569405667483
0.006246174685657
0.0069460049271583
0.007643240969628
0.0083156004548072
0.0089261494576931
0.0094181047752499
0.0097129736095666
0.0097161065787076
0.0093321055173873
0.0084877861663699
0.0071513131260871
0.0053376434370875
0.0031075477600097
0.0005675440188497
-0.0021355592180043
-0.0048284512013196
-0.007329236716032
-0.0094668110832571
-0.0110999532043933
-0.0121333030983805
-0.0125267002731561
-0.0122961141169071
-0.0115064159035682
-0.0102586578577756
-0.0086770057678222
-0.0068964469246566
-0.0050509576685726
-0.0032643019221723
-0.0016411491669714
-0.0002571642398834
0.0008472958579659
0.0016694306395947
0.0022442014887928
0.0026380415074527
0.0029334288556128
0.0032117802184075
0.0035408318508416
0.0039657643064856
0.00450683478266
0.0051648402586579
0.0059279142878949
0.0067766848951578
0.0076856091618537
0.0086153913289308
0.0095010716468095
0.0102468021214008
0.0107328994199633
0.0108339600265026
0.0104411300271749
0.0094820205122232
0.0079356469213962
0.0058399615809321
0.0032893964089453
0.0004244036972522
-0.0025813076645135
-0.0055352430790662
-0.0082427030429244
-0.010522786527872
-0.0122274737805128
-0.0132635505869984
-0.0136041827499866
-0.01328428927809
-0.0123881716281175
-0.0110360346734523
-0.0093683432787656
-0.0075281267054378
-0.0056469049304723
-0.003837464377284
-0.0021893684752285
-0.0007634297944605
0.0004134024493396
0.0013505399692803
0.0020922769326716
0.0027094695251435
0.0032826703973114
0.003882156452164
0.0045544607564806
0.0053198267705738
0.006177932024002
0.0071157035417854
0.0081113008782267
0.009133456274867
0.010140398517251
0.0110794361680746
0.0118843205273151
0.0124730318784713
0.0127521567046642
0.0126280961558222
0.0120215695351362
0.0108834169805049
0.0092067802324891
0.0070307115092873
0.0044386815279722
0.0015540603781118
-0.0014701996697112
-0.004464529454708
-0.0072553353384137
-0.0096793351694941
-0.0115974675863981
-0.0129058957099914
-0.0135458270087838
-0.0135106639936566
-0.0128474747762084
-0.01165128685534
-0.0100508537143468
-0.0081886490806937
-0.0062031038105487
-0.0042201774194836
-0.0023510842584073
-0.0006865606410428
0.0007133700419217
0.0018272309098392
0.0026712242979556
0.0032890036236494
0.0037398329004645
0.0040907245129346
0.0044090906158089
0.0047532143071293
0.0051642744801938
0.0056644016876816
0.0062614129856228
0.0069558187387883
0.0077399425208568
0.0085863880813121
0.0094371419399976
0.0102002983912825
0.0107548935338854
0.0109653752297163
0.0107027497142553
0.0098674707114696
0.0084097860381007
0.0063420059159398
0.0037403521127998
0.0007382608018815
-0.0024866415187716
-0.0057305200025439
-0.0087832883000373
-0.0114468242973089
-0.0135539770126342
-0.0149913793429732
-0.0157161299139261
-0.0157544091343879
-0.0151853691786527
-0.0141222011297941
-0.0126975541934371
-0.0110524119809269
-0.009323650971055
-0.0076294811442494
-0.0060575907118618
-0.0046607418917119
-0.0034589024726301
-0.0024434821680188
-0.0015815906226634
-0.0008202965836971
-9.510187373962252e-05
0.0006534400163218
0.0014637529384344
0.0023490285966545
0.0033027057070285
0.0043068942613899
0.0053410753607749
0.0063876598142087
0.0074298153631389
0.0084437280893325
0.0093914084136486
0.0102143120020627
0.0108285238966345
0.0111282747238874
0.0110011650249362
0.0103505766019225
0.0091156670823693
0.0072823325172066
0.0048881350085139
0.0020231052767485
-0.0011759276967495
-0.0045358906500041
-0.0078604463487863
-0.0109455035999417
-0.0135983983054757
-0.015659611672163
-0.0170210339128971
-0.0176356565207242
-0.0175199769437313
-0.0167505014687776
-0.0154516259208321
-0.0137755265459418
-0.0118828052654862
-0.0099308844655752
-0.0080643622204661
-0.0064017460681498
-0.0050255833193659
-0.00398093694821
-0.0032775537110865
-0.0028917081654071
-0.0027694716118276
-0.0028337608091533
-0.0029937799554318
-0.00315633113496
-0.0032394507434219
-0.0031843606848269
-0.0029582078568637
-0.0025461362674832
-0.0019453833810985
-0.0011708266101777
-0.0002633761614561
0.000707231927663
0.0016457650344818
0.0024402402341365
0.002973822876811
0.0031404392793774
0.0028638751246035
0.0021130940876901
0.0009086509235203
-0.0006791120395064
-0.0025370405055582
-0.0045180041342973
-0.0064509520307183
-0.0081547992303967
-0.0094614243134856
-0.0102453688159585
-0.0104449838399887
-0.010066045448184
-0.0091729993000626
-0.0078732101246714
-0.0062977876514196
-0.0045830477029085
-0.0028535723686218
-0.0012087877839803
0.0002837209030985
0.0015889732167124
0.002703440375626
0.0036556217819452
0.0045076953247189
0.0053537599742412
0.0063099591061472
0.0074954605661332
0.0090114772319793
0.0109263863414525
0.0132693480700254
0.016031876206398
0.0191722009330987
0.022615972906351
0.0262543521821498
0.0299455374479293
0.0335215367376804
0.0367952398955822
0.0395661443471908
0.041630133986473
0.0427964702248573
0.0429109409451484
0.0418798476457595
0.0396862924098968
0.0363967716693878
0.0321617051959037
0.0272074993699789
0.0218158848583698
0.0162937771528959
0.010941257700324
0.0060255113057792
0.0017636413685977
-0.0016897656023502
-0.0042526545003056
-0.0059183766134083
-0.0067482073791325
-0.0068576256744563
-0.0063999313861131
-0.0055488618090748
-0.0044845202937722
-0.0033820495009422
-0.002397890202701
-0.0016548410058021
-0.0012300685048103
-0.0011486923322081
-0.0013871984556317
-0.0018857717514038
-0.0025630295276641
-0.0033295024186372
-0.0040977587923407
-0.0047896541655063
-0.0053437473252415
-0.005720030516386
-0.0058988165110349
-0.0058794543147087
-0.0056824665516614
-0.0053507545962929
-0.0049478076398372
-0.0045547131448984
-0.0042658783495426
-0.0041845589876174
-0.0044203335419297
-0.0050842119380831
-0.0062746880576014
-0.0080564422532916
-0.0104417661204934
-0.0133809112012386
-0.0167592652142047
-0.0204004365950822
-0.0240790508687496
-0.0275461971759796
-0.0305638238787651
-0.0329363644123077
-0.0345297381281852
-0.0352786779403686
-0.0351859591901302
-0.0343140624463558
-0.0327718146145343
-0.0306993722915649
-0.0282528959214687
-0.0255897212773561
-0.0228546485304832
-0.0201688967645168
-0.0176240373402833
-0.0152784306555986
-0.0131518207490444
-0.0112255783751606
-0.0094582149758934
-0.0078055169433355
-0.0062298197299242
-0.0046999510377645
-0.0031885313801467
-0.0016706644091755
-0.0001277013216167
0.0014473861083388
0.0030482867732644
0.004656087141484
0.0062394109554588
0.007751221768558
0.0091239586472511
0.0102704893797636
0.0110953347757458
0.0115109523758292
0.0114504676312208
0.0108773941174149
0.0097956284880638
0.00825562980026
0.0063526080921292
0.0042160558514297
0.0019931632559746
-0.0001672588405199
-0.0021266809199005
-0.0037655367050319
-0.0049905739724636
-0.0057418611831963
-0.0059958612546324
-0.005760246887803
-0.0050650821067392
-0.0039606802165508
-0.0025217602960765
-0.0008459072560071
0.0009593404829502
0.0027918484993278
0.004563886206597
0.0062087094411253
0.0076876166276633
0.0089920796453952
0.0101396478712558
0.0111674470826983
0.0121244397014379
0.0130614265799522
0.0140199651941657
0.015024559572339
0.0160822346806526
0.0171858258545398
0.0183137375861406
0.019428189843893
0.020475486293435
0.0213858559727668
0.0220739673823118
0.0224438291043043
0.0223972704261541
0.0218431819230318
0.0207076370716094
0.0189461819827556
0.0165572632104158
0.0135924397036433
0.0101596992462873
0.0064214607700705
0.0025876201689243
-0.0011024877894669
-0.0044112126342952
-0.0071363905444741
-0.0091356802731752
-0.0103388000279665
-0.0107498429715633
-0.0104398792609572
-0.0095317792147398
-0.008181570097804
-0.0065591135062277
-0.0048310179263353
-0.0031476158183068
-0.0016316408291459
-0.0003679553046822
0.0006026122719049
0.0012843902222812
0.001720049418509
0.0019738422706723
0.0021138642914593
0.0022002151235938
0.0022775093093514
0.0023725824430584
0.0024981894530355
0.0026597371324896
0.0028606476262211
0.0031031323596835
0.0033842455595731
0.0036883121356368
0.0039786603301763
0.0041937828063964
0.0042508281767368
0.0040545985102653
0.0035079726949334
0.0025228336453437
0.0010347310453653
-0.0009784642606973
-0.0034815520048141
-0.0063779689371585
-0.009516954421997
-0.0127105014398694
-0.0157560147345066
-0.0184566527605056
-0.0206389874219894
-0.0221723206341266
-0.0229837372899055
-0.0230602212250232
-0.0224400833249092
-0.0212018862366676
-0.0194578506052494
-0.0173512492328882
-0.0150484442710876
-0.0127210356295108
-0.010523228906095
-0.0085714692249894
-0.0069320169277489
-0.0056194197386503
-0.0046043656766414
-0.0038263997994363
-0.0032081443350762
-0.0026694764383137
-0.0021388507448136
-0.0015588961541652
-0.0008869590237736
-9.366986341774464e-05
0.0008351927390322
0.0018912092782557
0.0030388075392693
0.0042220400646328
0.0053758537396788
0.0064276233315467
0.0072877355851233
0.0078445877879858
0.0079754963517189
0.0075696907006204
0.00655366666615
0.004911605734378
0.0026960517279803
2.6440131478011608e-05
-0.0029226276092231
-0.0059398710727691
-0.0088027436286211
-0.0113054700195789
-0.0132788429036736
-0.0145997749641537
-0.0151963625103235
-0.0150516219437122
-0.0142054129391908
-0.0127500630915164
-0.0108167808502912
-0.0085577983409166
-0.0061307386495172
-0.0036853714846074
-0.0013506617397069
0.0007761567831039
0.0026367926038801
0.0042148800566792
0.0055303843691945
0.0066251954995095
0.0075497180223464
0.0083553651347756
0.0090890051797032
0.0097885280847549
0.0104815326631069
0.0111852157860994
0.0119056710973382
0.0126380948349833
0.0133686382323503
0.014075712300837
0.0147257130593061
0.0152649134397506
0.0156176686286926
0.0156924556940794
0.0153895355761051
0.0146104656159877
0.0132742132991552
0.0113393459469079
0.0088233202695846
0.0058111166581511
0.0024524100590497
-0.0010527926497161
-0.0044779116287827
-0.0075962464325129
-0.0102056507021188
-0.0121502224355936
-0.0133364461362361
-0.013739475980401
-0.0133960107341408
-0.01238813996315
-0.0108326245099306
-0.008878406137228
-0.0066967830061912
-0.0044602695852518
-0.0023218030110001
-0.0003999257460236
0.0012306589633226
0.0025421986356377
0.0035498202778398
0.0043027480132877
0.0048738387413322
0.0053479638881981
0.0058093555271625
0.0063299415633082
0.0069640567526221
0.0077502215281128
0.0087094837799668
0.0098368665203452
0.0110964020714163
0.0124227544292807
0.0137250535190105
0.0148926991969347
0.0158026665449142
0.0163281187415123
0.0163490455597639
0.0157661996781826
0.0145196560770273
0.0126072252169251
0.0100954743102192
0.0071193338371813
0.0038702024612575
0.0005756197497248
-0.0025282695423811
-0.0052281944081187
-0.0073581668548285
-0.0088107232004404
-0.0095398584380745
-0.0095593286678195
-0.0089362794533371
-0.0077809784561395
-0.0062336535193026
-0.0044485013931989
-0.0025760699063539
-0.0007483954541385
0.0009299647063016
0.0023862093221396
0.0035832696594297
0.0045245559886097
0.0052502476610243
0.0058199227787554
0.006294110789895
0.0067261876538395
0.0071595995686948
0.0076252417638897
0.008140780031681
0.0087098134681582
0.0093213180080056
0.009953879751265
0.010579377412796
0.0111599517986178
0.011642063036561
0.0119526963680982
0.0120004136115312
0.0116835851222276
0.0109044536948204
0.0095840897411108
0.0076768486760556
0.0051850238814949
0.0021698223426938
-0.0012459140270948
-0.0048858793452382
-0.0085401833057403
-0.0119917578995227
-0.0150405531749129
-0.0175220929086208
-0.0193226486444473
-0.0203896779567003
-0.0207332409918308
-0.0204185768961906
-0.0195510759949684
-0.0182582139968872
-0.0166771747171878
-0.0149475559592247
-0.0132013158872723
-0.0115481121465563
-0.0100614763796329
-0.0087733836844563
-0.0076778307557106
-0.006738191936165
-0.0058967364020645
-0.0050866957753896
-0.004244762007147
-0.0033197354059666
-0.0022752194199711
-0.0010880304034799
0.0002542515285313
0.0017498154193162
0.0033718990162014
0.0050636585801839
0.0067470353096723
0.008334657177329
0.0097337942570447
0.0108473291620612
0.0115792620927095
0.0118432994931936
0.0115721905604004
0.0107289999723434
0.0093190278857946
0.0073992609977722
0.0050820903852581
0.0025278935208916
-7.431535050272942e-05
-0.0025326684117317
-0.0046784314326941
-0.006384402513504
-0.0075725759379565
-0.0082149775698781
-0.0083300350233912
-0.0079757813364267
-0.007241086103022
-0.0062334258109331
-0.0050639156252145
-0.0038359819445759
-0.002641359809786
-0.0015577431768178
-0.0006418512202799
8.044345304369926e-05
0.0006186361424624
0.0010098279453814
0.0013021817430853
0.001540308818221
0.0017589544877409
0.0019823289476335
0.0022252942435443
0.0024960208684206
0.002798652742058
0.0031351204961538
0.0035058250650763
0.0039082379080355
0.0043350630439817
0.0047725546173751
0.0051975543610751
0.0055745323188602
0.0058552157133817
0.0059796404093503
0.005875919945538
0.0054626828059554
0.0046622939407825
0.0034237429499626
0.0017434563487768
-0.0003247940912842
-0.0026730196550488
-0.0051533980295062
-0.007597335614264
-0.0098343221470713
-0.0117106847465038
-0.0131053999066352
-0.0139398891478776
-0.0141826048493385
-0.0138486539945006
-0.012997955083847
-0.0117326052859425
-0.0101859308779239
-0.0085036968812346
-0.0068254242651164
-0.0052678138017654
-0.0039121760055422
-0.0028000113088637
-0.0019344999454915
-0.0012843739241361
-0.0007924740202724
-0.0003910358063876
-1.845508813858032e-05
0.0003721844404935
0.0008147708140313
0.0013336865231394
0.0019417111761868
0.0026334361173212
0.0033823116682469
0.00414569536224
0.0048741213977336
0.0055200885981321
0.006043795030564
0.0064137815497815
0.0066009699366986
0.0065694339573383
0.0062722116708755
0.0056555471383035
0.0046691233292222
0.00327970366925
0.0014846613630652
-0.0006768843159079
-0.0031197296921163
-0.0057225571945309
-0.0083481883630156
-0.0108610372990369
-0.0131356371566653
-0.0150592513382434
-0.0165356583893299
-0.0174919348210096
-0.0178847797214984
-0.0177059173583984
-0.0169852171093225
-0.0157881379127502
-0.0142090003937482
-0.0123627539724111
-0.0103722596541047
-0.0083509180694818
-0.0063915187492966
-0.0045677181333303
-0.0029371851123869
-0.0015371714252978
-0.0003787335008382
0.0005518137477338
0.001285252161324
0.001863993704319
0.0023406774271279
0.0027732690796256
0.0032152601052075
0.0037089716643095
0.0042855613864958
0.0049660988152027
0.0057601383887231
0.0066664069890975
0.0076744952239096
0.0087592145428061
0.0098707918077707
0.0109315179288387
0.0118430415168404
0.012500918470323
0.0128081310540437
0.0126859545707702
0.0120867202058434
0.0110046863555908
0.0094792479649186
0.0075929183512926
0.0054652644321322
0.0032405680976808
0.0010731313377618
-0.0008847410790622
-0.0024967617355287
-0.003662509843707
-0.0043343529105186
-0.0045209601521492
-0.0042758462950587
-0.0036793197505176
-0.0028252187184989
-0.0018126163631677
-0.0007354677654802
0.0003277421928942
0.0013180305249989
0.002195683773607
0.0029404242523014
0.0035522934049367
0.0040521500632166
0.0044781272299587
0.0048751970753073
0.0052831973880529
0.0057295043952763
0.0062275291420519
0.006779673974961
0.0073803435079753
0.0080161299556493
0.0086655486375093
0.0093018868938088
0.009899016469717
0.0104349963366985
0.0108903460204601
0.0112452320754528
0.011478554457426
0.0115668447688221
0.0114824594929814
0.0111898407340049
0.0106413159519433
0.0097822304815053
0.0085679329931736
0.0069824387319386
0.0050506070256233
0.0028415732085704
0.0004629253235179
-0.0019521415233612
-0.0042609898373484
-0.0063280318863689
-0.0080386195331811
-0.0093095107004046
-0.0100960759446024
-0.0103947492316365
-0.0102404095232486
-0.0097011309117078
-0.0088729243725538
-0.0078723384067416
-0.0068224146962165
-0.0058340718969702
-0.0049895588308572
-0.0043330555781722
-0.0038707857020199
-0.0035785378422588
-0.0034116879105567
-0.0033150278031826
-0.0032306415960192
-0.003101363312453
-0.0028728721663355
-0.002499979455024
-0.0019560407381504
-0.0012429165653884
-0.0003968921955674
0.0005193791585043
0.0014367210678756
0.0022962179500609
0.0030561848543584
0.0036904085427522
0.0041811820119619
0.0045132488012313
0.0046701463870704
0.0046304580755531
0.0043665058910846
0.0038498376961797
0.0030609257519245
0.0019987232517451
0.0006884216563776
-0.0008171593653969
-0.0024436390958726
-0.0041020233184099
-0.005695154890418
-0.0071267243474721
-0.0083097880706191
-0.0091719292104244
-0.009661198593676
-0.0097545580938458
-0.0094642303884029
-0.0088368263095617
-0.0079432446509599
-0.00686492677778
-0.0056838421151041
-0.0044743688777089
-0.0032937766518443
-0.0021771665196865
-0.0011419258080422
-0.0001957563217729
0.0006576187442988
0.0014151006471365
0.0020756726153194
0.0026461670640856
0.0031442516483366
0.0035970527678728
0.0040381927974522
0.0045013357885181
0.0050094416365027
0.005567620974034
0.0061664162203669
0.0067904931493103
0.0074251014739274
0.0080560352653265
0.0086611881852149
0.0092000467702746
0.0096104461699724
0.0098144365474581
0.0097294263541698
0.0092806126922369
0.0084127616137266
0.0071006249636411
0.0053566941060125
0.0032343170605599
0.0008249554084613
-0.0017487960867583
-0.0043426463380455
-0.0068027386441826
-0.0089793624356389
-0.0107434308156371
-0.0120063088834285
-0.0127331651747226
-0.012941375374794
-0.0126883648335933
-0.012057788670063
-0.0111475083976984
-0.0100579857826232
-0.0088816015049815
-0.0076960790902376
-0.006562222726643
-0.0055215582251548
-0.0045926421880722
-0.003770497161895
-0.0030310032889246
-0.0023391232825815
-0.0016600443050265
-0.0009695403277873
-0.0002585682086646
0.0004690666683018
0.0012026950716972
0.0019313844386488
0.0026495670899748
0.0033590239472687
0.0040672859176993
0.0047847949899733
0.0055202520452439
0.0062751388177275
0.0070401527918875
0.0077896835282444
0.0084746293723583
0.0090243704617023
0.0093562435358762
0.0093815624713897
0.0090121496468782
0.0081763956695795
0.0068409284576773
0.0050275353714823
0.0028195725753903
0.000355148455128
-0.0021921985317021
-0.0046388139016926
-0.0068145082332193
-0.0085792653262615
-0.009833388030529
-0.010523653589189
-0.0106434719637036
-0.010226210579276
-0.0093386843800544
-0.0080784512683749
-0.0065685212612152
-0.0049450537189841
-0.0033409763127565
-0.0018699634820222
-0.0006139376200735
0.0003840583376586
0.0011201458983123
0.0016237529926002
0.0019494239240884
0.0021687857806682
0.0023621600121259
0.0026069772429764
0.0029642244335263
0.0034723805729299
0.0041496641933918
0.0049941898323595
0.0059815975837409
0.0070672845467925
0.0081937154754996
0.0092984931543469
0.0103202108293771
0.0112010836601257
0.011885967105627
0.0123204560950398
0.0124509744346141
0.0122252777218818
0.0115949949249625
0.0105251651257276
0.0090081021189689
0.0070737721398472
0.0047912723384797
0.0022612859029322
-0.0003948773955926
-0.0030451293569058
-0.0055551081895828
-0.0077963843941688
-0.009655125439167
-0.0110423192381858
-0.0119043728336691
-0.0122281555086374
-0.0120389778167009
-0.0113964211195707
-0.0103887282311916
-0.0091238990426063
-0.0077166254632174
-0.0062705478630959
-0.0048648780211806
-0.0035552147310227
-0.0023796958848834
-0.0013602613471448
-0.0005024406127631
0.0002031410112977
0.0007776548154652
0.0012504386249929
0.0016577148344367
0.0020421710796654
0.0024483082816004
0.0029134200885891
0.0034598875790834
0.0040931710973382
0.0048055853694677
0.0055830972269177
0.0064081861637532
0.0072540887631475
0.0080761145800352
0.0088069373741745
0.0093582887202501
0.0096308393403887
0.0095284478738904
0.0089710066094994
0.0079076904803514
0.0063310740515589
0.0042855134233832
0.0018652562284842
-0.0007962504168972
-0.0035414388403296
-0.0062023745849728
-0.008610799908638
-0.0106123127043247
-0.0120894629508256
-0.012980637140572
-0.013282342813909
-0.0130390785634517
-0.0123299155384302
-0.0112554188817739
-0.0099250618368387
-0.0084463944658637
-0.006917405873537
-0.0054216724820435
-0.004025497008115
-0.0027758430223912
-0.0016976848710328
-0.0007912733126431
-3.297068178653717e-05
0.000616111094132
0.0011983935255557
0.0017544163856655
0.0023218551650643
0.0029316686559468
0.0036018111277371
0.0043346402235329
0.0051203370094299
0.0059424890205264
0.0067824847064912
0.0076206098310649
0.0084341820329427
0.0091962534934282
0.0098732849583029
0.0104194013401865
0.0107734026387333
0.0108613045886158
0.010599416680634
0.0099011082202196
0.0086941197514534
0.0069432477466762
0.0046684737317264
0.0019533010199666
-0.0010590952588245
-0.0041817193850874
-0.0072085079737007
-0.009940736927092
-0.0122076803818345
-0.0138798970729112
-0.0148780290037393
-0.0151798445731401
-0.0148224290460348
-0.0138968490064144
-0.0125379245728254
-0.0109095936641097
-0.0091855786740779
-0.0075269979424774
-0.0060608237981796
-0.0048652486875653
-0.0039657480083405
-0.003341669216752
-0.0029384195804595
-0.0026806914247572
-0.0024854079820215
-0.0022717919200658
-0.0019694496877491
-0.0015258784405887
-0.000908404123038
-0.0001024212688207
0.000886408612132
0.0020301192998886
0.0032835339661687
0.0045923367142677
0.0058976933360099
0.0071370364166796
0.0082437898963689
0.0091460831463336
0.0097633115947246
0.0100065749138593
0.009789858944714
0.0090473461896181
0.0077481940388679
0.0059082997031509
0.0035994679201394
0.0009469462092965
-0.0018880059942603
-0.0047276839613914
-0.0073915030807256
-0.0097081065177917
-0.0115297846496105
-0.0127481184899806
-0.0133058438077569
-0.0131994318217039
-0.012473177164793
-0.0112102273851633
-0.0095232874155044
-0.0075449608266353
-0.0054178247228264
-0.003281801007688
-0.0012565553188323
0.0005733137950301
0.0021602381020784
0.0034866090863943
0.0045580887235701
0.0054007563740015
0.0060604531317949
0.006598746869713
0.0070840241387486
0.0075818952172994
0.0081464676186442
0.008814419619739
0.0096041802316904
0.0105173159390687
0.0115395132452249
0.0126424394547939
0.0137860979884862
0.0149157047271728
0.0159510467201471
0.0167797747999429
0.0172664821147918
0.0172741115093231
0.0166868474334478
0.0154296029359102
0.0134828630834817
0.0108913388103246
0.0077671557664871
0.0042867730371654
0.0006753732450306
-0.0028220540843904
-0.0059725409373641
-0.0085799247026443
-0.0105000669136643
-0.0116514516994357
-0.0120241260156035
-0.0116790495812892
-0.0107333371415734
-0.0093394787982106
-0.0076659861952066
-0.005880270153284
-0.0041333679109811
-0.0025462398771196
-0.0011977397371083
-0.0001190393231809
0.0007011591223999
0.0013050956185907
0.0017538190586492
0.0021176738664507
0.0024710369762033
0.002884458983317
0.0034096345771104
0.0040674381889402
0.0048477849923074
0.0057179643772542
0.0066354935988783
0.0075616226531565
0.0084668239578604
0.009324824437499
0.0101004429161548
0.0107372384518384
0.0111502520740032
0.011229021474719
0.0108521934598684
0.0099095394834876
0.0083267986774444
0.0060878507792949
0.0032445830292999
-8.811289444565773e-05
-0.0037441079039126
-0.0075198924168944
-0.0111925555393099
-0.0145423263311386
-0.0173756312578916
-0.0195431057363748
-0.0209492351859807
-0.0215556435286998
-0.0213819146156311
-0.0205006301403045
-0.0190226510167121
-0.017077550292015
-0.0147977769374847
-0.0123126246035099
-0.0097483610734343
-0.007224760018289
-0.004847599659115
-0.002701205201447
-0.0008404952241107
0.0007143977563828
0.0019763284362852
0.0029845722019672
0.0037956812884658
0.0044716564007103
0.005069111008197
0.0056328470818698
0.0061930669471621
0.0067661665380001
0.0073599889874458
0.0079787662252783
0.0086205992847681
0.0092681953683495
0.0098792156204581
0.0103791281580924
0.0106580266728997
0.0105772893875837
0.0099901026114821
0.0087710423395037
0.0068456237204372
0.0042107137851417
0.0009417873807251
-0.0028093513101339
-0.0068258205428719
-0.0108466502279043
-0.0145931784063577
-0.0178010575473308
-0.0202569290995597
-0.0218273997306823
-0.0224691946059465
-0.022221690043807
-0.0211898423731327
-0.0195245146751403
-0.0174046456813812
-0.0150215458124876
-0.0125618455931544
-0.0101896133273839
-0.008030891418457
-0.0061632124707102
-0.004613546654582
-0.0033612619154155
-0.0023421766236424
-0.0014624050818383
-0.0006238368805497
0.000255282735452
0.0012332207988947
0.0023431272711604
0.0035930760204792
0.0049716033972799
0.0064557688310742
0.0080139832571148
0.0096055641770362
0.0111847445368766
0.0127075221389532
0.0141320265829563
0.0154098384082317
0.0164749771356582
0.0172377526760101
0.0175864901393651
0.017397154122591
0.0165522675961256
0.0149686001241207
0.0126249520108103
0.0095798913389444
0.0059751230292022
0.0020242612808942
-0.0020096600055694
-0.0058423816226422
-0.0091987755149602
-0.011843248270452
-0.0136065492406487
-0.014403598383069
-0.0142368758097291
-0.0131859304383397
-0.0113924536854028
-0.0090473610907793
-0.0063747158274054
-0.0036073648370802
-0.0009582545608282
0.0014047101140022
0.0033737323246896
0.0049039651639759
0.0060069561004638
0.0067390291951596
0.0071888756938278
0.0074654435738921
0.0076831299811601
0.007945992052555
0.0083379130810499
0.0089205475524067
0.0097315274178981
0.0107764806598424
0.0120225250720977
0.0134031362831592
0.0148322461172938
0.0162204224616289
0.0174844115972518
0.0185436494648456
0.0193100292235612
0.0196815859526395
0.0195425190031528
0.0187716074287891
0.0172630939632654
0.014955511316657
0.0118574798107147
0.0080628003925085
0.0037481263279914
-0.0008489806205034
-0.0054603796452283
-0.0098149599507451
-0.0136628886684775
-0.016795152798295
-0.0190568603575229
-0.0203585438430309
-0.0206863824278116
-0.0201049484312534
-0.0187490172684192
-0.0168059431016445
-0.0144909061491489
-0.0120210135355591
