bvp
-0.0089991288259625
-0.0071174707263708
-0.0054072723723948
-0.0039431075565516
-0.002748523838818
-0.0018006238387897
-0.0010492810979485
-0.0004347219364717
0.0001053946325555
0.000633233692497
0.0012076569255441
0.0018798147793859
0.002688092412427
0.0036535754334181
0.0047759544104337
0.0060326517559587
0.0073837041854858
0.0087769646197557
0.0101484982296824
0.0114203263074159
0.0124966530129313
0.0132593978196382
0.0135694611817598
0.013279614970088
0.0122593957930803
0.0104265986010432
0.0077745821326971
0.0043863458558917
0.0004330035299062
-0.0038430048152804
-0.0081572998315095
-0.0122180264443159
-0.0157579537481069
-0.0185625366866588
-0.0204917434602975
-0.0214882995933294
-0.0215700380504131
-0.02081760764122
-0.0193679071962833
-0.0174055434763431
-0.0151427071541547
-0.0127927586436271
-0.0105460016056895
-0.0085508935153484
-0.0069012083113193
-0.0056313569657504
-0.0047219204716384
-0.0041109435260295
-0.0037073506973683
-0.0034075151197612
-0.0031115266028791
-0.0027319479268044
-0.0021950616501271
-0.0014464575797319
-0.0004657250829041
0.0007262672297656
0.0020785345695912
0.0035269032232463
0.0050037456676363
0.0064413198269903
0.007768880110234
0.0089020673185586
0.0097343130037188
0.0101408278569579
0.0099923843517899
0.0091743450611829
0.0076111364178359
0.0052919979207217
0.0022901128977537
-0.0012356103397905
-0.0050616124644875
-0.0089317439123988
-0.0125868003815412
-0.0157888866961002
-0.018340528011322
-0.0200980529189109
-0.0209794007241725
-0.0209680665284395
-0.0201146118342876
-0.0185328777879476
-0.0163868516683578
-0.0138694131746888
-0.0111784003674983
-0.0084929382428526
-0.005953149870038
-0.0036522205919027
-0.0016419120365753
6.0837657656520605e-05
0.0014709013048559
0.0026286842767149
0.0035905870608985
0.0044218385592103
0.0051904818974435
0.0059593240730464
0.0067787347361445
0.0076823229901492
0.0086836274713277
0.0097758118063211
0.0109372930601239
0.0121393725275993
0.0133489640429615
0.0145220113918185
0.015588404610753
0.0164388455450534
0.0169268250465393
0.0168864838778972
0.0161583814769983
0.0146193457767367
0.0122134964913129
0.008974902331829
0.0050322711467742
0.0005952706560492
-0.0040712868794798
-0.0086779333651065
-0.0129398871213197
-0.0166017971932888
-0.019456198439002
-0.0213598497211933
-0.0222506336867809
-0.0221560224890708
-0.0211871955543756
-0.019522238522768
-0.0173800103366374
-0.0149897476658225
-0.0125655923038721
-0.0102868285030126
-0.0082823205739259
-0.0066213379614055
-0.0053120809607207
-0.0043095690198242
-0.0035305330529809
-0.0028695063665509
-0.0022153784520924
-0.0014686826616525
-0.0005565867759287
0.000558613333851
0.0018808213062584
0.0033887312747538
0.0050452286377549
0.006805504206568
0.0086239073425531
0.010457606986165
0.0122646838426589
0.0139943119138479
0.0155724063515663
0.0168935917317867
0.0178259313106536
0.0182273183017969
0.0179701074957847
0.0169651918113231
0.0151791851967573
0.0126491170376539
0.0094935074448585
0.0059087155386805
0.0021481558214873
-0.0015075043775141
-0.0047838469035923
-0.0074468357488512
-0.0093292780220508
-0.0103425476700067
-0.0104762613773345
-0.0097925513982772
-0.0084159839898347
-0.0065158070065081
-0.00428121490404
-0.0018985322676599
0.0004617669619619
0.0026533748023211
0.004565258976072
0.0061318152584135
0.0073352428153157
0.0081997262313961
0.0087824640795588
0.0091648856177926
0.0094416448846459
0.009705345146358
0.0100322300568223
0.0104752629995346
0.0110641121864318
0.0118093751370906
0.012707483023405
0.0137399453669786
0.0148674957454204
0.0160264074802398
0.0171278845518827
0.0180577915161848
0.0186790227890014
0.0188405085355043
0.0183927956968545
0.0172090213745832
0.0152112133800983
0.0123950578272342
0.0088425520807504
0.0047200503759086
0.0002633826807141
-0.0042473128996789
-0.0085168490186333
-0.0122670419514179
-0.0152716357260942
-0.0173829831182956
-0.01854033395648
-0.0187634434551
-0.0181392505764961
-0.016805712133646
-0.0149359200149774
-0.0127233900129795
-0.0103655513375997
-0.0080444039776921
-0.005909392144531
-0.0040651084855198
-0.0025628125295042
-0.0014000181108713
-0.0005285867955535
0.0001320866867899
0.0006752391345798
0.0011864695698022
0.0017324876971542
0.0023570135235786
0.0030801324173808
0.0039023794233798
0.0048121423460543
0.0057898168452084
0.0068073482252657
0.0078265583142638
0.0087939575314521
0.009631766937673
0.0102325761690735
0.0104659982025623
0.0102005247026681
0.0093288403004407
0.0077824899926781
0.0055422270670533
0.0026516821235418
-0.0007749591022729
-0.0045582763850688
-0.0084686130285263
-0.0122482627630233
-0.0156392659991979
-0.0184121616184711
-0.0203904788941144
-0.0214673355221748
-0.0216133520007133
-0.0208761245012283
-0.0193691179156303
-0.0172514915466308
-0.0147088784724473
-0.0119404252618551
-0.0091446693986654
-0.0064999810419976
-0.0041442862711846
-0.0021595724392682
-0.0005669221282005
0.0006656325422227
0.001606763806194
0.0023432653397321
0.002963503357023
0.0035459948703646
0.0041553969494998
0.0048416568897664
0.0056377132423222
0.0065586501732468
0.007601034361869
0.0087386146187782
0.0099192969501018
0.0110668847337365
0.0120834941044449
0.0128506170585751
0.0132327042520046
0.0130887869745492
0.0122925704345107
0.0107569526880979
0.0084580434486269
0.0054519604891538
0.0018784254789352
-0.0020517446100711
-0.0060805240646004
-0.009928704239428
-0.013325260952115
-0.0160428322851657
-0.0179272163659334
-0.0189086236059665
-0.0189965981990098
-0.0182674601674079
-0.0168507322669029
-0.0149139855057001
-0.0126439109444618
-0.0102274194359779
-0.0078360186889767
-0.0056127328425645
-0.0036621713079512
-0.0020441920496523
-0.0007697627879679
0.0001980760134756
0.0009302599355578
0.0015068817883729
0.001997057814151
0.0024515786208212
0.0029030824080109
0.0033676740713417
0.0038456334732472
0.004322559107095
0.0047746435739099
0.0051770475693047
0.0055071897804737
0.0057395254261791
0.0058378418907523
0.0057488875463604
0.0053998599760234
0.0047047333791852
0.0035758721642196
0.0019369171932339
-0.0002572890371084
-0.0029954693745821
-0.0061927144415676
-0.0096913184970617
-0.0132800824940204
-0.0167238265275955
-0.019790893420577
-0.0222723018378019
-0.0239971857517957
-0.0248500425368547
-0.0247856937348842
-0.0238336939364671
-0.0220879092812538
-0.0196870379149913
-0.0167999491095542
-0.0136166233569383
-0.0103330742567777
-0.0071305376477539
-0.0041569713503122
-0.0015148939564824
0.0007430957630276
0.0026132459752261
0.0041351863183081
0.0053808195516467
0.00643927231431
0.0074017303995788
0.0083498293533921
0.009349325671792
0.0104474145919084
0.0116721475496888
0.0130319483578205
0.0145117687061429
0.0160691160708665
0.0176370255649089
0.0191306285560131
0.0204499438405036
0.0214801616966724
0.0220934860408306
0.0221569128334522
0.021551176905632
0.0201977808028459
0.0180823244154453
0.0152659127488732
0.0118850171566009
0.0081433374434709
0.0042956275865435
0.0006181355565786
-0.0026315096765756
-0.0052473759278655
-0.0070901815779507
-0.0080902446061372
-0.0082473699003458
-0.0076283407397568
-0.006357614416629
-0.0046003437601029
-0.0025424822233617
-0.0003717620857059
0.0017397697083652
0.0036491081118583
0.0052507403306663
0.0064849979244172
0.0073460824787616
0.0078790802508592
0.0081623317673802
0.0082874735817313
0.0083454381674528
0.0084157222881913
0.0085580553859472
0.0088094370439648
0.0091867763549089
0.0096901496872305
0.0103039043024182
0.0109988758340477
0.011736299842596
0.0124702556058764
0.0131460893899202
0.0136961936950683
0.0140380393713712
0.0140718463808298
0.0136787835508584
0.0127344476059079
0.0111382398754358
0.0088421162217855
0.0058702705428004
0.0023277564905583
-0.0016042254865169
-0.0056858188472688
-0.0096475128084421
-0.013226393610239
-0.0161985103040933
-0.0183992236852645
-0.0197335351258516
-0.0201785061508417
-0.019778411835432
-0.0186391212046146
-0.0169227570295333
-0.0148327946662902
-0.012585817836225
-0.0103798620402812
-0.0083725675940513
-0.0066713155247271
-0.0053302249871194
-0.0043538277968764
-0.0037052871193736
-0.0033145437482744
-0.0030886838212609
-0.0029261535964906
-0.0027302377857267
-0.0024180461186915
-0.0019255360821262
-0.0012138957390561
-0.0002788936835713
0.0008460448007099
0.0020987356547266
0.0034029472153633
0.0046809194609522
0.0058582425117492
0.0068604820407927
0.007605992257595
0.0080009512603282
0.0079443491995334
0.0073448582552373
0.0061431564390659
0.0043324474245309
0.001971936551854
-0.000810322468169
-0.0038303029723465
-0.0068764677271246
-0.0097398553043603
-0.0122331138700246
-0.0142012415453791
-0.0155311925336718
-0.0161602273583412
-0.0160804037004709
-0.0153381302952766
-0.0140261249616742
-0.0122683690860867
-0.0102054486051201
-0.0079841446131467
-0.0057466030120849
-0.0036165614146739
-0.0016871315892785
-1.5467870980501175e-05
0.0013756300322711
0.0024941854644566
0.003374989144504
0.0040728850290179
0.0046550165861845
0.005193249322474
0.0057553090155124
0.0063963020220398
0.0071524148806929
0.0080366730690002
0.0090388925746083
0.0101308962330222
0.0112734995782375
0.0124212428927421
0.013522271066904
0.0145104546099901
0.0152929360046982
0.0157467983663082
0.0157333202660083
0.0151221994310617
0.0138176260516047
0.0117841912433505
0.0090660564601421
0.0057918494567275
0.0021640881896018
-0.0015657194890081
-0.0051322495564818
-0.0082912137731909
-0.0108457962051033
-0.0126635935157537
-0.0136818327009677
-0.0139040555804967
-0.0133967697620391
-0.0122832302004098
-0.0107271540910005
-0.008909685537219
-0.0070071099326014
-0.0051734638400375
-0.0035288487561047
-0.0021512515377253
-0.0010717457626014
-0.0002767587138805
0.0002830306766554
0.0006815196247771
0.0010040267370641
0.0013339183060452
0.0017442977987229
0.002291306387633
0.0030042016878724
0.0038793378043919
0.0048839459195733
0.0059663113206624
0.0070680561475455
0.0081352153792977
0.0091251749545335
0.0100061744451522
0.0107477428391575
0.0113078178837895
0.0116242505609989
0.0116134919226169
0.0111772436648607
0.0102205034345388
0.0086806416511535
0.0065517094917595
0.0038896198384463
0.0008045244030654
-0.0025481968186795
-0.0059774899855256
-0.0092725846916437
-0.0122276507318019
-0.0146670406684279
-0.0164628010243177
-0.0175441801548004
-0.0178984813392162
-0.0175645239651203
-0.0166252441704273
-0.0152012128382921
-0.0134389195591211
-0.0114897899329662
-0.0094904024153947
-0.0075557581149041
-0.0057788868434727
-0.0042264233343303
-0.0029332828707993
-0.0019021618645638
-0.0011062496341764
-0.0004942116793245
1.5570549294352531e-06
0.0004560535307973
0.0009425713797099
0.0015214950544759
0.0022292314097285
0.0030725148972123
0.0040329354815185
0.0050803860649466
0.0061835874803364
0.0073077473789453
0.0084061035886406
0.0094166444614529
0.0102631347253918
0.0108557688072323
0.0110937589779496
0.0108745349571108
0.0101094711571931
0.0087409326806664
0.0067557352595031
0.0041956170462071
0.0011641192249953
-0.002177309943363
-0.0056242505088448
-0.0089485868811607
-0.0119243888184428
-0.0143604539334774
-0.0161253176629543
-0.0171540006995201
-0.0174425095319747
-0.0170401874929666
-0.0160412304103374
-0.0145738925784826
-0.0127885602414608
-0.0108448155224323
-0.0088960565626621
-0.0070722438395023
-0.0054658884182572
-0.004126111511141
-0.0030582509934902
-0.0022249985486268
-0.0015539219602942
-0.0009562848135828
-0.0003494648262858
0.0003269407898187
0.0011045802384614
0.0019898766186088
0.0029738284647464
0.004039701540023
0.0051648491062223
0.0063215498812496
0.0074798176065087
0.008610239252448
0.0096864653751254
0.0106855230405926
0.0115820635110139
0.0123373791575431
0.0128872375935316
0.0131342848762869
0.0129557251930236
0.0122296344488859
0.0108675342053174
0.0088414289057254
0.0061998162418603
0.0030676166061311
-0.0003685192205011
-0.0038814556319266
-0.0072268992662429
-0.0101689388975501
-0.0125058880075812
-0.0140914730727672
-0.0148472543805837
-0.0147656584158539
-0.0139082698151469
-0.0124003831297159
-0.010414533317089
-0.008145235478878
-0.005786701105535
-0.0035142265260219
-0.001466266810894
0.000267369672656
0.0016496013849973
0.0026942677795886
0.0034558176994323
0.0040137437172234
0.0044595939107239
0.0048865466378629
0.0053790109232068
0.0060052368789911
0.0068119559437036
0.0078159803524613
0.0089984396472573
0.010309999808669
0.0116840684786438
0.0130511373281478
0.014349652454257
0.0155294854193925
0.0165467634797096
0.0173527039587497
0.0178814902901649
0.0180446822196245
0.0177393350750207
0.0168699286878108
0.0153766684234142
0.0132596250623464
0.0105875534936785
0.0074887266382575
0.004133952781558
0.0007191043114289
-0.0025541908107697
-0.0054980316199362
-0.007953125052154
-0.0097990883514285
-0.0109635666012763
-0.0114292660728096
-0.0112329926341772
-0.0104557862505316
-0.0092113045975565
-0.0076357359066605
-0.0058750193566083
-0.0040691304020583
-0.0023406064137816
-0.0007906421087682
0.0005039583193138
0.0014981623971834
0.0021867169998586
0.0026078377850353
0.0028389422222971
0.0029809684492647
0.0031347349286079
0.0033816173672676
0.003776432480663
0.004346611443907
0.0050910692662
0.005982507020235
0.0069761825725436
0.0080220587551593
0.0090745519846677
0.0100927399471402
0.0110317096114158
0.0118336882442235
0.0124225514009594
0.0127024073153734
0.0125653315335512
0.0119091924279928
0.0106578581035137
0.0087785515934228
0.0062953457236289
0.0032947002910077
-7.881410419940948e-05
-0.0036349799484014
-0.0071572749875485
-0.0104245236143469
-0.0132335554808378
-0.0154242422431707
-0.0168986022472381
-0.0176260601729154
-0.0176396314054727
-0.0170282069593668
-0.0159230567514896
-0.0144782373681664
-0.0128498896956443
-0.0111808869987726
-0.0095918839797377
-0.0081735588610172
-0.0069800438359379
-0.0060279835015535
-0.0052983425557613
-0.0047373329289257
-0.0042647775262594
-0.0037959634792059
-0.0032643321901559
-0.002630787435919
-0.001880400814116
-0.0010156868956983
-5.285628139972687e-05
0.0009798966348171
0.0020456705242395
0.0031056078150868
0.0041273543611168
0.0050897593609988
0.0059789903461933
0.0067773205228149
0.0074533862061798
0.0079596638679504
0.008232039399445
0.0081883836537599
0.0077342502772808
0.0067811873741447
0.0052729267627
0.0032083690166473
0.0006491458043456
-0.0022856872528791
-0.0054272562265396
-0.0085708536207675
-0.0115015972405672
-0.0140230394899845
-0.0159797891974449
-0.0172726139426231
-0.0178632941097021
-0.0177658405154943
-0.0170347429811954
-0.015764145180583
-0.0140880066901445
-0.012165755033493
-0.0101597104221582
-0.0082154925912618
-0.0064464127644896
-0.0049236183986067
-0.0036746188998222
-0.0026867920532822
-0.0019143290119245
-0.0012900214642286
-0.0007394281565211
-0.0001918518682941
0.0004155979258939
0.001136478036642
0.0020081996917724
0.0030422422569245
0.0042221867479383
0.005510751157999
0.0068565239198505
0.008198962546885
0.0094760991632938
0.0106322467327117
0.0116195324808359
0.0123911816626787
0.0128905018791556
0.0130446851253509
0.0127701442688703
0.0119875688105821
0.0106437746435403
0.0087352283298969
0.0063185784965753
0.0035016422625631
0.0004275690298527
-0.0027382823172956
-0.005820392165333
-0.008644456975162
-0.0110496487468481
-0.0129045220091938
-0.0141226388514041
-0.0146717131137847
-0.0145740741863846
-0.0139004560187459
-0.0127602778375148
-0.0112889278680086
-0.0096308849751949
-0.0079197231680154
-0.0062637869268655
-0.0047455495223402
-0.0034251022152602
-0.0023355905432254
-0.0014769353438168
-0.0008180106524378
-0.0003063469193875
0.0001203548163175
0.0005256112199276
0.0009681992232799
0.0014959305990487
0.0021412500645965
0.0029199856799095
0.0038303772453218
0.0048540877178311
0.0059629902243614
0.0071262083947658
0.0083082318305969
0.0094608180224895
0.0105190854519605
0.0114040067419409
0.0120276641100645
0.0123002938926219
0.0121387848630547
0.0114776147529482
0.0102830603718757
0.0085660712793469
0.0063887555152177
0.0038638222031295
0.0011466923169791
-0.0015800723340362
-0.0041276579722762
-0.0063255382701754
-0.008044796064496
-0.0092100268229842
-0.0097980536520481
-0.0098307766020298
-0.009366825222969
-0.0084925536066293
-0.0073115155100822
-0.0059338491410017
-0.0044679893180727
-0.0030131731182336
-0.0016514309681952
-0.000441257841885
0.0005856864154338
0.0014247093349695
0.00209650862962
0.0026435276959091
0.0031193436589092
0.0035739485174417
0.0040465700440108
0.004567090421915
0.0051558753475546
0.0058208089321851
0.0065579772926867
0.0073547330684959
0.0081927357241511
0.0090520828962326
0.0099127050489187
0.0107514522969722
0.0115381302312016
0.0122312102466821
0.012774703092873
0.0130953276529908
0.0131015740334987
0.0126944743096828
0.0117899123579263
0.0103418603539466
0.0083596818149089
0.0059149619191884
0.003135533304885
0.0001888730330392
-0.0027388830203562
-0.0054613165557384
-0.0078069423325359
-0.0096334060654044
-0.0108401514589786
-0.011378563940525
-0.0112554933875799
-0.010529251769185
-0.0093042384833097
-0.0077228685840964
-0.0059489724226295
-0.0041459547355771
-0.0024566943757236
-0.0009892242960631
0.0001909929269459
0.0010636067017912
0.001649510464631
0.0019993924070149
0.0021795907523483
0.0022615080233663
0.0023148122709244
0.0024021076969802
0.0025760282296687
0.0028755418024957
0.0033176962751895
0.0038942026440054
0.0045784655958414
0.0053322948515415
0.0061081256717443
0.006853099912405
0.0075138360261917
0.008036196231842
0.0083606811240315
0.0084182731807231
0.008132079616189
0.0074285864830017
0.0062546008266508
0.0045934868976473
0.0024793026968836
1.9902363419532776e-06
-0.002705218270421
-0.0054876189678907
-0.0081856036558747
-0.0106465425342321
-0.0127371046692132
-0.0143533442169427
-0.0154260247945785
-0.0159254055470228
-0.0158663932234048
-0.0153064224869012
-0.014334786683321
-0.0130612030625343
-0.0116054788231849
-0.0100835114717483
-0.0085913268849253
-0.007197709288448
-0.005947908386588
-0.0048678098246455
-0.0039634853601455
-0.0032211984507739
-0.00260996283032
-0.0020855471957474
-0.0015967150684446
-0.001093016937375
-0.000530656077899
0.0001250783680006
0.0008970155613496
0.0017918674275279
0.0027982434257864
0.0038886670954525
0.0050274389795959
0.0061792344786226
0.0073056193068623
0.0083510996773839
0.0092345187440514
0.0098529364913702
0.0100938407704234
0.0098513597622513
0.0090446081012487
0.0076354686170816
0.0056403167545795
0.0031328578479588
0.0002413946203887
-0.0028592550661414
-0.0059654889628291
-0.0088683003559708
-0.0113736735656857
-0.0133219677954912
-0.014608496800065
-0.0151961669325828
-0.0151146491989493
-0.0144484248012304
-0.0133182192221283
-0.0118631133809685
-0.010226628743112
-0.0085447840392589
-0.0069359317421913
-0.0054927910678088
-0.0042758942581713
-0.0033108554780483
-0.0025911722332239
-0.0020822305232286
-0.0017243437469005
-0.0014399229548871
-0.0011481856927275
-0.0007814313285052
-0.0002933875657618
0.000341338571161
0.001129827927798
0.0020620636641979
0.0031139042694121
0.0042523355223238
0.0054391683079302
0.0066333170980215
0.0077944793738424
0.0088860802352428
0.0098708700388669
0.010701261460781
0.0113148968666791
0.0116347540169954
0.0115696983411908
0.0110249072313308
0.0099274171516299
0.0082533517852425
0.0060417242348194
0.0033929999917745
0.0004589846357703
-0.0025715073570609
-0.005491770338267
-0.008100526407361
-0.0102249346673488
-0.0117388572543859
-0.0125734191387891
-0.0127178886905312
-0.0122119821608066
-0.0111362393945455
-0.0096054654568433
-0.007760795764625
-0.0057555399835109
-0.0037378063425421
-0.0018359748646616
-0.0001501040533185
0.0012532025575637
0.0023460634984076
0.0031428267247974
0.0036965403705835
0.0040878765285015
0.0044100191444158
0.0047527472488582
0.0051910169422626
0.0057804463431239
0.0065528247505426
0.0075085675343871
0.0086152497678995
0.0098175583407282
0.0110518485307693
0.0122571745887398
0.0133804157376289
0.0143751269206404
0.0151945129036903
0.0157829876989126
0.0160717628896236
0.0159820020198822
0.0154367294162511
0.0143771776929497
0.012778865173459
0.0106641100719571
0.0081048337742686
0.0052157323807477
0.0021441937424242
-0.000941754784435
-0.003867270424962
-0.0064645376987755
-0.0085874535143375
-0.0101259592920541
-0.0110166408121585
-0.0112496130168437
-0.0108702313154935
-0.0099713774397969
-0.0086789857596158
-0.007136883214116
-0.0054905582219362
-0.0038693957030773
-0.0023742676712572
-0.0010755858384072
-1.588882878422737e-05
0.0007912702858448
0.0013649032916873
0.001755089033395
0.0020333416759967
0.0022793656680732
0.0025687522720545
0.0029627825133502
0.0035009514540433
0.0041974140331149
0.0050424030050635
0.0060073304921388
0.0070519177243113
0.0081335874274373
0.0092144217342138
0.0102583859115839
0.0112213268876075
0.0120427031069993
0.0126445796340703
0.0129374619573354
0.0128291174769401
0.0122354552149772
0.0110947871580719
0.0093834940344095
0.0071286312304437
0.0044128764420747
0.0013688730541616
-0.0018335330532863
-0.0050008324906229
-0.0079306131228804
-0.0104331746697425
-0.0123592382296919
-0.0136215165257453
-0.0141987893730402
-0.0141263790428638
-0.0134848458692431
-0.0123892268165946
-0.0109751084819436
-0.009383431635797
-0.0077473362907767
-0.0061812130734324
-0.0047722086310386
-0.003573752939701
-0.002601416548714
-0.0018331543542444
-0.0012140872422605
-0.0006696259370073
-0.0001275644171983
0.0004648955073207
0.0011384801473468
0.001906185876578
0.0027666157111525
0.0037060414906591
0.0047013345174491
0.0057239676825702
0.006743935868144
0.0077322162687778
0.0086608920246362
0.0095011126250028
0.0102190105244517
0.010771419852972
0.0111040510237216
0.0111495163291692
0.0108249243348836
0.0100398939102888
0.0087204352021217
0.0068360958248376
0.004415787756443
0.0015515424311161
-0.0016060629859566
-0.0048632649704813
-0.0080077201128005
-0.010834127664566
-0.0131675172597169
-0.0148824676871299
-0.0159141980111598
-0.0162598546594381
-0.0159701537340879
-0.0151359075680375
-0.0138776674866676
-0.012337852269411
-0.0106687126681208
-0.0090155452489852
-0.0074976524338126
-0.0061942925676703
-0.0051426542922854
-0.0043411487713456
-0.0037526399828493
-0.0033136843703687
-0.0029489393346011
-0.0025831614620983
-0.0021501374430954
-0.0015992899425327
-0.0008979537524282
-3.3264048397541046e-05
0.0009819623082876
0.0021073133684694
0.0032846676185727
0.0044528334401547
0.0055573233403265
0.0065548010170459
0.0074131493456661
0.0081056281924247
0.0086002498865127
0.008849618025124
0.0087888780981302
0.0083447769284248
0.0074522560462355
0.0060749761760234
0.0042239418253302
0.0019637560471892
-0.000597558915615
-0.0033250004053115
-0.0060687623918056
-0.0086744371801614
-0.0109954485669732
-0.0129060940816998
-0.0143115501850843
-0.0151532441377639
-0.015413062646985
-0.0151164969429373
-0.014329444617033
-0.0131487771868705
-0.0116894040256738
-0.0100690834224224
-0.0083954744040966
-0.0067600319162011
-0.0052369562909007
-0.0038814982399344
-0.0027265043463557
-0.0017811055295169
-0.0010322886519134
-0.000446017133072
3.069033846259117e-05
0.0004619378596544
0.0009110320825129
0.0014303743373602
0.0020567309111356
0.0028102286159992
0.0036927068140357
0.0046880058944225
0.0057690669782459
0.0069044847041368
0.0080552976578474
0.0091676320880651
0.0101701170206069
0.0109756160527467
0.011486099101603
0.0116025209426879
0.011239068582654
0.0103389406576752
0.0088872145861387
0.0069170538336038
0.0045099309645593
0.0017918571829795
-0.0010755734983831
-0.0039101247675716
-0.0065265242010355
-0.0087566059082746
-0.0104727456346154
-0.011604344472289
-0.0121387867256999
-0.012112327851355
-0.0115989604964852
-0.0106993066146969
-0.0095283417031168
-0.0082030240446329
-0.0068312250077724
-0.0055014644749462
-0.0042760595679283
-0.0031898762099444
-0.0022526925895363
-0.0014530055923387
-0.0007613884517922
-0.0001363495539408
0.0004625868750736
0.0010625445283949
0.0016772600356489
0.0023153494112193
0.0029852492734789
0.0036942870356142
0.0044457041658461
0.0052364254370331
0.0060568200424313
0.0068911220878362
0.0077174841426312
0.0085089616477489
0.0092341266572475
0.0098555050790309
0.0103275626897811
0.0105936909094452
0.0105820931494236
0.0102081457152962
0.0093900132924318
0.008073634468019
0.0062544043175876
0.003986407071352
0.0013797010760754
-0.0014123411383479
-0.004213124513626
-0.0068448362872004
-0.0091472184285521
-0.0109902964904904
-0.0122821992263197
-0.0129752103239297
-0.0130688790231943
-0.0126079013571143
-0.0116774011403322
-0.010396372526884
-0.0089068142697215
-0.0073573999106884
-0.0058825458399951
-0.0045841760002076
-0.0035229534842073
-0.002716060495004
-0.0021388973109424
-0.0017337584868073
-0.0014238297007977
-0.0011266437359154
-0.0007657250389456
-0.0002791732549667
0.0003768745809793
0.0012235620524734
0.0022505221422761
0.0034137675538659
0.004647281486541
0.005881420802325
0.0070560686290264
0.0081251813098788
0.0090587139129638
0.0098424796015024
0.0104711400344967
0.0109356697648763
0.0112124299630522
0.0112593434751033
0.0110195474699139
0.0104329967871308
0.0094552431255579
0.008072187192738
0.0063027828000485
0.0041979402303695
0.0018422770081087
-0.0006455823313444
-0.0031195040792226
-0.0054214503616094
-0.0074026128277182
-0.0089421719312667
-0.0099598933011293
-0.0104216756299138
-0.0103382635861635
-0.0097607439383864
-0.008774185553193
-0.0074852965772151
-0.0060045327991247
-0.0044340495951473
-0.0028667608276009
-0.0013851667754352
-5.390867590904236e-05
0.0010870667174458
0.002025110181421
0.0027736057527363
0.0033669304102659
0.0038539050146937
0.0042902179993689
0.0047294339165091
0.0052158781327307
0.0057798461057245
0.0064339120872318
0.0071747177280485
0.0079895546659827
0.0088579729199409
0.0097477901726961
0.0106147387996315
0.0114084780216217
0.0120811983942985
0.0125922327861189
0.0129026304930448
0.0129643809050321
0.0127160530537366
0.0120907612144947
0.0110334381461143
0.0095180058851838
0.0075582861900329
0.0052139866165816
0.0025921759661287
-0.0001585252466611
-0.0028652162291109
-0.0053586596623063
-0.0074992049485445
-0.0091893030330538
-0.0103755258023738
-0.0110461469739675
-0.0112258894369006
-0.0109711783006787
-0.0103648686781525
-0.0095037790015339
-0.0084829470142722
-0.0073869689367711
-0.0062874592840671
-0.0052396412938833
-0.0042774574831128
-0.0034109619446098
-0.0026314435526728
-0.0019229231402277
-0.0012694142060354
-0.0006566736265085
-7.322887540794909e-05
0.0004911564756184
0.001048058271408
0.0016107256524264
0.0021944295149296
0.0028152111917734
0.0034839243162423
0.004200795199722
0.0049547720700502
0.0057258675806224
0.006489516235888
0.0072212326340377
0.007895728573203
0.0084767146036028
0.0089041143655776
0.0090916771441698
0.0089401360601186
0.0083582289516925
0.0072809318080544
0.0056833187118172
0.0035917600616812
0.0010866550728678
-0.0017063934355974
-0.0046307309530675
-0.0075143533758819
-0.0101875718683004
-0.012499239295721
-0.0143275437876582
-0.0155894961208105
-0.0162518043071031
-0.0163341760635375
-0.0159007087349891
-0.0150473322719335
-0.0138897411525249
-0.0125495791435241
-0.0111397812142968
-0.009752876125276
-0.0084548220038414
-0.0072848503477871
-0.0062565994448959
-0.0053580203093588
-0.0045561445876955
-0.0038055963814258
-0.0030523776076734
-0.0022400566376745
-0.0013266779715195
-0.0002987291663885
0.0008306045783683
0.002033231081441
0.0032759243622422
0.0045236465521156
0.0057415915653109
0.0069000646471977
0.00797925516963
0.0089691756293177
0.009863001294434
0.0106459502130746
0.0112856468185782
0.0117300730198621
0.0119130676612257
0.0117605375126004
0.0111943623051047
0.0101423766463994
0.0085603576153516
0.0064548980444669
0.0038926803972572
0.0009948663646355
-0.0020760064944624
-0.0051319156773388
-0.0079796900972723
-0.0104439165443182
-0.0123851578682661
-0.0137126231566071
-0.0143917007371783
-0.0144413625821471
-0.0139229539781808
-0.012929942458868
-0.0115818120539188
-0.0100155528634786
-0.0083719454705715
-0.0067812390625476
-0.0053500956855714
-0.0041496260091662
-0.0032083550468087
-0.0025134067982435
-0.0020169271156191
-0.0016462230123579
-0.0013195644132792
-0.0009615048766136
-0.0005098157562315
8.384045213460922e-05
0.0008530113846063
0.0018104219343513
0.0029393937438726
0.0041942372918128
0.0055135861039161
0.0068354420363903
0.0081042535603046
0.009273013100028
0.0103046800941228
0.0111703695729374
0.0118421483784914
0.012282034382224
0.0124322539195418
0.0122157894074916
0.0115524968132376
0.0103851640596985
0.0087020648643374
0.006544732954353
0.0040024197660386
0.0012020748108625
-0.0017029650043696
-0.0045458599925041
-0.0071598440408706
-0.0093926424160599
-0.0111219808459281
-0.0122691830620169
-0.0128052458167076
-0.0127492323517799
-0.0121648861095309
-0.0111554963514208
-0.0098515972495079
-0.0083903428167104
-0.0068935328163206
-0.0054564294405281
-0.0041492297314107
-0.0030200015753507
-0.002093322109431
-0.0013680509291589
-0.000816838350147
-0.0003889980725944
-1.781061291694641e-05
0.0003700223751366
0.0008438155055046
0.0014581205323338
0.0022456832230091
0.0032144016586244
0.004347292240709
0.0056082606315612
0.0069521041586995
0.0083299670368433
0.0096884276717901
0.0109690083190798
0.0121074169874191
0.0130309462547302
0.0136586409062147
0.0139036541804671
0.0136773809790611
0.0129005797207355
0.0115223275497555
0.0095400344580411
0.0070116613060235
0.0040551358833909
0.0008363868109881
-0.0024488377384841
-0.0055939326994121
-0.0084005743265151
-0.0107007734477519
-0.0123762972652912
-0.0133673762902617
-0.0136720417067408
-0.0133403893560171
-0.0124649610370397
-0.0111673409119248
-0.0095822922885417
-0.0078433854505419
-0.006073051597923
-0.0043743597343564
-0.00282240845263
-0.0014596646651625
-0.0002969037741422
0.0006844075396656
0.0015267664566636
0.0022849012166261
0.003014690708369
0.0037680300883948
0.0045887716114521
0.0055072754621505
0.0065368930809199
0.0076743643730878
0.0089019332081079
0.0101898070424795
0.0115003427490592
0.0127923917025327
0.0140216443687677
0.0151364393532276
0.0160740539431571
0.0167616754770278
0.0171178206801414
0.0170519426465034
0.0164712481200695
0.0152978617697954
0.0134883970022201
0.0110507486388087
0.0080538056790828
0.0046252142637968
0.0009392513311468
-0.0027995975688099
-0.0063753300346434
-0.0095814764499664
-0.0122422408312559
-0.0142287155613303
-0.0154657438397407
-0.0159320179373025
-0.015661783516407
-0.0147473625838756
-0.0133313192054629
-0.0115854628384113
-0.0096864625811576
-0.007795566227287
-0.0060418285429477
-0.0045095430687069
-0.0032349394168704
-0.002212245715782
-0.0014035261701792
-0.0007479994092136
-0.000169817591086
0.0004133624024689
0.0010800156742334
0.0018946215277537
0.0028966134414076
0.0040901754982769
0.005444161593914
0.0069035477936267
0.0084037845954298
0.009882254526019
0.0112847927957773
0.012566028162837
0.0136840958148241
0.0145907020196318
0.0152192097157239
0.0154796047136187
0.0152677139267325
0.0144850770011544
0.0130625599995255
0.0109820375218987
0.0082856966182589
0.0050691943615674
0.0014712791889905
-0.002332215430215
-0.0061371508054435
-0.009727681055665
-0.0128965554758906
-0.0154653564095497
-0.0173028893768787
-0.0183385387063026
-0.0185693968087434
-0.0180605016648769
-0.0169349685311317
-0.0153555404394865
-0.0135030718520283
-0.0115530472248792
-0.0096544362604618
-0.00791996717453
-0.0064251404255628
-0.0052058110013604
-0.0042553367093205
-0.0035285712219774
-0.0029531186446547
-0.0024435326922684
-0.001914502470754
-0.0012900180881842
-0.000509115634486
0.0004666558234021
0.0016442064661532
0.002997413277626
0.0044778897427022
0.0060310401022434
0.0076055033132433
0.0091515472158789
0.0106138456612825
0.0119225336238741
0.0129850348457694
0.013685068115592
0.0138923982158303
0.0134821282699704
0.0123605160042643
0.0104899648576974
0.0079033449292182
0.0047053578309714
0.00106488680467
-0.0028016092255711
-0.0066535864025354
-0.0102482680231332
-0.0133612044155597
-0.0158115196973085
-0.0174841228872537
-0.0183388106524944
-0.0184057503938674
-0.0177701860666275
-0.0165544599294662
-0.0149050597101449
-0.0129827912896871
-0.0109501630067825
-0.0089541291818022
-0.0071087470278143
-0.0054853232577443
-0.0041122594848275
-0.0029783004429191
-0.002035493729636
-0.0012088511139154
-0.0004174603964202
0.0004039591294713
0.0012966936919838
0.0022812052629888
0.0033622942864894
0.0045323856174945
0.0057743727229535
0.0070641012862324
0.0083718104287981
0.0096650095656514
0.0109111424535512
0.0120750982314348
0.0131141887977719
0.0139746582135558
0.0145899225026369
0.0148799642920494
0.0147516708821058
0.0141056459397077
0.0128550268709659
0.0109510123729705
0.0084051620215177
0.0053006666712462
0.0017881067469716
-0.0019322854932397
-0.0056344177573919
-0.0090896654874086
-0.0120875630527734
-0.0144544877111911
-0.01606972143054
-0.0168744698166847
-0.0168728288263082
-0.0161315947771072
-0.0147784827277064
-0.0129879536107182
-0.0109558030962944
-0.008873650804162
-0.0069060889072716
-0.0051729185506701
-0.0037413635291159
-0.0026265715714544
-0.0017982504796236
-0.0011928987223654
-0.0007277785916812
-0.0003129799733869
0.0001383533235639
0.0007011455018073
0.0014320237096399
0.0023635174147784
0.0034980264026671
0.0048084147274494
0.0062458040192723
0.0077471132390201
0.0092410203069448
0.0106545640155673
0.0119201019406318
0.0129785016179084
0.0137743335217237
0.0142464861273765
0.0143224019557237
0.0139208026230335
0.0129640214145183
0.0114003382623195
0.0092287193983793
0.0065085766837
0.0033503668382763
-9.756162762641908e-05
-0.0036576632410287
-0.0071334624662995
-0.0103259952738881
-0.0130544006824493
-0.0151749234646558
-0.0165941603481769
-0.0172757338732481
-0.0172403752803802
-0.0165610965341329
-0.0153542570769786
-0.0137644344940781
-0.0119441803544759
-0.0100338011980056
-0.0081486292183399
-0.0063785053789615
-0.0047929193824529
-0.0034407183993607
-0.0023421428631991
-0.0014818321214988
-0.0008104350999929
-0.0002522735740058
0.0002833314647432
0.0008857162320055
0.001625933102332
0.0025465828366577
0.0036601708270609
0.0049533378332853
0.0063955718651413
0.0079483753070235
0.0095660360530018
0.0111873038113117
0.0127289732918143
0.0140881901606917
0.015149469487369
0.0157923456281423
0.0159006081521511
0.0153746381402015
0.014146770350635
0.0121972262859344
0.0095671527087688
0.0063652056269347
0.0027631770353764
-0.001020289491862
-0.0047423020005226
-0.0081598740071058
-0.0110565358772873
-0.0132688507437706
-0.0147029692307114
-0.0153368534520268
-0.0152131672948598
-0.0144269354641437
-0.013109752908349
-0.0114142587408423
-0.0095001142472028
-0.0075196311809122
-0.0056042899377644
-0.0038541015237569
-0.0023307199589908
-0.0010567707940936
-1.927121775224805e-05
0.0008261483744718
0.0015448359772562
0.0022054850123822
0.0028662462718784
0.0035705373156815
0.004348243586719
0.0052168662659823
0.0061814240179955
0.0072360434569418
0.0083669368177652
0.0095530357211828
0.0107646938413381
0.0119646620005369
0.0131113994866609
0.0141583746299147
0.0150482971221208
0.0157078243792057
0.0160426162183284
0.0159353651106357
0.0152596626430749
0.0139102293178439
0.0118335159495472
0.0090490616858005
0.0056590638123452
0.0018414836376905
-0.0021726903505623
-0.0061287027783691
-0.009777208790183
-0.0129014272242784
-0.0153373135253787
-0.0169830024242401
-0.0178005769848823
-0.0178129076957702
-0.0170979611575603
-0.0157844610512256
-0.0140428002923727
-0.0120644066482782
-0.0100375358015298
-0.0081271957606077
-0.006457706913352
-0.0051004174165427
-0.0040738023817539
-0.0033536171540617
-0.0028833814430981
-0.002582665067166
-0.0023564579896628
-0.0021073117386549
-0.0017487108707427
-0.0012155375443398
-0.0004712112131528
0.0004882614593952
0.0016385784838348
0.0029384861700236
0.0043388097546994
0.0057869125157594
0.0072290562093257
0.0086103333160281
0.0098733082413673
0.0109558086842298
0.0117856450378894
0.0122760012745857
0.0123289003968238
0.0118473432958126
0.0107555082067847
0.0090242316946387
0.0066859922371804
0.0038305465131998
0.0005932403728365
-0.0028546350076794
-0.006316268350929
-0.009584467858076
-0.0124614182859659
-0.0147787816822528
-0.0164130423218011
-0.0172947626560926
-0.0174135025590658
-0.0168185755610466
-0.015613910742104
-0.0139456065371632
-0.0119810868054628
-0.0098829800263047
-0.0077889533713459
-0.0058065392076969
-0.0040169330313801
-0.0024742947425693
-0.0011991822393611
-0.0001773122348822
0.0006333716446533
0.0012946444330736
0.0018805339932441
0.0024677379988133
0.0031243134289979
0.0038998601958155
0.0048206783831119
0.0058891223743557
0.007086431607604
0.0083810547366738
0.0097364885732531
0.0111095933243632
0.0124454218894243
0.0136789754033088
0.0147388158366084
0.0155449295416474
0.0160065703094005
0.0160269699990749
0.0155118899419903
0.0143801234662532
0.0125798778608441
0.0101091228425502
0.0070289764553308
0.0034633881878107
-0.0004095025360584
-0.0043687340803444
-0.0081702349707484
-0.011578157544136
-0.0143967512995004
-0.0164909102022647
-0.0177926253527402
-0.0182979498058557
-0.0180615447461605
-0.0171889457851648
-0.0158229488879442
-0.0141261545941233
-0.012263435870409
-0.0103854490444064
-0.0086147272959351
-0.0070362486876547
-0.0056917266920208
-0.0045762122608721
-0.0036436449736356
-0.0028278056997805
-0.0020656553097069
-0.0013060520868748
-0.0005072075873613
0.0003658789210021
0.0013408339582383
0.0024343195836991
0.003647081553936
0.0049628093838691
0.0063530541956424
