bvp
0.0018780285026878
0.0024981629103422
0.002962881932035
0.0033915187232196
0.0038847236428409
0.0045171682722866
0.0053365500643849
0.0063625434413552
0.007580345030874
0.0089376401156187
0.010353235527873
0.011728866957128
0.0129532199352979
0.0138991409912705
0.0144233293831348
0.0143746994435787
0.0136119741946458
0.0120276641100645
0.0095711033791303
0.0062659461982548
0.0022224821150302
-0.0023598531261086
-0.0072076823562383
-0.0120079340413212
-0.0164514891803264
-0.0202711932361125
-0.0232662465423345
-0.025312976911664
-0.0263655241578817
-0.0264526959508657
-0.0256715677678585
-0.0241736639291048
-0.0221464447677135
-0.0197937246412038
-0.0173135511577129
-0.0148771787062287
-0.012614824809134
-0.0106060281395912
-0.0088738165795803
-0.0073911054059863
-0.0061016865074634
-0.0049413181841373
-0.0038467536214739
-0.0027576489374041
-0.001619285903871
-0.0003878539428114
0.0009633731096982
0.0024409657344222
0.0040329853072762
0.0057130684144794
0.0074435211718082
0.0091741727665066
0.0108374282717704
0.0123448362573981
0.0135878305882215
0.0144389476627111
0.0147557873278856
0.0143992826342582
0.0132682807743549
0.0113344397395849
0.00865956582129
0.0053915875032544
0.0017470302991569
-0.0020128730684518
-0.0056118462234735
-0.0087915807962417
-0.011338859796524
-0.0131015926599502
-0.0139976441860198
-0.014018933288753
-0.0132277943193912
-0.0117479376494884
-0.0097543857991695
-0.0074572004377841
-0.0050764642655849
-0.0028150212019681
-0.0008344314992427
0.0007618777453899
0.0019348477944731
0.0027053202502429
0.003142662346363
0.0033502238802611
0.0034484434872865
0.0035593942739069
0.0037978333421051
0.004267000593245
0.0050544762052595
0.0062250206246972
0.0078097879886627
0.0097970636561512
0.0121304504573345
0.0147138154134154
0.0174181088805198
0.020086258649826
0.0225369110703468
0.0245739761739969
0.0260084271430969
0.0266880467534065
0.0265233535319566
0.0255034491419792
0.0237033665180206
0.0212848857045173
0.018487099558115
0.0155973192304372
0.0129057047888636
0.0106647759675979
0.0090640876442193
0.0082160988822579
0.0081510487943887
0.0088183498010039
0.0100937159731984
0.0117940939962863
0.0137001806870102
0.0155840795487165
0.0172360613942146
0.0184838641434907
0.0192048884928226
0.0193376746028661
0.0188928805291652
0.017952537164092
0.0166528429836034
0.015162831172347
0.0136700924485921
0.0123703284189105
0.0114539032801985
0.0110890641808509
0.0114055331796407
0.0124826002866029
0.0143452547490596
0.0169673953205347
0.0202752128243446
0.0241459868848323
0.0284035392105579
0.0328157246112823
0.0370996333658695
0.0409323573112487
0.0439653024077415
0.045850496739149
0.0462835133075714
0.0450523532927036
0.0420767143368721
0.0374280400574207
0.0313271842896938
0.0241186469793319
0.0162248723208904
0.0080926418304443
0.0001439340412616
-0.007262859493494
-0.0138601139187812
-0.0194851979613304
-0.0240810066461563
-0.0276878327131271
-0.030429795384407
-0.0324906110763549
-0.0340806022286415
-0.0354061126708984
-0.0366455689072608
-0.037930317223072
-0.0393318012356758
-0.0408596321940422
-0.042471095919609
-0.0440870374441146
-0.0456105694174766
-0.0469449311494827
-0.0480045452713966
-0.0487181916832923
-0.0490315109491348
-0.048917319625616
-0.0483908839523792
-0.0475160926580429
-0.0463993586599826
-0.0451827347278595
-0.0440409332513809
-0.0431759804487228
-0.0428038425743579
-0.0431307777762413
-0.044322445988655
-0.0464734882116317
-0.0495832413434982
-0.0535409599542617
-0.0581251010298728
-0.063018225133419
-0.0678352192044258
-0.0721649676561355
-0.0756222158670425
-0.0778931379318237
-0.0787615478038787
-0.0781189352273941
-0.0759643986821174
-0.0723975375294685
-0.0676052868366241
-0.0618405416607856
-0.0553947947919368
-0.0485710799694061
-0.0416585430502891
-0.0349093563854694
-0.0285216215997934
-0.0226277988404035
-0.0172879472374916
-0.0124964946880936
-0.008204597979784
-0.0043436167761683
-0.0008399141952395
0.0023772995918989
0.005371194332838
0.0081934323534369
0.0108821643516421
0.0134629756212234
0.01595189422369
0.0183564685285091
0.0206700433045625
0.0228609256446361
0.0248625073581933
0.0265714544802904
0.0278604999184608
0.0286007486283779
0.0286820773035287
0.028033934533596
0.0266510024666786
0.0246111135929822
0.0220747552812099
0.0192695409059524
0.0164635255932807
0.0139329358935356
0.0119316987693309
0.0106638558208942
0.0102594159543514
0.0107591412961483
0.012113057076931
0.0141936391592025
0.0168194882571697
0.0197776593267917
0.0228392723947763
0.0257778894156217
0.0283942464739084
0.0305372718721628
0.0321157276630401
0.0331035256385803
0.0335396043956279
0.0335198938846588
0.033181469887495
0.0326829217374324
0.0321838296949863
0.0318245291709899
0.0317091606557369
0.0318973213434219
0.0324075371026992
0.0332231596112251
0.0342880189418792
0.0354991815984249
0.0367103777825832
0.0377433374524116
0.0384013727307319
0.0384881123900413
0.0378326624631881
0.0363162755966186
0.0338927283883094
0.0305992439389228
0.0265599936246871
0.021978722885251
0.0171169340610504
0.0122666731476783
0.0077270194888114
0.0037789642810821
0.0006548538804054
-0.0014857538044452
-0.0025657042860984
-0.002590462565422
-0.001641146838665
0.0001410655677318
0.0025739967823028
0.005450963973999
0.008557092398405
0.0116881038993597
0.0146679356694221
0.0173610728234052
0.0196774154901504
0.0215715151280164
0.0230393856763839
0.0241104699671268
0.0248335041105747
0.0252634808421134
0.0254565179347991
0.0254694782197475
0.0253586489707231
0.0251783281564712
0.0249785855412483
0.0247979182749986
0.0246512293815612
0.0245173703879117
0.0243321135640144
0.0239906683564186
0.0233593024313449
0.0222974084317684
0.0206904727965593
0.0184819940477609
0.0156885180622339
0.0123974718153476
0.0087576657533645
0.0049662226811051
0.0012499364092946
-0.002159115858376
-0.0050498219206929
-0.0072555700317025
-0.0086729545146226
-0.0092735858634114
-0.0091072991490364
-0.0082964971661567
-0.0070193256251513
-0.0054818927310407
-0.0038871928118169
-0.0024120842572301
-0.0011965763987973
-0.0003355260996613
0.0001326932688243
0.0002311095595359
3.7254998460412025e-05
-0.0003327559679746
-0.0007456610910594
-0.001073149498552
-0.0012108534574508
-0.0010909861885011
-0.0006856299005448
-3.2084062695503235e-06
0.0009175604209303
0.0020145773887634
0.0032043503597378
0.0043727150186896
0.0053638881072402
0.0059852078557014
0.0060308221727609
0.0053173638880252
0.0037223137915134
0.0012144185602664
-0.0021317210048437
-0.0061411624774336
-0.010561847127974
-0.015098855830729
-0.0194531232118606
-0.0233546495437622
-0.0265845078974962
-0.0289887450635433
-0.0304849315434694
-0.0310634765774011
-0.0307889524847269
-0.0297956876456737
-0.0282696168869733
-0.0264220368117094
-0.0244634207338094
-0.0225798413157463
-0.0209157709032297
-0.0195664912462234
-0.0185779742896556
-0.017951738089323
-0.0176544673740863
-0.0176281481981277
-0.0177965722978115
-0.0180718190968036
-0.0183643326163291
-0.0185985993593931
-0.018733175471425
-0.0187707915902137
-0.0187477469444274
-0.018714414909482
-0.0187214855104684
-0.0188116002827882
-0.0190139655023813
-0.0193432196974754
-0.0198011882603168
-0.0203783959150314
-0.0210522171109914
-0.0217809379100799
-0.0224987231194973
-0.0231155939400196
-0.0235213711857795
-0.0235979240387678
-0.0232453849166631
-0.0224104598164558
-0.0210992656648159
-0.0193741470575332
-0.0173444859683513
-0.0151541233062744
-0.0129604320973157
-0.0109076853841543
-0.0091048739850521
-0.0076106265187263
-0.006423991639167
-0.0054854378104209
-0.0046910182572901
-0.0039149443618953
-0.0030345143750309
-0.0019549964927136
-0.0006289002485573
0.0009366967715322
0.002682817634195
0.004509680904448
0.0062975105829536
0.0079293381422758
0.009306525811553
0.0103585552424192
0.0110477451235055
0.0113627510145306
0.0113043114542961
0.010875130072236
0.0100779365748167
0.0089219138026237
0.007436656858772
0.0056827319785952
0.0037509002722799
0.0017566494643688
-0.000165588222444
-0.0018719835206866
-0.0032224841415882
-0.0040926514193415
-0.0043828375637531
-0.0040286360308527
-0.0030118646100163
-0.0013666562736034
0.000822409056127
0.0034304289147257
0.0063074128702282
0.009297426789999
0.012260241433978
0.01508354768157
0.0176803693175315
0.019984059035778
0.0219481140375137
0.02354615367949
0.0247702356427907
0.0256297867745161
0.0261507853865623
0.0263732634484767
0.0263464711606502
0.0261215679347515
0.0257449150085449
0.0252570938318967
0.0246945451945066
0.0240867622196674
0.0234487503767013
0.0227688401937484
0.0219938047230243
0.0210262164473533
0.0197454094886779
0.0180402807891368
0.0158364828675985
0.01311413384974
0.00991752743721
0.0063557904213666
0.0025939755141735
-0.0011651045642793
-0.0047047552652657
-0.0078186867758631
-0.0103326719254255
-0.0121188275516033
-0.0131012899801135
-0.0132617466151714
-0.0126488637179136
-0.0113805746659636
-0.0096281673759222
-0.0075867623090744
-0.0054457378573715
-0.0033664226066321
-0.001467206981033
0.0001840604236349
0.001570904860273
0.0027222549542784
0.0036992593668401
0.0045774243772029
0.0054282280616462
0.0063068019226193
0.0072491206228733
0.0082698790356516
0.0093558756634593
0.0104641616344451
0.0115260342136025
0.0124484617263078
0.0131147252395749
0.0133899804204702
0.0131341246888041
0.0122226383537054
0.0105699356645345
0.0081486292183399
0.0050020953640341
0.0012487350031733
-0.002923157531768
-0.0072712050750851
-0.0115231378003954
-0.0154037214815616
-0.0186644103378057
-0.0211145728826522
-0.0226435624063015
-0.023226574063301
-0.0229182913899421
-0.0218399874866008
-0.0201624669134616
-0.0180843342095613
-0.0158066190779209
-0.0135104656219482
-0.011343939229846
-0.0094160623848438
-0.0077924854122102
-0.0064916587434709
-0.005486596841365
-0.0047176880761981
-0.0041136159561574
-0.0036080672871321
-0.0031452334951609
-0.0026792751159518
-0.0021730179432779
-0.0015975777059793
-0.0009359754621982
-0.0001913853920996
0.0006037862040102
0.0013803387992084
0.0020292229019105
0.0024089915677905
0.0023652724921703
0.0017597246915102
0.00050407089293
-0.001415223814547
-0.0039346441626548
-0.0069236727431416
-0.0101941404864192
-0.013514332473278
-0.0166315250098705
-0.0192981585860252
-0.0212990902364254
-0.0224754996597766
-0.0227410607039928
-0.0220899172127246
-0.0205947048962116
-0.0183944981545209
-0.0156762730330228
-0.0126498695462942
-0.0095185525715351
-0.006457672920078
-0.0036085105966776
-0.0010783970355987
0.0010621105320751
0.0027841920964419
0.004102970007807
0.0050741182640194
0.0057839090004563
0.0063333017751574
0.0068207648582756
0.0073285237886011
0.0079147070646286
0.0086120832711458
0.0094278948381543
0.0103390803560614
0.0112847033888101
0.0121616413816809
0.0128289554268121
0.0131244473159313
0.0128933684900403
0.0120203793048858
0.0104547524824738
0.0082268016412854
0.005452043376863
0.0023197203408926
-0.0009297439828515
-0.0040335860103368
-0.0067400275729596
-0.0088407304137945
-0.0101923895999789
-0.0107228467240929
-0.0104287397116422
-0.0093734506517648
-0.007682898081839
-0.0055313343182206
-0.0031184619292616
-0.0006447955965995
0.0017107343301177
0.0038074534386396
0.0055512837134301
0.0068978676572442
0.0078531485050916
0.0084666917100548
0.0088165057823061
0.0089919678866863
0.0090796165168285
0.0091545758768916
0.0092786280438303
0.0094973566010594
0.0098315849900245
0.0102720903232693
0.010782416909933
0.0113035272806882
0.0117554273456335
0.012037088163197
0.0120315747335553
0.0116213681176304
0.010711264796555
0.0092523945495486
0.00725959520787
0.0048156254924833
0.0020635314285755
-0.000805630814284
-0.0035694758407771
-0.0060015697963535
-0.0079057570546865
-0.0091435499489307
-0.009648049250245
-0.0094264559447765
-0.0085505368188023
-0.0071380343288183
-0.0053354823030531
-0.0033055739477276
-0.0012135016731917
0.0007892120629549
0.0025813891552388
0.0040852818638086
0.00526885362342
0.0061390558257699
0.0067355767823755
0.0071227811276912
0.0073723751120269
0.0075464230030775
0.0076935952529311
0.0078519452363252
0.0080484151840209
0.0082979695871472
0.0086050294339656
0.0089625529944896
0.0093462634831666
0.0097076073288917
0.0099688256159424
0.0100237736478447
0.0097492020577192
0.0090272258967161
0.0077745332382619
0.0059659797698259
0.0036413841880857
0.0009004726889543
-0.0021049284841865
-0.0051819663494825
-0.0081141758710145
-0.0106845451518893
-0.0127009078860282
-0.0140178585425019
-0.0145511152222752
-0.0142866373062133
-0.0132842501625418
-0.0116702858358621
-0.0096198059618473
-0.0073323585093021
-0.0050030797719955
-0.0027982387691736
-0.0008458793163299
0.0007633924251422
0.0019775936380028
0.0027873865328729
0.0032248646020889
0.0033544804900884
0.0032605431042611
0.0030342629179358
0.0027613574638962
0.002512254519388
0.0023365323431789
0.0022617902141064
0.0022952556610107
0.0024252184666693
0.002618848811835
0.0028131483122706
0.0029060542583465
0.0027633532881736
0.0022434466518461
0.0012287624413147
-0.000344555824995
-0.0024657733738422
-0.0050428649410605
-0.0079094860702753
-0.0108444225043058
-0.01360101159662
-0.0159405842423439
-0.0176637880504131
-0.0186323206871747
-0.0187761969864368
-0.0180905535817146
-0.0166312903165817
-0.0145152835175395
-0.011918437667191
-0.0090577835217118
-0.0061569660902023
-0.0034110872074961
-0.0009642136283218
0.0010989266447722
0.0027510817162692
0.0040155481547117
0.0049562123604118
0.0056621795520186
0.0062288176268339
0.0067432592622935
0.00727767823264
0.0078870793804526
0.0086078802123665
0.0094539318233728
0.0104103833436965
0.0114320404827594
0.012447066605091
0.0133587438613176
0.0140466094017028
0.0143751911818981
0.0142117431387305
0.0134487804025411
0.0120265102013945
0.0099507421255111
0.0073013924993574
0.0042274696752429
0.000932034687139
-0.0023469340521842
-0.0053625311702489
-0.0078934291377663
-0.0097744464874267
-0.010909873060882
-0.0112731996923685
-0.0109033407643437
-0.0098971854895353
-0.0083954790607094
-0.0065655992366373
-0.0045835366472601
-0.0026137111708521
-0.000791790545918
0.0007844584761187
0.0020611595828086
0.0030312659218907
0.0037284749560058
0.0042120013386011
0.0045469193719327
0.0047895768657326
0.0049853310920298
0.0051756333559751
0.0054048751480877
0.0057182232849299
0.0061520365998148
0.0067257233895361
0.0074379215948283
0.0082615772262215
0.0091353245079517
0.0099575510248541
0.0105899702757596
0.0108742751181125
0.0106608774513006
0.0098365861922502
0.0083397356793284
0.0061685321852564
0.0033883466385304
0.000133516266942
-0.0034000785090029
-0.006972124800086
-0.0103232376277446
-0.0132062751799821
-0.0154176969081163
-0.016820615157485
-0.0173581652343273
-0.0170578621327877
-0.0160227715969085
-0.0144104352220892
-0.0124087054282426
-0.0102149192243814
-0.0080190347507596
-0.0059887957759201
-0.004254849627614
-0.0028967354446649
-0.0019337943522259
-0.0013263422297313
-0.0009882022859528
-0.0008041820256039
-0.0006483834004029
-0.0004038154147565
1.973554026335477e-05
0.0006746872095391
0.0015729465521872
0.0026901906821876
0.0039753979071974
0.0053591392934322
0.0067524909973144
0.008041413500905
0.009090032428503
0.0097542814910411
0.00989874266088
0.0094154933467507
0.0082448869943618
0.006393346004188
0.0039405659772455
0.0010315540712326
-0.0021404405124485
-0.0053518670611083
-0.0083679836243391
-0.0109630916267633
-0.0129395779222249
-0.0141506101936101
-0.0145260319113731
-0.0140850599855184
-0.0129263829439878
-0.0112051665782928
-0.0091079697012901
-0.0068292547948658
-0.0045512993820011
-0.00242888671346
-0.0005776605685241
0.0009329154272563
0.0020799690391868
0.0028837600257247
0.0034008175134658
0.0037120289634913
0.0039093568921089
0.0040823523886501
0.004302829504013
0.004613344091922
0.0050269020721316
0.005536216776818
0.0061231427825987
0.0067630945704877
0.0074255922809243
0.0080697825178503
0.0086359558627009
0.0090407319366931
0.0091806864365935
0.0089437933638691
0.0082275001332163
0.0069622541777789
0.0051354262977838
0.002804244402796
9.055319242179394e-05
-0.0028364844620227
-0.0057807331904768
-0.0085387211292982
-0.0109179895371198
-0.012755749747157
-0.0139360167086124
-0.01440005376935
-0.0141500011086463
-0.0132470484822988
-0.01180234644562
-0.0099628511816263
-0.0078956456854939
-0.0057677701115608
-0.0037227300927042
-0.0018658945336937
-0.0002637444995343
0.0010518301278352
0.0020813387818634
0.0028554240707308
0.0034267564769834
0.0038583376444876
0.0042160945013165
0.0045648897066712
0.0049623693339526
0.0054515665397048
0.0060558854602277
0.0067778043448925
0.0076006259769201
0.0084925442934036
0.0094108562916517
0.010299258865416
0.0110775725916028
0.0116352969780564
0.0118394214659929
0.0115572586655616
0.0106855481863021
0.0091762458905577
0.0070520513691008
0.0044061131775379
0.0013902734499424
-0.0017990479245781
-0.0049379151314496
-0.0077981306239962
-0.0101731130853295
-0.0118989590555429
-0.012866755016148
-0.01303197350353
-0.0124245937913656
-0.0111495349556207
-0.0093689728528261
-0.0072753392159938
-0.0050665340386331
-0.0029231952503323
-0.0009883042657747
0.0006438983837142
0.0019283725414425
0.0028647766448557
0.0034908568486571
0.0038723642937839
0.004090859554708
0.0042340382933616
0.0043880124576389
0.004626921378076
0.0050010969862341
0.0055294251069426
0.0061978502199053
0.0069642928428947
0.0077697848901152
0.0085501736029982
0.0092431511729955
0.0097889574244618
0.0101247550919651
0.0101790688931941
0.0098732346668839
0.0091304462403059
0.0078911473974585
0.0061329640448093
0.0038895842153578
0.0012573702260851
-0.0016161154489964
-0.0045524919405579
-0.0073619447648525
-0.009859949350357
-0.011881859973073
-0.0132968798279762
-0.0140223475173115
-0.0140358824282884
-0.0133794685825705
-0.012151482515037
-0.0104910004884004
-0.0085602337494492
-0.006525220349431
-0.0045343320816755
-0.002699295990169
-0.001088120159693
0.0002673754934221
0.0013610306195914
0.0022069285623729
0.0028353752568364
0.0032890178263187
0.0036198808811604
0.0038842626381665
0.0041351420804858
0.0044157905504107
0.0047561693936586
0.0051700649783015
0.0056540933437645
0.0061917910352349
0.0067589706741273
0.0073248166590929
0.007844990119338
0.008248658850789
0.0084348358213901
0.0082855429500341
0.0076859705150127
0.006546804215759
0.0048267561942338
0.0025469348765909
-0.0002055545337498
-0.0032817274332046
-0.0064837262034416
-0.0095866303890943
-0.0123635251075029
-0.0146103771403431
-0.0161694586277008
-0.0169465094804763
-0.0169182941317558
-0.0161339323967695
-0.014710976742208
-0.0128200538456439
-0.0106579400599002
-0.008419289253652
-0.0062742149457335
-0.004351139999926
-0.0027254875749349
-0.001418751431629
-0.000407254876336
0.0003653267631307
0.0009748077718541
0.0015033711679279
0.0020283397752791
0.0026163454167544
0.0033194527495652
0.0041664480231702
0.0051550259813666
0.0062527582049369
0.0074049872346222
0.0085457433015108
0.0096077257767319
0.010527241975069
0.0112424744293093
0.0116879492998123
0.0117915607988834
0.0114777367562055
0.0106770507991313
0.0093421582132577
0.0074665136635303
0.0050988011062145
0.002344666281715
-0.000647445442155
-0.0037060491740703
-0.006650997325778
-0.0093049732968211
-0.0115073388442397
-0.0131284035742282
-0.0140814324840903
-0.0143324816599488
-0.0139066204428672
-0.0128861535340547
-0.011397186666727
-0.0095893889665603
-0.007617664989084
-0.005624882876873
-0.0037242088001221
-0.0019910857081413
-0.0004686866886913
0.0008246946381404
0.001892514526844
0.0027581823524087
0.0034626189153641
0.004058385733515
0.0045994548127055
0.0051313564181327
0.0056865457445383
0.006285679526627
0.0069407257251441
0.0076551232486963
0.0084227165207266
0.0092275701463222
0.0100399237126111
0.0108059700578451
0.0114391790702939
0.0118230236694216
0.0118254721164703
0.0113199157640337
0.0102093610912561
0.0084506263956427
0.0060724271461367
0.0031803573947399
-5.297129973769188e-05
-0.0034088583197444
-0.0066495221108198
-0.0095446873456239
-0.0118949115276336
-0.0135507127270102
-0.0144222769886255
-0.0144841084256768
-0.0137828961014747
-0.0124372625723481
-0.0106179285794496
-0.0085182646289467
-0.0063290772959589
-0.0042209126986563
-0.0023298058658838
-0.000745907658711
0.0004889729898422
0.0013762229355052
0.0019556274637579
0.0022992375306785
0.0024982842151075
0.0026482138782739
0.0028377813287079
0.0031373759265989
0.003585415193811
0.0041831582784652
0.0049027721397578
0.0057012951001524
0.0065327803604304
0.0073551065288484
0.0081294598057866
0.0088134203106164
0.0093507915735244
0.0096630984917283
0.0096504958346486
0.0092052407562732
0.0082326661795377
0.0066745388321578
0.0045318035408854
0.0018778087105602
-0.0011492458870634
-0.0043695666827261
-0.007583730854094
-0.0105889094993472
-0.0131953237578272
-0.0152437826618552
-0.0166200306266546
-0.0172633398324251
-0.0171692334115505
-0.0163864325731992
-0.0150100020691752
-0.0131727270781993
-0.0110327806323766
-0.0087545132264494
-0.0064866747707128
-0.0043501453474164
-0.0024368269369006
-0.0008064124267548
0.000521712237969
0.0015682457014918
0.002382161328569
0.0030272034928202
0.0035705098416656
0.0040713576599955
0.0045739593915641
0.0051068519242107
0.0056841019541025
0.0063080126419663
0.0069747199304401
0.0076779332011938
0.0084081403911113
0.0091443387791514
0.0098363729193806
0.0103915184736251
0.0106814699247479
0.0105664767324924
0.0099231675267219
0.0086689833551645
0.0067813876084983
0.0043084053322672
0.0013671307824552
-0.0018673103768378
-0.0051787528209388
-0.0083336727693676
-0.011107699945569
-0.013304996304214
-0.0147714680060744
-0.0154138104990124
-0.0152197424322366
-0.0142595116049051
-0.01266775932163
-0.0106200687587261
-0.0083083966746926
-0.005916507449001
-0.0036018188111484
-0.001485779415816
0.0003501125611364
0.0018652386497706
0.0030587441287934
0.0039655761793255
0.0046489117667078
0.0051915245130658
0.0056886300444602
0.006235480774194
0.0069048292934894
0.0077291391789913
0.0087014697492122
0.0097877476364374
0.0109387198463082
0.0120982620865106
0.0132104698568582
0.0142263248562812
0.0151038747280836
0.0157980415970087
0.0162460263818502
0.0163595620542764
0.0160316452383995
0.0151576101779937
0.0136649515479803
0.0115377195179462
0.0088240411132574
0.0056333257816731
0.0021297098137438
-0.0014810769353061
-0.0049709118902683
-0.0081131169572472
-0.0107091246172785
-0.0126105044037103
-0.0137312700971961
-0.0140515612438321
-0.0136140920221805
-0.0125153642147779
-0.0108937174081802
-0.0089122680947184
-0.0067373584024608
-0.0045235133729875
-0.0024101187009364
-0.0005170051008462
0.0010677735554054
0.0022982698865234
0.0031733128707855
0.0037333527579903
0.0040519679896533
0.0042219092138111
0.0043380418792366
0.0044821887277066
0.0047138165682554
0.005066021811217
0.005544873420149
0.0061345673166215
0.0068095745518803
0.0075422567315399
0.0082960715517401
0.0090141659602522
0.0096145626157522
0.009990950115025
0.0100198537111282
0.0095772668719291
0.0085608176887035
0.0069109876640141
0.0046277879737317
0.0017797322943806
-0.0014982144348323
-0.0050164023414254
-0.0085483081638813
-0.011852603405714
-0.0146977342665195
-0.0168901104480028
-0.0183025598526
-0.0188892800360918
-0.0186813417822122
-0.0177710819989442
-0.0162952467799186
-0.0144197111949324
-0.012322056107223
-0.0101710148155689
-0.008108640089631
-0.0062407441437244
-0.004633798263967
-0.0033142119646072
-0.0022699227556586
-0.0014540064148604
-0.0007916348986327
-0.0001962617971003
0.0004071296425536
0.001065862015821
0.001798613811843
0.0026025893166661
0.0034609069116413
0.0043506217189133
0.0052502611652016
0.0061422321014106
0.0070107290521264
0.0078381253406405
0.0085985232144594
0.0092473737895488
0.0097116734832525
0.0098889041692018
0.0096585461869835
0.0089014740660786
0.0075236335396766
0.0054827779531478
0.0028103897348046
-0.0003796615637838
-0.0038989069871604
-0.0075065526179969
-0.010937787592411
-0.0139314569532871
-0.0162566490471363
-0.0177382845431566
-0.0182783678174018
-0.0178666710853576
-0.016578871756792
-0.0145643167197704
-0.0120244873687624
-0.0091879209503531
-0.0062888259999454
-0.0035466901026666
-0.001142531633377
0.0008024058188311
0.0022363495081663
0.0031732234638184
0.0036808513104915
0.0038660063873976
0.0038568887393921
0.0037842174060642
0.0037640472874045
0.0038844947703182
0.0041985539719462
0.0047249849885702
0.0054559153504669
0.0063636293634772
0.0074017094448208
0.0085065886378288
0.0096023874357342
0.0106036085635423
0.011413749307394
0.0119224674999713
0.0120074190199375
0.0115471528843045
0.0104419952258467
0.0086365025490522
0.0061402190476655
0.0030381344258785
-0.0005157388513907
-0.0043140742927789
-0.0081128655001521
-0.0116533935070037
-0.0146925011649727
-0.0170309152454137
-0.0185326673090457
-0.0191378593444824
-0.0188670307397842
-0.0178133640438318
-0.0161258652806282
-0.0139907617121934
-0.0116116683930158
-0.0091857416555285
-0.0068815685808658
-0.0048250597901642
-0.0030929008498787
-0.0017108647152781
-0.0006548995152115
0.0001405789516866
0.0007629124447703
0.0013001528568565
0.001830143854022
0.0024163085035979
0.0031045929063111
0.0039226599037647
0.004880154505372
0.0059691593050956
0.0071686352603137
0.0084499139338731
0.009776547551155
0.0110993944108486
0.0123498458415269
0.0134345218539237
0.0142361484467983
0.0146207576617598
0.01445147767663
0.0136112086474895
0.0120288962498307
0.0097015034407377
0.0067076422274112
0.0032074651680886
-0.0005728560499846
-0.0043665571138262
-0.007895927876234
-0.0109019493684172
-0.0131714325398206
-0.0145587669685482
-0.0149975903332233
-0.0145022626966238
-0.0131622236222028
-0.0111313369125127
-0.0086128637194633
-0.0058372104540467
-0.0030325977131724
-0.0003970917314291
0.0019206413999199
0.0038321008905768
0.0053126327693462
0.0063958652317523
0.0071602188982069
0.0077118924818933
0.0081651275977492
0.0086232461035251
0.0091666774824261
0.0098482863977551
0.0106934392824769
0.0117011601105332
0.0128436479717493
0.0140687962993979
0.0153086194768548
0.0164886992424726
0.0175321865826845
0.0183555483818054
0.0188625995069742
0.0189438220113515
0.0184822902083396
0.0173699539154768
0.0155327208340168
0.012953502126038
0.009686866775155
0.0058649312704801
0.0016916466411203
-0.0025780797004699
-0.006669130641967
-0.0103162573650479
-0.0132901733741164
-0.0154202189296484
-0.0166102331131696
-0.0168453194200992
-0.0161897763609886
-0.0147758014500141
-0.0127850221469998
-0.0104265557602047
-0.0079134963452816
-0.0054399617947638
-0.0031624769326299
-0.0011882721446454
0.0004295998078305
0.0016895013395696
0.0026307592634111
0.0033200599718838
0.0038381228223443
0.0042671747505664
0.0046815304085612
0.0051429886370897
0.0056990217417478
0.006379909813404
0.0071943514049053
0.0081288022920489
0.0091512966901063
0.0102141527459025
0.0112541038542985
0.0121917482465505
0.0129313357174396
0.0133591908961534
0.0133421197533607
0.0127367256209254
0.0114139430224895
0.0092897685244679
0.0063537936657667
0.0026877364143729
-0.0015349611639976
-0.0060680918395519
-0.0106207523494958
-0.0148877184838056
-0.0185816064476966
-0.0214659869670867
-0.0233816355466842
-0.0242571868002414
-0.0241061821579933
-0.0230204313993453
-0.0211634393781423
-0.0187550075352191
-0.0160401538014411
-0.013253167271614
-0.0105922762304544
-0.0082058440893888
-0.0061842268332839
-0.0045583695173263
-0.0033069134224206
-0.0023669840302318
-0.0016450029797852
-0.0010303924791514
-0.0004141279496252
0.0002948422916233
0.0011626910418272
0.0022272644564509
0.0034908452071249
0.0049177864566445
0.0064456602558493
0.0080016776919364
0.0095127876847982
0.0109072439372539
0.0121097592636942
0.0130331926047801
0.0135727822780609
0.0136089604347944
0.0130212465301156
0.0117114074528217
0.0096285548061132
0.0067894514650106
0.0032902751117944
-0.0006972188130021
-0.0049468795768916
-0.00920513831079
-0.0132133867591619
-0.0167276579886674
-0.0195397138595581
-0.0214959233999252
-0.0225104205310344
-0.022572498768568
-0.0217460449784994
-0.0201584734022617
-0.0179817248135805
-0.0154119543731212
-0.0126513196155428
-0.0098890606313943
-0.0072787227109074
-0.0049199629575014
-0.0028585463296622
-0.0010992618044838
0.0003836309770122
0.0016404294874519
0.0027394113130867
0.0037577827461063
0.0047702118754386
0.0058374688960611
0.0069977259263396
0.0082614887505769
0.0096131665632128
0.0110201863572001
0.0124440221115946
0.0138475121930241
0.0151968849822878
0.0164561234414577
0.0175714902579784
0.0184541754424572
0.018976492807269
0.018987126648426
0.018336659297347
0.0169052593410015
0.0146294273436069
0.0115229412913322
0.0076883318834006
0.0033144978806376
-0.0013432726263999
-0.005993400234729
-0.0103378919884562
-0.0140997814014554
-0.017047569155693
-0.0190168935805559
-0.0199301075190305
-0.0198068358004093
-0.0187575817108154
-0.0169625282287597
-0.0146427173167467
-0.0120293488726019
-0.0093366047367453
-0.0067431554198265
-0.0043817525729537
-0.0023341684136539
-0.0006326461443677
0.0007342407479882
0.001814478309825
0.0026825633831322
0.00342752574943
0.0041405316442251
0.0049002757295966
0.0057602250017225
0.0067452262155711
0.0078561250120401
0.0090742856264114
0.0103631895035505
0.0116721261292696
0.0129443565383553
0.0141250248998403
0.0151638397946953
0.0160098448395729
0.0165989212691783
0.0168428439646959
0.0166312828660011
0.0158488973975181
0.0143994726240634
0.0122282188385725
0.009338341653347
0.0058010723441839
0.0017584301531314
-0.0025842394679784
-0.0069776950404047
-0.0111554590985178
-0.014861105941236
-0.0178721453994512
-0.0200204141438007
-0.0212086848914623
-0.0214175600558519
-0.0207012891769409
-0.0191783457994461
-0.0170172415673732
-0.0144173484295606
-0.0115907657891511
-0.0087445164099335
-0.0060572177171707
-0.0036571484524756
-0.0016126525588333
6.638141348958015e-05
0.0014203717000782
0.0025254746433347
0.0034754110965877
0.0043645077385008
0.0052726953290402
0.0062533034943044
0.0073290416039526
0.0084974961355328
0.0097392424941062
0.011021708138287
0.0122983660548925
0.0135101787745952
0.0145953856408596
0.0155014628544449
0.0161877796053886
0.0166166499257087
0.0167399849742651
0.0164908561855554
0.0157851427793502
0.014533556997776
0.0126616032794117
0.010131306014955
0.0069574024528265
0.0032175378873944
-0.0009429454803466
-0.0053202733397483
-0.0096779083833098
-0.0137736769393086
-0.0173790082335472
-0.02029699832201
-0.0223826505243778
-0.0235581118613481
-0.0238172765821218
-0.0232214853167533
-0.0218907482922077
-0.0199911165982484
-0.0177156180143356
-0.0152617804706096
-0.0128125324845314
-0.010518928989768
-0.008481946773827
-0.0067438464611768
-0.005297252908349
-0.0041013266891241
-0.0030952773522585
-0.0022103125229477
-0.001378271728754
-0.0005368199199438
0.0003647194243967
0.0013615591451525
0.0024739229120314
0.0037055280990898
0.0050382567569613
0.0064313760958611
0.007829550653696
0.0091739390045404
0.0104085486382246
0.0114775225520133
0.0123142600059509
0.0128292115405201
0.0129077788442373
0.0124243283644318
0.0112666971981525
0.0093626845628023
0.0067025949247181
0.0033530495129525
-0.000542614609003
-0.0047777821309864
-0.0091027580201625
-0.0132485385984182
-0.016956765204668
-0.0200071241706609
-0.0222314037382602
-0.023523224517703
-0.0238517597317695
-0.0232674945145845
-0.0218922290951013
-0.0199011489748954
-0.0175014752894639
-0.0149057619273662
-0.0123060178011655
-0.0098573546856641
-0.0076680746860802
-0.0057931691408157
-0.0042360317893326
-0.0029578562825918
-0.0018896444234997
-0.0009444113820791
-2.855574712157249e-05
0.0009440118446946
0.0020334343425929
0.0032625617459416
0.0046221110969781
0.0060846549458801
0.0076143597252666
0.0091692227870225
0.0107018668204545
0.0121644064784049
0.0135144935920834
0.014715239405632
0.0157271325588226
0.0164964534342288
0.0169476550072431
0.0169863104820251
0.0165123157203197
0.0154367918148636
0.013699478469789
0.01128800958395
0.0082556642591953
0.0047298381105065
0.0009072937536984
-0.0029635769315063
-0.0066120512783527
-0.0097799468785524
-0.0122519377619028
-0.013876250013709
-0.014576643705368
-0.0143576571717858
-0.0133028328418731
-0.0115602761507034
-0.0093141859397292
-0.0067582940682768
-0.004084400832653
-0.0014740265905857
0.0009189425036311
0.0029862695373594
0.0046746297739446
0.0059852791018784
0.006965234875679
0.0076935538090765
0.0082656107842922
0.0087761990725994
0.0093056643381714
0.0099128885194659
0.0106339324265718
0.0114847486838698
0.012466350570321
0.01356559433043
0.0147486943751573
0.0159585624933242
0.0171229857951402
0.0181637965142726
0.0189978145062923
0.019532011821866
0.019660085439682
0.0192664433270692
0.0182404071092605
0.0164989680051803
0.0140119548887014
0.0108217801898717
0.0070512108504772
0.0028964083176106
-0.0013919721823185
-0.0055373581126332
-0.0092738857492804
-0.0123800328001379
-0.0146973337978124
-0.0161358844488859
-0.0166737437248229
-0.01635267958045
-0.0152703113853931
-0.0135683706030249
-0.0114174308255314
-0.0089996233582496
-0.0064916554838418
-0.0040501691401004
-0.001801183912903
0.0001669027842581
0.0018110172823071
0.00313799129799
0.0041956421919167
0.0050529702566564
0.0057814237661659
0.0064446167089045
0.007096285931766
0.0077797533012926
0.0085250539705157
0.0093468958511948
0.0102454833686351
0.0112076858058571
0.0122069744393229
0.0132040996104478
0.0141487279906868
0.0149796735495328
0.0156221333891153
0.0159802269190549
0.0159294344484806
0.0153239276260137
0.014024456962943
0.0119321346282958
0.0090147871524095
0.0053251842036843
0.0010083923116326
-0.0037093209102749
-0.0085494145750999
-0.0132167283445596
-0.0174313262104988
-0.0209547784179449
-0.0236120708286762
-0.0253044515848159
-0.0260095875710248
-0.0257773101329803
-0.0247267987579107
-0.0230350363999605
-0.02091009542346
-0.0185608435422182
-0.0161754842847585
-0.0139077464118599
-0.0118657872080802
-0.0101050892844796
-0.0086291618645191
-0.0074008842930197
-0.0063594784587621
-0.0054330141283571
-0.0045458967797458
-0.0036243658978492
-0.0026009571738541
-0.0014255760470405
-8.351518772542477e-05
0.0013962576631456
0.002951671835035
0.0045082601718604
0.0059966929256916
0.0073586609214544
0.0085431672632694
0.0094986325129866
0.0101613597944378
0.0104456162080168
0.0102463718503713
0.0094560133293271
0.0079866480082273
0.0057942066341638
0.002902515232563
-0.0005830386653542
-0.0044831507839262
-0.0085685849189758
-0.0125854108482599
-0.0162762906402349
-0.0194032713770866
-0.0217730775475502
-0.0232571456581354
-0.0238016471266746
-0.0234290454536676
-0.0222318600863218
-0.0203584991395473
-0.0179924685508012
-0.0153293134644627
-0.0125557603314518
-0.0098306080326437
-0.0072718109004199
-0.0049563567154109
-0.0029241270385682
-0.0011780392378568
0.000312456395477
0.0016017984598875
0.002756651956588
0.0038460202049463
0.0049351472407579
0.006079398561269
0.0073166694492101
0.0086627462878823
0.0101113785058259
0.0116374464705586
0.0132034234702587
0.014768773689866
0.0162923261523246
0.0177181474864482
0.0189560987055301
0.0198766328394413
0.0203239507973194
0.0201391912996768
0.0191863477230072
0.0173793714493513
0.0147069413214921
0.0112453522160649
0.0071559892967343
0.0026720780879259
-0.0019237189553678
-0.0063301632180809
-0.0102588664740324
-0.0134602114558219
-0.0157484747469425
-0.0170256569981575
-0.0172911994159221
-0.01663289219141
-0.0152055071666836
-0.0132033601403236
-0.0108340727165341
-0.0082986634224653
-0.0057754730805754
-0.0034055951982736
-0.0012832013890147
0.0005462262779474
0.0020819129422307
0.0033622421324253
0.0044576483778655
0.0054585048928856
0.0064566759392619
0.0075245276093482
0.0087018469348549
0.0099971536546945
0.0113961994647979
0.0128685301169753
0.014370072633028
0.0158454217016696
0.0172355696558952
0.0184877291321754
0.0195559635758399
0.0203906930983066
0.0209265649318695
0.0210764426738023
0.0207348987460136
0.0197929814457893
0.0181582458317279
0.0157733056694269
0.012635052204132
0.0088117150589823
0.0044491896405816
-0.0002373893512412
-0.0049860533326864
-0.0095170550048351
-0.0135611221194267
-0.0168854519724845
-0.0193165317177772
-0.0207560900598764
-0.0211877394467592
-0.0206754021346569
-0.0193520840257406
-0.0173971839249134
-0.0150124356150627
-0.0124063678085803
-0.0097788507118821
-0.0072993715293705
-0.0050891060382127
-0.0032131858170032
-0.0016790558584034
-0.0004407484084367
0.0005866726860404
0.0015057497657835
0.0024157960433512
0.0033956291154026
0.0044938954524695
0.0057300231419503
0.007100956980139
0.0085878642275929
0.0101590249687433
0.0117682665586471
0.0133547242730855
0.0148486196994781
0.0161783508956432
0.0172694325447082
0.01803570240736
0.0183727163821458
0.0181603245437145
0.0172761343419551
0.0156175820156931
0.0131286801770329
0.0098255677148699
0.0058116512373089
0.0012763787526637
-0.0035212589427828
-0.0082835238426923
-0.0127155445516109
-0.016562882810831
-0.0196322426199913
-0.0217978470027446
-0.0230020321905612
-0.023254532366991
-0.0226293075829744
-0.0212552696466445
-0.0192989725619554
-0.0169442109763622
-0.0143758933991193
-0.011767391115427
-0.0092674847692251
-0.0069867330603301
-0.0049845371395349
-0.0032655522227287
-0.0017938760574907
-0.0005136409308761
0.0006410891655832
0.001743507804349
0.0028655910864472
0.0040645245462656
0.005372978746891
0.0067984368652105
