bvp
-0.0047275521792471
-0.0037437628488987
-0.002909725299105
-0.002134570851922
-0.0013255258090794
-0.0003997171297669
0.0007053352892398
0.0020232950337231
0.003556431736797
0.005279142409563
0.0071453247219324
0.0090971998870372
0.0110657345503568
0.0129570290446281
0.0146388867869973
0.0159432962536811
0.0166852846741676
0.0166909303516149
0.0158274825662374
0.0140297701582312
0.0113199707120656
0.0078175887465476
0.0037317688111215
-0.000665153726004
-0.0050706672482192
-0.0091828247532248
-0.0127267502248287
-0.0154748735949397
-0.0172659941017627
-0.0180268343538045
-0.017784284427762
-0.0166567061096429
-0.0148279620334506
-0.0125166838988661
-0.0099495956674218
-0.0073382002301514
-0.0048579666763544
-0.0026356033049523
-0.0007454492151737
0.000789551064372
0.0019942498765885
0.0029347024392336
0.0037073595449328
0.0044244760647416
0.0051956623792648
0.0061068544164299
0.0072069196030497
0.0085088275372982
0.0099976286292076
0.011637357994914
0.0133778266608715
0.0151600912213325
0.0169176645576953
0.0185762252658605
0.0200512688606977
0.021239873021841
0.0220137257128953
0.0222266148775815
0.0217379257082939
0.0204415135085582
0.0182886570692062
0.0153002934530377
0.0115710664540529
0.0072680562734603
0.0026212288066744
-0.0020985731389373
-0.0066102696582674
-0.0106522906571626
-0.0140060540288686
-0.0165136195719242
-0.0180906020104885
-0.0187309980392456
-0.0185010656714439
-0.0175284296274185
-0.0159887112677097
-0.0140842394903302
-0.0120223257690668
-0.0100012999027967
-0.0081942360848188
-0.0067268358543515
-0.0056628747843205
-0.0050039370544254
-0.0046978015452623
-0.0046510430984199
-0.00474523473531
-0.0048552225343883
-0.0048670745454728
-0.0046915272250771
-0.0042693130671978
-0.0035715573467314
-0.0025986593682318
-0.0013772799866274
4.149810411036015e-05
0.0015823554713279
0.0031476588919758
0.0046188496053218
0.0058559807948768
0.0066998288966715
0.0069824457168579
0.0065489313565194
0.0052848570048809
0.0031410895753651
0.0001508351415395
-0.0035647053737193
-0.0078023169189691
-0.0122934728860855
-0.0167298037558794
-0.0207923743873834
-0.024185037240386
-0.0266711618751287
-0.0281001590192317
-0.0284154713153839
-0.0276509150862693
-0.0259200446307659
-0.023397097364068
-0.0202908720821142
-0.016818031668663
-0.0131825748831033
-0.0095612052828073
-0.0060911541804671
-0.0028624245896935
8.158572018146515e-05
0.0027371430769562
0.0051334919407963
0.0073257675394415
0.0093811610713601
0.01136289909482
0.0133209507912397
0.0152882803231477
0.0172801930457353
0.0192966498434543
0.0213240664452314
0.0233360566198825
0.0252963136881589
0.0271620377898216
0.0288824662566185
0.0303902141749858
0.0315912291407585
0.0323636829853057
0.0325703285634517
0.0320797227323055
0.0307887010276317
0.0286422669887542
0.0256504341959953
0.021900625899434
0.0175598822534084
0.0128620825707912
0.0080843046307563
0.0035197390243411
-0.0005508257308974
-0.0038897569756954
-0.0063312351703643
-0.0077968905679881
-0.0082954801619052
-0.007914250716567
-0.006805257871747
-0.0051683504134416
-0.0032344739884138
-0.0012451661750674
0.0005766125395894
0.0020576608367264
0.0030946461483836
0.0036574210971593
0.0037813470698893
0.0035544973798096
0.0031000240705907
0.0025561214424669
0.0020578261464834
0.0017201299779117
0.0016232840716838
0.0018074084073305
0.0022790785878896
0.0030195647850632
0.0039851563051342
0.0051059303805232
0.0062917787581682
0.0074413949623703
0.0084451222792267
0.0091807730495929
0.0095112295821309
0.0092931780964136
0.0083975913003087
0.0067345509305596
0.0042748469859361
0.0010656416416168
-0.0027614533901214
-0.0069949300959706
-0.01136339828372
-0.0155691197142004
-0.019329385831952
-0.0224118344485759
-0.0246516671031713
-0.0259543471038341
-0.0262944474816322
-0.0257147084921598
-0.0243221372365951
-0.0222771484404802
-0.0197745151817798
-0.0170188248157501
-0.0142006920650601
-0.0114798145368695
-0.0089764054864645
-0.0067653665319085
-0.004870225675404
-0.0032669743523001
-0.001903573051095
-0.0007204236462712
0.00034068711102
0.0013341605663299
0.0023086536675691
0.0033046007156372
0.0043508354574441
0.0054610725492239
0.0066318539902567
0.0078433575108647
0.0090602273121476
0.010226733982563
0.0112579138949513
0.0120380567386746
0.0124326413497328
0.0123041942715644
0.0115250647068023
0.0099956635385751
0.0076714754104614
0.0045862961560487
0.0008597150444984
-0.0033123390749096
-0.007678878493607
-0.0119614712893962
-0.0158821959048509
-0.0191891454160213
-0.0216805767267942
-0.0232249815016984
-0.0237733703106641
-0.0233616847544908
-0.0221002642065286
-0.0201553925871849
-0.017731973901391
-0.0150547046214342
-0.0123437475413084
-0.0097903329879045
-0.0075372499413788
-0.0056668249890208
-0.0042001693509519
-0.0031064916402101
-0.002315804362297
-0.0017323978245258
-0.0012493021786212
-0.0007630083709955
-0.0001869229599833
0.000541940331459
0.0014639347791671
0.0025945473462343
0.0039149019867181
0.0053692730143666
0.0068765915930271
0.0083431378006935
0.0096674598753452
0.0107407346367836
0.0114468550309538
0.0116654373705387
0.0112815257161855
0.0102048590779304
0.0083943651989102
0.0058761890977621
0.0027484074234962
-0.000824624672532
-0.0046237078495323
-0.0083945207297801
-0.0118790231645107
-0.0148481857031583
-0.0171219371259212
-0.0185796804726123
-0.0191695392131805
-0.0189103949815034
-0.0178824067115783
-0.016213746741414
-0.0140685271471738
-0.0116325793787837
-0.0090944059193134
-0.0066248713992536
-0.004359345883131
-0.0023835222236812
-0.0007268449408002
0.0006315762293525
0.0017452787142246
0.002680271398276
0.0035015570465475
0.0042668720707297
0.0050246762111783
0.0058132242411375
0.0066584730520844
0.0075732786208391
0.0085598453879356
0.0096115637570619
0.0107119129970669
0.0118343606591224
0.0129443649202585
0.0139985391870141
0.0149381160736083
0.0156792439520359
0.0161080695688724
0.0160888507962226
0.0154869928956031
0.0142008466646075
0.0121892290189862
0.0094865644350647
0.00620639603585
0.0025339475832879
-0.001292067929171
-0.0050080311484634
-0.0083604315295815
-0.0111352568492293
-0.0131739927455782
-0.0143802585080266
-0.0147224497050046
-0.0142344580963253
-0.0130145763978362
-0.0112185990437865
-0.0090419640764594
-0.0066924449056386
-0.0043616103939712
-0.0022033718414604
-0.0003235605545341
0.0012208342086523
0.0024180402979254
0.0032972251065075
0.0039211479015648
0.0043750191107392
0.0047547537833452
0.0051547447219491
0.0056569408625364
0.0063226497732102
0.0071828998625278
0.0082302503287792
0.0094217285513877
0.0106910858303308
0.0119605371728539
0.0131507124751806
0.0141913406550884
0.0150275882333517
0.0156152881681919
0.0159078016877174
0.0158447176218032
0.0153501415625214
0.0143446195870637
0.0127696394920349
0.0106138084083795
0.0079275611788034
0.0048205768689513
0.0014476710930466
-0.0020044425036758
-0.0053278096020221
-0.0083113592118024
-0.010767295025289
-0.0125525454059243
-0.0135795604437589
-0.0138227995485067
-0.013321166858077
-0.0121723981574177
-0.0105201043188571
-0.008535130880773
-0.0063935280777513
-0.0042548095807433
-0.0022467379458248
-0.0004618968814611
0.0010394834680482
0.0022294488735497
0.0031138649210333
0.0037300395779311
0.0041398201137781
0.0044197947718203
0.0046494845300912
0.004900477360934
0.0052295671775937
0.0056749982759356
0.0062558650970458
0.0069753788411617
0.0078255487605929
0.008791510015726
0.0098511548712849
0.0109690632671117
0.0120945926755666
0.0131665160879492
0.0141155896708369
0.0148632647469639
0.0153206149116158
0.0153897572308778
0.0149714043363928
0.0139806624501943
0.0123668164014816
0.0101312603801488
0.0073395445942878
0.0041221072897315
0.0006606709212064
-0.0028334115631878
-0.0061440900899469
-0.0090810460969805
-0.0115083223208785
-0.0133575238287448
-0.0146252978593111
-0.0153633188456296
-0.0156652368605136
-0.0156529322266578
-0.0154617931693792
-0.0152240674942731
-0.0150552336126565
-0.0150460647419095
-0.0152556346729397
-0.0157041866332292
-0.016368318349123
-0.0171800050884485
-0.018037186935544
-0.0188292730599641
-0.0194621160626411
-0.0198680274188518
-0.0200041849166154
-0.0198484044522047
-0.0193972550332546
-0.0186652205884456
-0.0176793802529573
-0.0164721682667732
-0.0150798559188842
-0.0135455140843987
-0.0119195934385061
-0.0102564096450805
-0.0086125005036592
-0.0070501444861292
-0.0056430893018841
-0.0044832341372966
-0.0036818524822592
-0.0033545936457812
-0.0035928296856582
-0.004434844944626
-0.0058472966775298
-0.0077225677669048
-0.0098909437656402
-0.012140205129981
-0.0142383035272359
-0.0159594137221574
-0.0171120762825012
-0.0175626464188098
-0.0172440484166145
-0.0161505285650491
-0.0143327321857213
-0.0118981525301933
-0.0090042762458324
-0.0058390349149703
-0.0025974977761507
0.0005392786115407
0.0034224279224872
0.0059482045471668
0.0080634066835045
0.0097644813358783
0.0110928192734718
0.0121252695098519
0.0129592744633555
0.0136964851990342
0.0144305732101202
0.0152406152337789
0.0161830764263868
0.0172796603292226
0.0185122638940811
0.0198333319276571
0.0211822874844074
0.0224952474236488
0.0237101223319768
0.0247751362621784
0.0256558284163475
0.0263294428586959
0.026768509298563
0.0269256066530942
0.0267280302941799
0.0260869283229112
0.0249221846461296
0.0231928136199712
0.0209143813699483
0.0181586444377899
0.015047188848257
0.0117457155138254
0.0084519693627953
0.0053718769922852
0.0026933969929814
0.0005684271454811
-0.0008998066186904
-0.0016670394688844
-0.0017516538500785
-0.0012280214577913
-0.0002121813595294
0.0011541955173015
0.0027200859040021
0.0043429052457213
0.0059005757793784
0.0072926087304949
0.0084406733512878
0.0092953257262706
0.0098421247676014
0.0101024694740772
0.0101282447576522
0.0099907591938972
0.0097691463306546
0.0095425257459282
0.0093838451430201
0.0093529447913169
0.0094894431531429
0.0098075270652771
0.0102968411520123
0.0109286624938249
0.0116600673645734
0.0124340513721108
0.01317984983325
0.0138168921694159
0.0142619293183088
0.014433916658163
0.0142530873417854
0.0136394258588552
0.0125186340883374
0.0108374869450926
0.0085823955014348
0.0057934089563786
0.0025706305168569
-0.0009284714469686
-0.0045026754960417
-0.007928853854537
-0.0109901465475559
-0.0135077452287077
-0.0153628662228584
-0.016500299796462
-0.0169219598174095
-0.0166801903396844
-0.0158706251531839
-0.0146202323958277
-0.0130729870870709
-0.0113788060843944
-0.0096833137795329
-0.008115685544908
-0.00677797710523
-0.005737826693803
-0.0050223842263221
-0.0046143308281898
-0.0044586285948753
-0.0044816704466938
-0.0046088201925158
-0.0047710509970784
-0.0049048662185668
-0.0049531003460288
-0.0048709195107221
-0.0046329945325851
-0.0042352452874183
-0.0036918183322995
-0.0030309627763926
-0.0022894549183547
-0.001505815424025
-0.0007168869487941
4.195515066385269e-05
0.0007360754534602
0.0013248492032289
0.0017463080585002
0.0019084317609667
0.001699642278254
0.00101163610816
-0.0002351077273488
-0.0020677540451288
-0.0044453553855419
-0.0072547597810626
-0.0103197460994124
-0.0134237352758646
-0.0163380540907382
-0.0188467036932706
-0.0207680091261863
-0.0219721160829067
-0.022388968616724
-0.0220108665525913
-0.0208965130150318
-0.0191697888076305
-0.0170040857046842
-0.0145982410758733
-0.0121546927839517
-0.0098594678565859
-0.0078608840703964
-0.0062537733465433
-0.0050758570432662
-0.0043108770623803
-0.0038940359372645
-0.0037241263780742
-0.0036824471317231
-0.0036507891491055
-0.0035238983109593
-0.0032197155524045
-0.0026897019706666
-0.001923639094457
-0.0009440114954486
0.0002062529092654
0.0014745471999049
0.002804672345519
0.0041426876559853
0.0054435268975794
0.0066729644313454
0.0078027672134339
0.0088001163676381
0.0096144499257206
0.0101704150438308
0.0103761171922087
0.01014338247478
0.0094052329659461
0.0081263920292258
0.0063151679933071
0.004035010933876
0.0014060491230338
-0.0014039445668458
-0.0041952193714678
-0.0067575336433947
-0.0088950768113136
-0.0104499822482466
-0.011319076642394
-0.0114617748185992
-0.0109011055901646
-0.0097179589793086
-0.0080376081168651
-0.0060110799968242
-0.0037996498867869
-0.0015670943539589
0.0005290303379297
0.0023537923116236
0.0038126052822917
0.0048611443489789
0.0055042002350091
0.0057873465120792
0.0057865469716489
0.0055972770787775
0.0053228475153446
0.0050621978007256
0.00489894580096
0.0048928847536444
0.0050771189853549
0.0054639829322695
0.0060502835549414
0.0068135699257254
0.0077103832736611
0.0086838118731975
0.0096713686361908
0.0106066763401031
0.011416726745665
0.0120197013020515
0.0123265460133552
0.0122448168694973
0.0116861667484045
0.0105801494792103
0.0088888444006443
0.0066178510896861
0.0038272792007774
0.0006404692539945
-0.002760590519756
-0.0061574382707476
-0.0093260668218135
-0.0120647475123405
-0.0142133757472038
-0.0156647264957427
-0.0163690391927957
-0.0163323488086462
-0.0156107936054468
-0.0143040437251329
-0.0125469239428639
-0.0104959197342395
-0.008311778306961
-0.0061442023143172
-0.0041191061027348
-0.0023264521732926
-0.0008165510371327
0.0003907703794538
0.0012973598204553
0.0019283124711364
0.0023358713369816
0.002595437457785
0.0027939206920564
0.0030169440433382
0.0033376454375684
0.0038076424971222
0.0044535021297633
0.0052768639288842
0.0062543908134102
0.0073423376306891
0.0084897698834538
0.0096511933952569
0.0107853449881076
0.0118415206670761
0.0127467066049575
0.0134014431387186
0.0136844953522086
0.0134663768112659
0.0126316826790571
0.0111045036464929
0.0088697746396064
0.0059876376762986
0.0025955301243811
-0.0011061828117817
-0.0048783365637063
-0.0084669003263115
-0.0116237523034214
-0.0141275385394692
-0.0158095583319664
-0.016580794006586
-0.0164440497756004
-0.0154838506132364
-0.0138463508337736
-0.0117197576910257
-0.0093127340078353
-0.0068318890407681
-0.0044647161848843
-0.0023658396676182
-0.0006423806771636
0.00065642548725
0.0015386417508125
0.0020599039271473
0.0023113223724067
0.0024066232144832
0.0024637877941131
0.0025829290971159
0.0028320620767772
0.0032464191317558
0.0038350434042513
0.0045879217796027
0.0054825539700686
0.0064895614050328
0.0075764525681734
0.008709535934031
0.0098516549915075
0.0109545737504959
0.0119500188156962
0.0127447340637445
0.0132251400500535
0.0132722025737166
0.0127774495631456
0.0116558168083429
0.0098615940660238
0.0074077136814594
0.004379223100841
0.0009326174622401
-0.0027206130325794
-0.0063394024036824
-0.0096787512302398
-0.012512682005763
-0.0146548375487327
-0.0159766692668199
-0.0164220221340656
-0.016013765707612
-0.014846671372652
-0.0130673665553331
-0.0108531787991523
-0.00839813798666
-0.0058982549235224
-0.0035303430631756
-0.0014331447891891
0.0003024479374289
0.0016365558840334
0.0025789448991417
0.003182336455211
0.0035310911480337
0.0037272882182151
0.0038759119343012
0.0040713441558182
0.0043886811472475
0.0048813987523317
0.0055813933722674
0.0064960932359099
0.0076032560318708
0.0088503416627645
0.0101626515388488
0.0114555340260267
0.0126429684460163
0.0136387906968593
0.014351911842823
0.0146820684894919
0.0145234121009707
0.0137767232954502
0.0123660145327448
0.0102570764720439
0.0074744308367371
0.0041100829839706
0.000322402047459
-0.0036757653579115
-0.0076408004388213
-0.0113268280401825
-0.0145116671919822
-0.0170158538967371
-0.0187132526189088
-0.019538402557373
-0.0194923114031553
-0.0186408497393131
-0.0171032920479774
-0.0150356888771057
-0.012615667656064
-0.0100289965048432
-0.0074537452310323
-0.0050428109243512
-0.0029075157362967
-0.0011065483558923
0.0003527111839503
0.0015016328543424
0.0023949155583977
0.0030998862348496
0.0036925380118191
0.0042530791833996
0.0048564183525741
0.0055619706399738
0.006406613625586
0.0074024153873324
0.008538725785911
0.0097859064117074
0.0110998032614588
0.0124279949814081
0.0137180769816041
0.0149210467934608
0.0159820057451725
0.0168257672339677
0.0173503272235393
0.017432264983654
0.0169434063136577
0.0157743543386459
0.0138594089075922
0.0111985011026263
0.0078690871596336
0.0040246909484267
-0.0001169852912425
-0.0042957263067364
-0.0082384273409843
-0.0116888396441936
-0.0144313564524054
-0.0163112189620733
-0.0172544326633214
-0.0172790065407753
-0.0164871308952569
-0.0150433089584112
-0.0131496489048004
-0.0110212434083223
-0.0088623585179448
-0.0068467552773654
-0.0051032663322985
-0.0037076100707054
-0.002680686302483
-0.0019914584700018
-0.0015668655978515
-0.0013081146171316
-0.0011063558049499
-0.000858791405335
-0.0004859182517975
5.919183604419232e-05
0.0007914977613836
0.0016982813831418
0.0027451235800981
0.0038850263226777
0.0050688246265053
0.0062507963739335
0.0073888571932911
0.0084435269236564
0.0093764644116163
0.0101480763405561
0.0107128862291574
0.0110129117965698
0.0109743056818842
0.0105096362531185
0.0095262713730335
0.0079451678320765
0.005726664327085
0.0028924141079187
-0.0004614749923348
-0.0041637448593974
-0.007984378375113
-0.0116644548252224
-0.0149503042921423
-0.0176232196390628
-0.0195196568965911
-0.0205437690019607
-0.0206742063164711
-0.0199613347649574
-0.018513735383749
-0.0164821073412895
-0.0140465945005416
-0.0114034907892346
-0.0087478188797831
-0.0062534343451261
-0.0040539526380598
-0.0022294600494205
-0.000803334871307
0.0002520713023841
0.0010046241804957
0.0015477656852453
0.0019845329225063
0.0024132060352712
0.0029151514172554
0.0035479257348924
0.0043463613837957
0.0053254477679729
0.0064775375649333
0.0077692540362477
0.0091470275074243
0.0105466544628143
0.0119005190208554
0.0131458286195993
0.0142305037006735
0.0151087557896971
0.0157303549349308
0.0160312801599502
0.0159313008189201
0.0153439147397875
0.0141962096095085
0.0124497916549444
0.0101178884506225
0.007274879142642
0.0040525710210204
0.0006251903250813
-0.0028092334978282
-0.0060474765487015
-0.0088996076956391
-0.0112064406275749
-0.0128543339669704
-0.0137855056673288
-0.0140007985755801
-0.01355473510921
-0.0125451236963272
-0.0110989967361092
-0.0093589192256331
-0.0074702939018607
-0.0055674808099865
-0.0037646593991667
-0.0021549887023866
-0.0008088806644082
0.0002337540499866
0.000970602966845
0.0014372114092111
0.0016991356387734
0.001838163472712
0.0019393735565245
0.0020831180736422
0.0023383782245218
0.0027543501928448
0.0033526960760354
0.0041255615651607
0.0050413599237799
0.0060544395819306
0.0071120718494057
0.0081563424319028
0.0091258445754647
0.0099591240286827
0.0105946334078907
0.0109662227332592
0.0110003864392638
0.0106189213693141
0.0097467005252838
0.0083243884146213
0.0063240574672818
0.0037642894312739
0.0007208436727523
-0.0026727318763732
-0.0062357480637729
-0.0097570773214101
-0.0130171440541744
-0.0158163253217935
-0.0180008448660373
-0.0194758903235197
-0.0202068276703357
-0.0202148985117673
-0.0195707231760025
-0.0183866377919912
-0.0168067067861557
-0.0149907078593969
-0.0130936186760663
-0.0112476889044046
-0.0095515819266438
-0.0080661587417125
-0.0068130362778902
-0.0057745240628719
-0.0049005215987563
-0.0041255629621446
-0.0033865354489535
-0.0026311897672712
-0.0018205386586487
-0.0009305858984589
4.84059564769268e-05
0.0011162250302731
0.0022661578841507
0.003484658896923
0.0047489549033343
0.0060265525244176
0.0072795082814991
0.0084700863808393
0.009564708918333
0.0105368271470069
0.0113615356385707
0.0119986422359943
0.0123799992725253
0.0124130360782146
0.0119966473430395
0.0110419038683176
0.0094905886799097
0.0073298192583024
0.0046021910384297
0.0014077089726924
-0.0021014930680394
-0.0057303104549646
-0.0092555992305278
-0.0124499052762985
-0.0151089029386639
-0.017074080184102
-0.0182505510747432
-0.0186182372272014
-0.0182263534516096
-0.0171739421784877
-0.0155930761247873
-0.0136396437883377
-0.0114830862730741
-0.0092901038005948
-0.0072047165594995
-0.0053296322003006
-0.0037152834702283
-0.0023609946947544
-0.0012272783787921
-0.0002522790164221
0.000635661301203
0.0015099967131391
0.0024368027225136
0.0034622803796082
0.0046030143275856
0.0058461530134081
0.0071590314619243
0.0085012055933475
0.0098317796364426
0.0111097367480397
0.012292930856347
0.0133425639942288
0.0142284408211708
0.0149257741868495
0.0154064558446407
0.0156330335885286
0.0155569985508918
0.015120418742299
0.014259498566389
0.0129107367247343
0.0110247479751706
0.0085876593366265
0.0056407190859317
0.0022888199891895
-0.0013043233193457
-0.0049328338354825
-0.0083746816962957
-0.0114205805584788
-0.0138970836997032
-0.0156799927353858
-0.0166998896747827
-0.0169434044510126
-0.0164506640285253
-0.0153057733550667
-0.0136248674243688
-0.0115499608218669
-0.0092431344091892
-0.0068704015575349
-0.0045787040144205
-0.0024791688192635
-0.0006407210603356
0.0009113139240071
0.0021921752486377
0.0032483991235494
0.0041457447223365
0.004957107361406
0.0057517401874065
0.0065883891656994
0.0075124595314264
0.0085552660748362
0.0097308689728379
0.0110292751342058
0.0124156577512621
0.013838917016983
0.0152408890426158
0.0165637750178575
0.0177572816610336
0.0187794025987386
0.0195880848914384
0.0201338604092597
0.0203603394329547
0.0202069524675607
0.0196105539798736
0.0185116045176982
0.0168710313737392
0.0146931130439043
0.0120381116867065
0.0090167596936225
0.0057757832109928
0.0024820640683174
-0.0006930283270776
-0.0035870939027518
-0.0060594193637371
-0.0080042006447911
-0.0093606291338801
-0.0101172951981425
-0.0103097297251224
-0.0100110825151205
-0.0093214502558112
-0.0083604548126459
-0.0072571798227727
-0.0061315270140767
-0.0050780484452843
-0.0041644405573606
-0.003435212187469
-0.0029100901447236
-0.0025832597166299
-0.0024268757551908
-0.0023947581648826
-0.0024267137050628
-0.0024561933241784
-0.002420911565423
-0.0022737318649888
-0.0019892621785402
-0.0015636971220374
-0.001010506413877
-0.0003543812781572
0.0003748638555407
0.0011439751833677
0.0019130362197756
0.0026339227333664
0.0032521337270736
0.0037069292739033
0.0039301859214901
0.0038480516523122
0.0033865217119455
0.0024827839806675
0.0011001732200384
-0.0007614018395543
-0.0030609546229243
-0.005714576691389
-0.0085992189124226
-0.0115630021318793
-0.0144360810518264
-0.0170432720333337
-0.0192248560488224
-0.0208603870123624
-0.0218830630183219
-0.0222802422940731
-0.0220858566462993
-0.0213713869452476
-0.0202356837689876
-0.0187934655696153
-0.0171660259366035
-0.0154732465744018
-0.0138224251568317
-0.0122955627739429
-0.0109409326687455
-0.0097708255052566
-0.0087629985064268
-0.0078680701553821
-0.0070269219577312
-0.0061884708702564
-0.0053162830881774
-0.0043874606490135
-0.0033897240646183
-0.0023187978658825
-0.0011772117577493
2.615584526211024e-05
0.0012758696684613
0.0025505041703581
0.0038257520645856
0.0050781881436705
0.0062862620688974
0.0074274269863963
0.0084745613858103
0.0093918899074196
0.0101266745477914
0.0106024518609046
0.0107252141460776
0.0104023572057485
0.0095656048506498
0.0081912139430642
0.0063126855529844
0.0040230271406471
0.0014672622783109
-0.001174321398139
-0.0037105537485331
-0.0059617110528051
-0.0077732102945446
-0.0090257581323385
-0.0096460152417421
-0.0096171218901872
-0.0089834248647093
-0.0078420937061309
-0.0063245669007301
-0.0045747319236397
-0.0027277097105979
-0.0008951239287853
0.0008391221053898
0.0024171918630599
0.0038070734590291
0.0050043673254549
0.006031772121787
0.0069318581372499
0.0077524716034531
0.0085339602082967
0.009307281114161
0.0100963376462459
0.0109145157039165
0.0117581058293581
0.0126042012125253
0.0134155265986919
0.0141501724720001
0.0147720873355865
0.015257429331541
0.0155947189778089
0.0157805010676383
0.0158110577613115
0.015671694651246
0.0153295127674937
0.0147337671369314
0.0138251772150397
0.0125526878982782
0.0108882319182157
0.0088325906544923
0.0064174542203545
0.0037087048403918
0.0008079067338258
-0.0021524652838706
-0.0050208973698318
-0.0076435226947069
-0.0098820570856332
-0.0116288810968399
-0.0128162577748298
-0.0134190237149596
-0.0134531483054161
-0.0129724778234958
-0.0120612513273954
-0.0108218882232904
-0.0093657076358795
-0.0078101879917085
-0.0062742526642978
-0.0048661404289305
-0.0036693969741463
-0.0027326946146786
-0.0020646341145038
-0.0016327518969774
-0.0013693054206669
-0.0011878134682774
-0.0010043373331427
-0.0007527074776589
-0.0003914828412234
9.553320705890656e-05
0.0007062978111207
0.001432997174561
0.002269156742841
0.0032029005233198
0.0042047351598739
0.0052248556166887
0.006201637443155
0.0070711816661059
0.0077707790769636
0.008237374946475
0.008404653519392
0.0082010515034198
0.0075535587966442
0.0064033716917037
0.0047289952635765
0.0025641487445682
4.288740456104279e-06
-0.0027981461025774
-0.0056530092842876
-0.0083651822060346
-0.0107637178152799
-0.0127139464020729
-0.0141212474554777
-0.0149365570396184
-0.0151597596704959
-0.0148364957422018
-0.0140474708750844
-0.0128922862932085
-0.0114765232428908
-0.0099047487601637
-0.0082734040915966
-0.0066627729684114
-0.005129194818437
-0.0036976048722863
-0.0023606726899743
-0.0010902406647801
0.0001450097188353
0.0013689305633306
0.0025994330644607
0.0038530444726347
0.0051435828208923
0.0064779915846884
0.007854314520955
0.0092607010155916
0.0106755793094635
0.0120712118223309
0.0134184751659631
0.0146889528259634
0.0158555079251527
0.0168913621455431
0.0177604518830776
0.0184023343026638
0.0187278483062982
0.0186315476894378
0.0180165618658065
0.0168240293860435
0.0150536485016345
0.0127691077068448
0.0100940689444541
0.0072014182806015
0.0042943693697452
0.0015822751447558
-0.0007427646778523
-0.0025239731185138
-0.0036529065109789
-0.0040796338580548
-0.0038207229226827
-0.0029627038165926
-0.0016540419310331
-8.356454782187939e-05
0.0015473226085305
0.0030525948386639
0.004285218194127
0.0051524271257221
0.0056224148720502
0.0057221408933401
0.0055271061137318
0.0051465332508087
0.0047058039344847
0.0043273121118545
0.0041142883710563
0.0041413768194615
0.0044474550522863
0.0050281882286071
0.0058368006721138
0.006796452216804
0.007817069068551
0.0088110128417611
0.0097053591161966
0.0104483161121606
0.0110060591250658
0.0113500151783227
0.0114437080919742
0.0112383281812071
0.0106754545122385
0.0096930172294378
0.008238730020821
0.0062916968017816
0.003878473304212
0.0010716002434492
-0.0020215744152665
-0.0052675297483801
-0.0085137737914919
-0.0115988925099372
-0.0143658807501196
-0.0166783444583416
-0.0184352416545152
-0.019580191001296
-0.0201078578829765
-0.0200658850371837
-0.0195456612855196
-0.0186635870486497
-0.0175408832728862
-0.0162880457937717
-0.014999165199697
-0.0137554788962006
-0.0126271340996027
-0.0116663463413715
-0.0108984364196658
-0.0103179765865206
-0.0098902182653546
-0.0095563502982258
-0.009242596104741
-0.0088730016723275
-0.0083832051604986
-0.0077291619963943
-0.0068899868056178
-0.0058700200170278
-0.0046973852440714
-0.0034150448627769
-0.0020738216117024
-0.0007326947525143
0.0005419407971203
0.0016793771646916
0.0026044347323477
0.0032371184788644
0.0034980159252882
0.0033176816068589
0.0026466869749128
0.0014668055810034
-0.0001990008167922
-0.0022831535898149
-0.0046767760068178
-0.0072371531277894
-0.0097986888140439
-0.0121857579797506
-0.0142287965863943
-0.0157861299812793
-0.0167643912136554
-0.0171285420656204
-0.0168998874723911
-0.016144685447216
-0.0149601427838206
-0.0134626720100641
-0.0117761027067899
-0.0100189466029405
-0.0082935187965631
-0.006678566802293
-0.0052261129021644
-0.0039605442434549
-0.0028757406398653
-0.0019327264744788
-0.0010696109384298
-0.0002243581693619
0.0006481069140136
0.0015733267646282
0.0025605920236557
0.003605734091252
0.0046933502890169
0.0058007109910249
0.0069041149690747
0.0079824542626738
0.0090166488662362
0.0099901435896754
0.0108874384313821
0.0116854356601834
0.0123462509363889
0.0128200352191925
0.0130497319623827
0.0129699660465121
0.0125092659145593
0.0116064753383398
0.0102358013391494
0.0084260664880275
0.0062654027715325
0.0038919495418667
0.0014763206709176
-0.0008012508042156
-0.0027780677191913
-0.0043348791077733
-0.0054140905849635
-0.006024207919836
-0.0062251035124063
-0.0061007337644696
-0.0057375463657081
-0.005215800832957
-0.0046044834889471
-0.0039547076448798
-0.0032960884273052
-0.0026380131021142
-0.0019746436737477
-0.0012922976166009
-0.0005757575854659
0.00018837954849
0.0010098963975906
0.0018919217400252
0.0028255614452064
0.0037864590995013
0.0047407420352101
0.0056608440354466
0.0065370574593544
0.0073724775575101
0.0081688640639185
0.0089168781414628
0.0095950122922658
0.0101752011105418
0.0106290876865386
0.010929244570434
0.0110457390546798
0.0109411049634218
0.0105668902397155
0.0098668914288282
0.0087907128036022
0.007314087357372
0.0054572080262005
0.0032941927202045
0.0009482805617153
-0.0014279172755777
-0.0036748582497239
-0.0056406110525131
-0.0071930014528334
-0.0082332845777273
-0.0087043177336454
-0.0085914153605699
-0.0079207438975572
-0.0067555624991655
-0.0051905517466366
-0.0033470685593783
-0.0013645472936332
0.0006166398525238
0.0024739895015954
0.0041185962036252
0.0055043906904757
0.0066235656850039
0.0074943332001566
0.0081522352993488
0.0086446292698383
0.0090268570929765
0.009359885007143
0.0097049856558442
0.0101139489561319
0.0106200370937585
0.0112342610955238
0.011946503072977
0.0127295721322298
0.0135453213006258
0.0143514554947614
0.0151063054800033
0.0157672725617885
0.0162823498249053
0.0165832955390214
0.0165871754288673
0.0162039846181869
0.015349737368524
0.0139663703739643
0.0120405498892068
0.0096112368628382
0.0067665837705135
0.0036347908899188
0.0003709476441144
-0.0028572210576385
-0.0058823032304644
-0.0085486704483628
-0.0107229733839631
-0.0123079326003789
-0.0132587682455778
-0.0135889584198594
-0.0133613776415586
-0.0126746967434883
-0.0116492938250303
-0.0104129184037446
-0.0090883634984493
-0.0077853272669017
-0.0065948888659477
-0.0055825538001954
-0.0047822026535868
-0.0041948780417442
-0.0037922332994639
-0.0035239621065557
-0.0033265058882534
-0.003133634570986
-0.0028919288888573
-0.0025728847831487
-0.0021716631017625
-0.0016985647380352
-0.0011736210435628
-0.000623470172286
-7.660314440727234e-05
0.0004404997453093
0.0009036073461174
0.0012873774394392
0.0015576919540762
0.001663465052843
0.0015341686084866
0.0010863691568374
0.0002402951940894
-0.0010616099461913
-0.0028431490063667
-0.0050870599225163
-0.0077295815572142
-0.0106594152748584
-0.0137224420905113
-0.0167348608374595
-0.0195047128945589
-0.0218565240502357
-0.0236527658998966
-0.0248057208955287
-0.0252770185470581
-0.0250703394412994
-0.0242263711988925
-0.0228203292936086
-0.0209552459418773
-0.0187534429132938
-0.0163513273000717
-0.0138899534940719
-0.0114960866048932
-0.0092628160491585
-0.007239778060466
-0.0054343240335583
-0.0038196614477783
-0.0023457466159015
-0.0009496160782873
0.0004354383563622
0.0018696958431974
0.0033952188678085
0.0050245933234691
0.0067364065907895
0.0084833046421408
0.0102056311443448
0.0118375476449728
0.0133082214742898
0.0145488921552896
0.0155022572726011
0.0161241628229618
0.0163774322718381
0.0162244420498609
0.015625961124897
0.0145493019372224
0.0129804359748959
0.0109345242381095
0.0084631275385618
0.0056565245613455
0.0026416962500661
-0.0004247791948728
-0.0033737800549715
-0.0060490621253848
-0.0083275260403752
-0.0101240687072277
-0.0113882981240749
-0.0121032502502202
-0.0122839352115988
-0.0119731109589338
-0.0112357316538691
-0.0101527469232678
-0.0088173523545265
-0.0073324916884303
-0.0058023412711918
-0.0043179742060601
-0.0029443632811307
-0.0017123161815106
-0.0006177951581776
0.0003682500682771
0.0012846551835536
0.0021685799583792
0.0030502311419695
0.0039526908658444
0.0048934062942862
0.0058832308277487
0.0069238697178661
0.0080058751627802
0.0091086998581886
0.0102048618718981
0.0112664680927991
0.0122679155319929
0.0131834261119365
0.0139838149771094
0.0146301705390214
0.0150608420372009
0.0151833621785044
0.0148847326636314
0.0140571184456348
0.0126273334026336
0.0105796149000525
0.0079662650823593
0.0049062734469771
0.0015736726345494
-0.0018223612569272
-0.0050631714984774
-0.0079467808827757
-0.0103089287877082
-0.0120363496243953
-0.0130710378289222
-0.0134089523926377
-0.0130988005548715
-0.0122393909841775
-0.0109693370759487
-0.0094469096511602
-0.0078256148844957
-0.0062350202351808
-0.0047721820883452
-0.0035005463287234
-0.002450278494507
-0.0016202805563807
-0.0009842868894338
-0.0004988657310605
-0.0001124278642237
0.0002256203442811
0.0005596987903118
0.00092468643561
0.0013388316147029
0.001797298900783
0.002275510225445
0.0027425638400018
0.0031748111359775
0.0035615067463368
0.003904921002686
0.004218821413815
0.0045228693634271
0.0048306426033377
0.0051349243149161
0.0053974161855876
0.005547497421503
0.0054914322681725
0.0051313308067619
0.0043862578459084
0.0032072255853563
0.0015884535387158
-0.0004216888919472
-0.0027166535146534
-0.0051409541629254
-0.007509428076446
-0.0096293650567531
-0.0113219991326332
-0.0124432947486639
-0.0129011832177639
-0.0126649336889386
-0.0117661757394671
-0.0102921035140752
-0.0083708083257079
-0.0061519173905253
-0.003789191134274
-0.0014277808368206
0.0008080229163169
0.002827601507306
0.0045816972851753
0.0060623586177825
0.0072984914295375
0.0083464160561561
0.0092741958796978
0.0101478556171059
0.0110247340053319
0.0119485696777701
0.0129436086863279
0.0140122817829251
0.0151396784931421
0.0163009949028491
0.0174635127186775
0.0185833498835563
0.0196078121662139
0.0204839911311864
0.0211632773280143
0.021598832681775
0.021740224212408
0.0215287636965513
0.0208975486457347
0.0197797231376171
0.0181226395070552
0.0159018840640783
0.0131324948742985
0.0098760360851883
0.0062420144677162
0.0023855327162891
-0.0015023032901808
-0.0052159270271658
-0.00856155436486
-0.011379275470972
-0.0135574154555797
-0.0150382062420248
-0.0158173441886901
-0.0159395448863506
-0.0154915926977992
-0.0145950298756361
-0.0133954985067248
-0.01204473990947
-0.0106802647933363
-0.0094115743413567
-0.0083130551502108
-0.0074177263304591
-0.006715721450746
-0.0061652096919715
-0.0057094693183898
-0.0052896812558174
-0.0048521403223276
-0.004351551644504
-0.0037507265806198
-0.0030200383625924
-0.0021411273628473
-0.0011127900797873
4.746601916849613e-05
0.0013089878484606
0.0026354920119047
0.0039881523698568
0.005327139981091
0.006613552570343
0.0078045362606644
0.008841598406434
0.0096415923908352
0.010096232406795
0.0100824199616909
0.009482767432928
0.0082103256136178
0.0062290108762681
0.0035655298270285
0.000314780510962
-0.0033626649528741
-0.0072547737509012
-0.0111200101673603
-0.0147118978202342
-0.0178040526807308
-0.0202110297977924
-0.0218048132956028
-0.0225306972861289
-0.0224153585731983
-0.021557081490755
-0.0201027952134609
-0.0182250998914241
-0.0161052364856004
-0.0139175243675708
-0.0118116680532693
-0.0098973363637924
-0.0082370275631546
-0.0068483729846775
-0.0057116411626338
-0.0047769732773303
-0.0039699831977486
-0.003197943791747
-0.0023630259092897
-0.0013855500146746
-0.0002233373816125
0.0011265622451901
0.0026380382478237
0.004266700707376
0.0059582325629889
0.0076563679613173
0.0093106087297201
0.0108802672475576
0.012333333492279
0.0136422077193856
0.0147767420858144
0.0156946815550327
0.0163347721099853
0.0166183169931173
0.0164567772299051
0.0157610867172479
0.0144554181024432
0.0124969137832522
0.0098957316949963
0.0067298207432031
0.0031497469171881
-0.0006337978411465
-0.0043789763003587
-0.0078443326056003
-0.0108132557943463
-0.0131126763299107
-0.0146270710974931
-0.0153065705671906
-0.0151670770719647
-0.0142816696316003
-0.0127703584730625
-0.0107930526137351
-0.0085372198373079
-0.0061951838433742
-0.0039404686540365
-0.001910820021294
-0.0001969520235434
0.0011626589111983
0.0021791898179799
0.0029051550664007
0.003422652836889
0.0038293013349175
0.0042236079461872
0.0046909213997423
0.0052939839661121
0.0060722534544765
0.0070440983399748
0.0082038156688213
0.0095179565250873
0.0109292175620794
0.0123657993972301
0.0137504348531365
0.0150087131187319
0.0160746406763792
0.0168877318501472
0.0173839963972568
0.0174897331744432
0.0171225890517234
0.0162009727209806
0.0146609134972095
0.0124757699668407
0.0096734128892421
0.0063429293222725
0.0026259310543537
-0.0012996094301342
-0.0052354065701365
-0.0089802164584398
-0.0123487971723079
-0.0151900667697191
-0.0174017418175935
-0.0189372710883617
-0.0198031682521104
-0.0200503151863813
-0.0197633951902389
-0.01904983446002
-0.018028438091278
-0.0168158113956451
-0.0155101884156465
-0.0141825377941131
-0.0128810033202171
-0.0116356592625379
-0.0104549415409564
-0.0093228742480278
-0.008203200995922
-0.0070469141937792
-0.0058000432327389
-0.0044117546640336
-0.002844831906259
-0.0010861435439437
0.0008504089782945
0.0029277168214321
0.0050898655317723
0.0072688814252614
0.0093954531475901
0.0114059513434767
0.0132411997765302
0.0148433931171894
0.0161554738879203
0.017118914052844
0.0176688265055418
0.0177332554012537
0.0172408875077962
0.0161331016570329
0.0143765714019536
0.0119756367057561
0.0089819571003317
0.0054984167218208
0.001675134524703
-0.0023012068122625
-0.006218961905688
-0.0098562762141227
-0.013007003813982
-0.0155093390494585
-0.0172625966370105
-0.0182346161454916
-0.0184637550264596
-0.0180496014654636
-0.0171334408223629
-0.0158770810812711
-0.0144439376890659
-0.0129806566983461
-0.0115957390516996
-0.0103364987298846
-0.0091735394671559
-0.0079987002536654
-0.0066372547298669
-0.004879705607891
-0.0025327198673039
0.0005292535643093
0.0043344004079699
