bvp
-0.0184457264840602
-0.0171403363347053
-0.0152694135904312
-0.0128658432513475
-0.0100148022174835
-0.0068350136280059
-0.0034568347036838
-1.6205012798309326e-06
0.0034280214458703
0.0067432280629873
0.0098564736545085
0.0126700792461633
0.0150699075311422
0.0169297195971012
0.0181264318525791
0.0185620449483394
0.0181901175528764
0.0170350186526775
0.0151921855285763
0.0128175653517246
0.0101162418723106
0.0073275603353977
0.0047039855271577
0.0024861618876457
0.0008781775832176
2.742186188697815e-05
1.2412667274475098e-05
0.0008392706513404
0.0024447776377201
0.0047038793563842
0.0074426792562007
0.0104592815041542
0.0135506018996238
0.0165340956300497
0.0192564483731985
0.021599156782031
0.0234894324094057
0.0249089915305376
0.025892037898302
0.0265126172453165
0.0268705151975154
0.0270809028297662
0.0272606462240219
0.0275098420679569
0.0278981886804103
0.0284619145095348
0.0292103067040443
0.0301375202834606
0.03122846968472
0.0324495770037174
0.0337346754968166
0.0349848344922065
0.0360795892775058
0.0368840768933296
0.0372515507042408
0.0370298363268375
0.0360760688781738
0.0342799574136734
0.0315880440175533
0.0280199628323316
0.0236769802868366
0.0187420956790447
0.0134659316390752
0.0081400740891695
0.0030652964487671
-0.001480346545577
-0.005270542576909
-0.0081525389105081
-0.0100557971745729
-0.0109884049743413
-0.0110291931778192
-0.0103175211697816
-0.0090371295809745
-0.0073939934372901
-0.0055936463177204
-0.0038239164277911
-0.0022407434880733
-0.0009544603526592
-2.165418118238449e-05
0.0005567856132984
0.0008337758481502
0.0009031286463141
0.0008731167763471
0.0008419966325163
0.0008870484307408
0.0010622944682836
0.0013993652537465
0.0019109658896923
0.0025953357107937
0.0034380066208541
0.0044117863290011
0.0054800347425043
0.0066027622669935
0.0077389702200889
0.0088404193520545
0.0098423287272453
0.0106573402881622
0.011168036609888
0.0112225599586963
0.0106508061289787
0.0092992382124066
0.0070663010701537
0.0039319093339145
-2.3332424461841583e-05
-0.0046195052564144
-0.009597429074347
-0.014647040516138
-0.019441120326519
-0.023673165589571
-0.0270919166505336
-0.0295236743986606
-0.0308807361871004
-0.031160220503807
-0.0304395016282796
-0.0288723222911357
-0.0266787651926279
-0.0241174474358558
-0.0214449800550937
-0.0188818164169788
-0.0165926851332187
-0.0146776316687464
-0.0131698809564113
-0.0120397564023733
-0.0112066585570573
-0.0105595821514725
-0.009980134665966
-0.0093587776646018
-0.0086028221994638
-0.0076409634202718
-0.0064268223941326
-0.0049428972415626
-0.0032038886565715
-0.0012544988421723
0.0008390940492972
0.0029992838390171
0.0051464862190186
0.0072057982906699
0.0091059273108839
0.0107701793313026
0.012103940360248
0.0129878539592027
0.0132851498201489
0.0128614539280533
0.0116136688739061
0.0095021175220608
0.0065705785527825
0.002947062253952
-0.0011663623154163
-0.0055095115676522
-0.0097886007279157
-0.0137078957632184
-0.0170005708932876
-0.0194538421928882
-0.0209284052252769
-0.0213717501610517
-0.020822299644351
-0.0193993356078863
-0.0172794219106435
-0.0146701848134398
-0.0117875412106513
-0.0088337417691946
-0.005982116330415
-0.0033738841302692
-0.001114556682296
0.0007371676620095
0.0021764957346022
0.0032497867941856
0.0040438063442707
0.0046675563789904
0.0052327313460409
0.0058387648314237
0.0065632131882011
0.0074564572423696
0.0085399439558386
0.0098092965781688
0.0112421344965696
0.0128068691119551
0.0144648030400276
0.0161611009389162
0.0178141538053751
0.0193144939839839
0.0205294732004404
0.021307960152626
0.0214902535080909
0.0209261551499366
0.0194976050406694
0.0171415954828262
0.0138675700873136
0.0097666885703802
0.0050123315304517
-0.000150587875396
-0.0054250182583928
-0.0104860085994005
-0.0150145376101136
-0.0187391638755798
-0.0214671045541763
-0.0230967197567224
-0.0236197598278522
-0.0231155399233102
-0.0217362828552722
-0.0196873322129249
-0.0172035805881023
-0.014521924778819
-0.0118540953844785
-0.0093679288402199
-0.0071787592023611
-0.0053451154381036
-0.0038658236153423
-0.0026831594295799
-0.0016998267965391
-0.0008070678450167
9.074411354959012e-05
0.0010638640960678
0.0021547828800976
0.0033806352876126
0.0047396128065884
0.0062202191911637
0.0078051630407571
0.0094674360007047
0.0111678000539541
0.0128557132557034
0.014466593042016
0.0159147977828979
0.0170897934585809
0.0178616791963577
0.0180910006165504
0.0176375117152929
0.0163768250495195
0.0142291858792305
0.0111884018406271
0.0073397126980125
0.0028623142279684
-0.0019857957959175
-0.0068966778926551
-0.0115469060838222
-0.0156341772526502
-0.018910402432084
-0.0212033428251743
-0.0224269330501556
-0.0225819256156682
-0.0217474084347486
-0.0200689360499382
-0.0177450962364673
-0.0150069668889045
-0.0120917093008756
-0.0092177847400307
-0.0065640909597277
-0.0042535061948001
-0.0023450860753655
-0.0008378355996683
0.0003179477062076
0.0012076521525159
0.0019387258216738
0.0026244337204843
0.0033660095650702
0.0042410385794937
0.0053023872897028
0.0065779048018157
0.0080629009753465
0.0097149414941668
0.0114625096321105
0.0132218338549137
0.0149087328463792
0.016441274434328
0.0177338290959596
0.0186861511319875
0.01917714625597
0.0190707445144653
0.0182361714541912
0.0165780633687973
0.0140637345612049
0.0107406321913003
0.0067438627593219
0.0022865878418087
-0.0023686219938099
-0.0069427182897925
-0.0111658219248056
-0.0147963017225265
-0.0176374875009059
-0.0195530522614717
-0.020477944985032
-0.0204221047461032
-0.0194649696350097
-0.0177421700209379
-0.0154290255159139
-0.0127220209687948
-0.0098207863047719
-0.0069127641618251
-0.0041566230356693
-0.0016671484336256
0.0004886204842478
0.0022859030868858
0.0037372624501585
0.0048883454874157
0.0058092176914215
0.0065823886543512
0.0072921034879982
0.0080163143575191
0.0088176513090729
0.009734378196299
0.0107774110510945
0.0119325630366802
0.013166207820177
0.0144340619444847
0.0156869851052761
0.0168679282069206
0.0179013926535844
0.0186842530965805
0.0190861094743013
0.0189601425081491
0.0181624516844749
0.0165756829082965
0.0141333788633346
0.0108429472893476
0.0067990664392709
0.0021809721365571
-0.0027623996138572
-0.0077367769554257
-0.0124368853867053
-0.0165814831852912
-0.0199379287660121
-0.0223398357629776
-0.0237038843333721
-0.0240386929363012
-0.0234383791685104
-0.0220626480877399
-0.0201098900288343
-0.0177914835512638
-0.0153125487267971
-0.0128580257296562
-0.0105799539014697
-0.0085867475718259
-0.0069374302402138
-0.0056402399204671
-0.004657435696572
-0.0039161923341453
-0.0033198310993611
-0.0027616885490715
-0.0021449034102261
-0.0013997238129377
-0.000490853562951
0.0005854368209838
0.0018101576715707
0.0031506791710853
0.0045680105686187
0.0060208663344383
0.0074653476476669
0.008851752616465
0.0101196086034178
0.0111914435401558
0.0119686676189303
0.0123349325731396
0.0121690975502133
0.0113621652126312
0.0098330825567245
0.0075466018170118
0.0045324666425585
0.000899039208889
-0.0031658802181482
-0.0074133900925517
-0.0115657662972807
-0.0153505783528089
-0.0185305550694465
-0.0209264270961284
-0.0224301591515541
-0.0230081006884574
-0.0226971134543418
-0.0215931758284568
-0.019832232967019
-0.0175761692225933
-0.0150085110217332
-0.0123227890580892
-0.0096989572048187
-0.0072820866480469
-0.0051694954745471
-0.0034053481649607
-0.0019827056676149
-0.0008525053272023
6.21783547103405e-05
0.0008531105704605
0.0016173738986253
0.0024434132501482
0.0033949080388993
0.0045056627131998
0.005786863155663
0.0072334096767008
0.0088197439908981
0.0104950265958905
0.0121901584789156
0.0138313546776771
0.0153499767184257
0.0166852045804262
0.0177782960236072
0.0185616426169872
0.018951890990138
0.0188513658940792
0.0181585103273391
0.0167887415736913
0.014700305648148
0.0119170676916837
0.0085409209132194
0.0047438610345125
0.0007411050610244
-0.003237318014726
-0.0069662765599787
-0.0102405585348606
-0.0128886960446834
-0.0147864092141389
-0.0158683154731988
-0.0161333009600639
-0.0156407561153173
-0.0144989946857094
-0.012850509956479
-0.0108575876802206
-0.0086884144693613
-0.0065012136474251
-0.0044248551130294
-0.0025474275462329
-0.0009228260605596
0.0004202365234959
0.0014800238423049
0.0022839524317532
0.002884954912588
0.0033552669920027
0.0037762001156806
0.0042232968844473
0.0047525516711175
0.0053952350281178
0.0061615430749952
0.0070464359596371
0.0080328714102506
0.0090943034738302
0.0102005545049905
0.0113197714090347
0.0124100102111697
0.0134139442816376
0.014263218268752
0.0148799214512109
0.0151749989017844
0.0150526240468025
0.0144195398315787
0.0131980497390031
0.0113424137234687
0.0088554993271827
0.0058017764240503
0.002309575676918
-0.0014407918788492
-0.0052354675717651
-0.0088441660627722
-0.0120407380163669
-0.0146326106041669
-0.0164872389286756
-0.0175424218177795
-0.0178039204329252
-0.017337342724204
-0.0162544958293437
-0.0146967638283967
-0.0128206443041563
-0.0107832942157983
-0.0087268501520156
-0.0067681018263101
-0.0049936398863792
-0.0034559508785605
-0.002171341329813
-0.0011198251741006
-0.0002518380060791
0.0004948936402797
0.0011804902460426
0.0018573924899101
0.0025688896421343
0.0033479034900665
0.0042156493291258
0.0051804347895085
0.0062358188442885
0.0073580876924097
0.0085056396201252
0.0096252700313925
0.0106660574674606
0.0115896146744489
0.0123683772981166
0.012977217324078
0.0133812623098492
0.0135209672152996
0.0133065022528171
0.0126322600990533
0.011404181830585
0.00956392288208
0.0071067376993596
0.004095253534615
0.0006634639576077
-0.0029941049870103
-0.0066476892679929
-0.0100632086396217
-0.0130278784781694
-0.0153690604493021
-0.0169659871608018
-0.0177553668618202
-0.0177383758127689
-0.0169869977980852
-0.0156385209411382
-0.0138770444318652
-0.0119077656418085
-0.0099285105243325
-0.0081056235358119
-0.0065591442398726
-0.005356419365853
-0.0045121889561414
-0.0039941393770277
-0.0037360773421823
-0.0036548397038131
-0.0036604504566639
-0.0036600448656827
-0.0035621379502117
-0.0032859477214515
-0.0027775254566222
-0.0020227232016623
-0.0010466335806995
9.7267038654536e-05
0.0013400082243606
0.0026084326673299
0.003833949798718
0.0049567418172955
0.0059249112382531
0.0066876630298793
0.0071850144304335
0.0073442864231765
0.0070861596614122
0.006339160259813
0.0050649694167077
0.0032813788857311
0.0010667261667549
-0.0014487524749711
-0.00409522280097
-0.0066794296726584
-0.0090050967410206
-0.0108946273103356
-0.0122079122811555
-0.0128559870645403
-0.0128086730837821
-0.0120949149131774
-0.0107980500906705
-0.0090462379157543
-0.006994841620326
-0.0048044170252978
-0.0026201922446489
-0.0005590715445578
0.001290445216
0.0028653345070779
0.0041330405510962
0.0050954348407685
0.0057841930538415
0.0062548061832785
0.0065813045948743
0.0068461634218692
0.0071270084008574
0.0074861305765807
0.0079642469063401
0.0085772816091775
0.0093177193775773
0.0101622734218835
0.0110814776271581
0.0120440442115068
0.0130153652280569
0.0139542836695909
0.0148073211312294
0.0155019052326679
0.0159469060599803
0.0160415861755609
0.0156902577728033
0.0148216234520077
0.0134073887020349
0.0114751551300287
0.0091117536649107
0.0064555192366242
0.0036831488832831
0.0009950457606464
-0.0014041441027075
-0.0033337851054966
-0.0046675163321197
-0.005350180901587
-0.0053969006985425
-0.0048814262263476
-0.0039199204184114
-0.0026541880797594
-0.0012359170941635
0.0001893273438327
0.0014974744990468
0.0025981559883803
0.0034414981491863
0.0040168496780097
0.0043442151509225
0.0044638882391154
0.0044301315210759
0.0043057748116552
0.0041505740955471
0.0040084468200802
0.0039018760435283
0.0038352324627339
0.0038042282685637
0.0038027248810976
0.0038244414608925
0.0038649069610983
0.0039233239367604
0.0040029063820838
0.0041090156883001
0.0042429463937878
0.0043938676826655
0.0045323143713176
0.0046068974770605
0.0045447624288499
0.0042546368204057
0.0036363000981509
0.0025998163037002
0.0010889559052884
-0.0008981400169432
-0.0032967277802526
-0.005975660867989
-0.0087502319365739
-0.0114074973389506
-0.0137377819046378
-0.0155628528445959
-0.0167576074600219
-0.0172602646052837
-0.0170694924890995
-0.0162395909428596
-0.0148796029388904
-0.0131482109427452
-0.0112357353791594
-0.0093350792303681
-0.0076115503907203
-0.006182461977005
-0.0051120561547577
-0.0044156992807984
-0.0040654018521308
-0.0039969836361706
-0.0041204085573554
-0.0043317228555679
-0.0045250565744936
-0.004605209454894
-0.0044996216893196
-0.0041662608273327
-0.0035974995698779
-0.0028204889968037
-0.0018903193995356
-0.0008759142365306
0.0001539124641567
0.0011393432505428
0.002034394070506
0.0028083259239792
0.0034421244636178
0.0039196172729134
0.0042172838002443
0.0042977789416909
0.0041093910112977
0.0035930937156081
0.0026982256677001
0.001403679838404
-0.0002666376531124
-0.0022434797137975
-0.0044208662584424
-0.0066644484177231
-0.0088208075612783
-0.0107300411909818
-0.012240526266396
-0.0132258385419845
-0.0136026907712221
-0.0133444173261523
-0.0124830584973096
-0.0111010037362575
-0.0093219513073563
-0.0073009361512959
-0.0052034985274076
-0.0031782602891325
-0.0013388155493885
0.0002397089265286
0.0015164506621658
0.0024801408872008
0.0031462435144931
0.0035544754937291
0.0037642358802258
0.0038478223141282
0.0038843192160129
0.0039527500048279
0.0041196574456989
0.0044264094904065
0.0048853866755962
0.0054854210466146
0.0062030083499848
0.0070130988024175
0.0078906854614615
0.0088032940402626
0.009705901145935
0.0105452695861458
0.0112669328227639
0.0118167782202363
0.0121384747326374
0.0121725592762231
0.0118603622540831
0.0111509235575795
0.0100100943818688
0.0084335086867213
0.0064591877162456
0.0041709863580763
0.0016911691054701
-0.0008306640665978
-0.0032299542799592
-0.0053446041420102
-0.0070353345945477
-0.0082018887624144
-0.0087902210652828
-0.0087941791862249
-0.0082563888281583
-0.0072644231840968
-0.0059397728182375
-0.0044222520664334
-0.0028523043729364
-0.001356644090265
-4.025432281196117e-05
0.001021770061925
0.0017965142615139
0.0022995781619101
0.0025825502816587
0.0027074916288256
0.0027293327730149
0.0026938756927847
0.0026424196548759
0.0026144417934119
0.0026443423703312
0.0027562214527279
0.0029647275805473
0.0032792068086564
0.0037031611427664
0.0042302780784666
0.004841698333621
0.0055061369203031
0.0061855530366301
0.0068431394174695
0.0074418527074158
0.0079332087188959
0.0082521811127662
0.0083241192623972
0.008073222823441
0.0074290377087891
0.0063373981975018
0.0047785672359168
0.002786970231682
0.0004594790516421
-0.002055455232039
-0.0045821722596883
-0.0069434307515621
-0.0089784990996122
-0.0105543257668614
-0.0115719754248857
-0.0119739044457674
-0.0117588583379983
-0.0109919495880603
-0.0097941299900412
-0.0083184149116277
-0.0067263664677739
-0.0051679299212992
-0.0037661197129637
-0.002608049660921
-0.0017395704053342
-0.0011635378468781
-0.0008452291367575
-0.0007235581288114
-0.0007233812357299
-0.0007659772527404
-0.0007780079031363
-0.0007018677424639
-0.0005044190911576
-0.0001768335932865
0.0002718216273933
0.0008204997284337
0.0014401824446395
0.0020974662620574
0.0027600168250501
0.0034018200822174
0.0040045864880084
0.0045553375966846
0.0050415890291333
0.0054454775527119
0.005736974067986
0.0058704884722828
0.0057909772731363
0.0054419315420091
0.0047678560949862
0.0037216239143162
0.0022821875754743
0.0004721215518657
-0.0016357589047402
-0.0039236564189195
-0.0062398593872785
-0.0084141921252012
-0.010280542075634
-0.0117024984210729
-0.0125915259122848
-0.012911569327116
-0.0126746902242302
-0.0119321104139089
-0.0107631441205739
-0.0092710070312023
-0.0075836675241589
-0.0058442614972591
-0.0041917143389582
-0.0027428083121776
-0.0015767300501465
-0.0007241959683597
-0.0001680296845734
0.0001444914378225
0.0002855192869901
0.000334498938173
0.0003684731200337
0.000453975982964
0.0006451709195971
0.0009848591871559
0.001501209102571
0.0022003659978508
0.0030610722023993
0.0040381015278398
0.0050729294307529
0.0061048259958624
0.0070788669399917
0.0079473154619336
0.0086642215028405
0.0091790184378623
0.0094340899959206
0.0093688983470201
0.0089294984936714
0.0080795511603355
0.0068107745610177
0.0051519316621124
0.0031731720082461
0.0009803273715078
-0.0012997784651815
-0.0035349163226783
-0.0055993488058447
-0.0073800254613161
-0.0087805381044745
-0.0097306203097105
-0.0101960320025682
-0.0101799666881561
-0.0097180213779211
-0.0088709481060504
-0.0077190035954117
-0.0063589066267013
-0.0048982580192387
-0.0034432392567396
-0.0020820829086005
-0.0008758036419749
0.0001391931436955
0.0009478647261857
0.0015572006814181
0.0019949688576161
0.0023043602705001
0.0025368849746882
0.0027472516521811
0.0029910737648606
0.003321835771203
0.0037836492992937
0.0044018109329044
0.0051781251095235
0.0060934531502425
0.0071140518411993
0.0081993145868182
0.0093058478087186
0.0103824436664581
0.0113610327243804
0.0121536217629909
0.0126599194481968
0.0127814784646034
0.01243606954813
0.0115712769329547
0.0101746395230293
0.0082794371992349
0.0059677171520888
0.0033647385425865
0.00062389485538
-0.0020899237133562
-0.0046136211603879
-0.0067952265962958
-0.008506815880537
-0.0096657210960984
-0.0102487988770008
-0.0102878026664257
-0.0098562818020582
-0.0090578775852918
-0.0080135520547628
-0.006845838855952
-0.0056620496325194
-0.0045432732440531
-0.0035446970723569
-0.0026982994750142
-0.0020110360346734
-0.0014656707644462
-0.0010258355177938
-0.0006413934752345
-0.00025918148458
0.0001612454652786
0.0006424272432923
0.001197135541588
0.0018331645987927
0.0025494308210909
0.0033332968596369
0.0041644936427474
0.005021309480071
0.0058828783221542
0.0067289043217897
0.0075412085279822
0.0083040315657854
0.0089981565251946
0.0095915449783205
0.0100326212123036
0.0102478759363293
0.0101445037871599
0.0096226660534739
0.0085981814190745
0.0070275841280817
0.0049265217967331
0.0023750897962599
-0.0004918747581541
-0.0035030699800699
-0.0064717149361968
-0.0092159900814294
-0.0115733342245221
-0.0134109323844313
-0.0146387452259659
-0.015218717046082
-0.0151613792404532
-0.0145184099674224
-0.0133821759372949
-0.011883633211255
-0.0101780612021684
-0.0084229158237576
-0.0067549315281212
-0.0052716918289661
-0.0040250034071505
-0.0030274726450443
-0.0022626128047704
-0.00169074581936
-0.0012520407326519
-0.000870862044394
-0.0004657241515815
3.790855407714844e-05
0.0006999149918556
0.0015581948682665
0.0026160147972404
0.0038369190879166
0.0051570199429988
0.0065045338124036
0.0078136753290891
0.0090302499011158
0.0101141761988401
0.0110409008339047
0.0117964502424001
0.0123663190752267
0.0127253215759992
0.0128320083022117
0.0126290619373321
0.0120530389249324
0.0110516939312219
0.0095985140651464
0.0076980614103376
0.0053887465037405
0.0027490563225001
-0.000100604025647
-0.0030076592229306
-0.0058048395439982
-0.0083297919481992
-0.0104420222342014
-0.012034966610372
-0.0130443982779979
-0.0134521042928099
-0.0132839363068342
-0.0126044172793626
-0.0115086920559406
-0.0101099973544478
-0.0085265077650547
-0.0068741939030587
-0.0052618915215134
-0.0037833852693438
-0.0025069094263017
-0.0014629340730607
-0.0006385939195752
1.4015473425388336e-05
0.0005623851902782
0.0010789483785629
0.0016304589807987
0.0022715225350111
0.0030399183742702
0.0039541572332382
0.0050155646167695
0.0062149534933269
0.0075364094227552
0.0089526753872632
0.0104206055402755
0.0118831973522901
0.0132757928222417
0.0145356971770524
0.0156134907156229
0.0164780430495739
0.0171105563640594
0.0174932517111301
0.0175992101430892
0.0173875503242015
0.0168065149337053
0.0158014334738254
0.0143263097852468
0.0123601406812667
0.009920778684318
0.0070695783942937
0.0039093038067221
0.0005758558399975
-0.0027760271914303
-0.0059880623593926
-0.0089117148891091
-0.0114186126738786
-0.013409623876214
-0.0148236965760588
-0.0156427342444658
-0.0158902499824762
-0.0156250465661287
-0.014933843165636
-0.0139237744733691
-0.012709155678749
-0.0113973375409841
-0.0100846169516444
-0.00885427929461
-0.0077677424997091
-0.0068578585051
-0.0061283530667424
-0.0055544981732964
-0.0050875139422714
-0.0046656313352286
-0.0042264307849109
-0.0037151859141886
-0.0030917818658053
-0.0023364364169538
-0.0014467355795204
-0.0004282625159248
0.000709684100002
0.0019503259100019
0.0032614802476018
0.0045907460153102
0.0058722691610455
0.0070426780730485
0.0080546662211418
0.0088812932372093
0.0095135392621159
0.0099587244912981
0.0102401375770568
0.0103902928531169
0.0104392720386385
0.0104039199650287
0.0102757718414068
0.0100125651806592
0.0095448270440101
0.0087917810305953
0.0076717119663953
0.006110031157732
0.0040571615099906
0.001511612907052
-0.0014663096517324
-0.0047556064091622
-0.008187317289412
-0.0115645825862884
-0.0146863814443349
-0.0173709206283092
-0.0194763764739036
-0.020915437489748
-0.0216583497822284
-0.0217269528657197
-0.0211869273334741
-0.020141502842307
-0.0187237281352281
-0.0170835647732019
-0.0153706446290016
-0.0137149598449468
-0.0122104473412036
-0.0109063442796468
-0.0098066395148634
-0.0088781788945198
-0.008065240457654
-0.0073037622496485
-0.0065305340103805
-0.0056891269050538
-0.0047360812313854
-0.0036450244951993
-0.0024065256584435
-0.0010279875714331
0.0004656466189771
0.0020339840557426
0.0036252373829483
0.0051830350421369
0.0066570984199643
0.0080128004774451
0.0092354286462068
0.0103283058851957
0.0113063491880893
0.0121871270239353
0.0129821002483367
0.0136945154517889
0.0143241742625832
0.0148732848465442
0.0153518756851553
0.0157769490033388
0.016160475090146
0.0164957866072654
0.0167524926364421
0.0168807618319988
0.0168187469244003
0.0164956785738468
0.0158326830714941
0.0147488228976726
0.0131764374673366
0.0110812205821275
0.008476385846734
0.0054286601953208
0.0020579360425472
-0.0014719325117766
-0.0049699526280164
-0.0082417959347367
-0.0111185424029827
-0.0134775405749678
-0.0152477845549583
-0.0164061188697814
-0.0169710721820592
-0.0169950649142265
-0.0165560338646173
-0.0157517772167921
-0.0146936327219009
-0.0134948622435331
-0.0122576970607042
-0.0110624115914106
-0.0099605424329638
-0.0089737260714173
-0.0080944783985614
-0.0072921914979815
-0.0065281181596219
-0.0057688755914568
-0.0049905539490282
-0.0041760918684303
-0.0033100910950452
-0.0023761778138577
-0.0013601296814158
-0.0002566074253991
0.0009265233529731
0.0021696311887353
0.0034453608095645
0.0047231442295014
0.0059733293019235
0.0071705295704305
0.0082967905327677
0.00934015866369
0.0102893188595771
0.0111312745139002
0.011851911433041
0.0124394856393337
0.0128916781395673
0.0132182417437434
0.0134348403662443
0.0135556980967521
0.0135927926748991
0.0135587742552161
0.013466602191329
0.0133246835321187
0.0131288990378379
0.0128555716946721
0.0124607644975185
0.0118804704397916
0.0110284145921468
0.0098057221621274
0.008127206005156
0.0059468615800142
0.0032708933576941
0.0001617148518562
-0.0032635428942739
-0.0068431589752435
-0.0103909159079194
-0.0137193035334348
-0.0166582446545362
-0.0190689675509929
-0.0208552423864603
-0.021967813372612
-0.0224005710333585
-0.0221901535987854
-0.021422017365694
-0.0202266685664653
-0.0187586043030023
-0.0171683132648468
-0.0155809614807367
-0.0140887610614299
-0.0127512663602828
-0.0115955714136362
-0.0106172496452927
-0.009785795584321
-0.0090542361140251
-0.0083682183176279
-0.0076719494536519
-0.0069109830074012
-0.0060338252224028
-0.0050012394785881
-0.0038025823887437
-0.0024610098917037
-0.001020316267386
0.0004723644815385
0.0019749556668102
0.0034508015960454
0.0048676580190658
0.0061985566280782
0.0074234507046639
0.008530537597835
0.0095171043649315
0.0103882122784852
0.0111527303233742
0.0118219573050737
0.0124128395691514
0.0129446303471922
0.0134240686893463
0.0138319116085767
0.0141197554767131
0.0142138544470071
0.0140228671953082
0.0134523184970021
0.0124247660860419
0.0108987092971801
0.0088814450427889
0.0064325695857405
0.0036577796563506
0.0006961135659366
-0.0022958191111683
-0.0051579354330897
-0.0077369939535856
-0.0098988842219114
-0.0115477973595261
-0.012640856206417
-0.0131847402080893
-0.0132219651713967
-0.0128197260200977
-0.0120633179321885
-0.0110512487590312
-0.009887546300888
-0.0086704539135098
-0.0074828388169407
-0.0063869282603263
-0.0054208259098231
-0.0045964648015797
-0.0039010106120258
-0.0033014179207384
-0.002753288950771
-0.0022129458375275
-0.0016451082192361
-0.0010245603043586
-0.0003356859087944
0.0004292500670999
0.0012710890732705
0.0021830939222127
0.0031519271433353
0.0041616074740886
0.0051962425932288
0.0062388479709625
0.0072701787576079
0.0082707349210977
0.0092267971485853
0.0101371277123689
0.0110073508694767
0.0118291350081563
0.0125636756420135
0.0131429629400372
0.0134799145162105
0.0134784802794456
0.013045709580183
0.0121068637818098
0.0106224734336137
0.0086036352440714
0.0061170579865574
0.0032779471948742
0.0002372541057411
-0.0028333324007689
-0.0057569043710827
-0.008364787325263
-0.0105115184560418
-0.0120939062908291
-0.0130642922595143
-0.0134307630360126
-0.013248992152512
-0.0126093979924917
-0.0116220749914646
-0.010402251034975
-0.0090586766600608
-0.00768757564947
-0.0063682785257697
-0.0051589673385024
-0.0040967217646539
-0.0031976061873137
-0.0024522137828171
-0.0018244930543005
-0.0012625278905034
-0.000716536771506
-0.0001507890410721
0.0004567978903651
0.0011222441680729
0.0018599631730467
0.0026781223714351
0.0035723662003874
0.0045280633494257
0.0055279238149523
0.0065566468983888
0.0076005575247108
0.0086450036615133
0.0096718510612845
0.0106583926826715
0.0115794353187084
0.0124065149575471
0.0130959395319223
0.0135755380615592
0.0137473028153181
0.013504103757441
0.0127480998635292
0.0114092547446489
0.0094642611220479
0.0069498112425208
0.0039661228656768
0.0006687684217467
-0.0027493592351675
-0.006081567145884
-0.009131085127592
-0.0117268525063991
-0.0137336440384387
-0.0150658683851361
-0.0156998168677091
-0.0156742967665195
-0.0150809669867157
-0.014047784730792
-0.0127187334001064
-0.0112357670441269
-0.0097240777686238
-0.0082809114828705
-0.0069715715944767
-0.005831180140376
-0.0048674959689378
-0.0040644248947501
-0.0033879238180816
-0.0027906955219805
-0.0022126645781099
-0.0015880432911217
-0.0008641746826469
-1.4681834727525713e-05
0.0009627579711377
0.0020531346090137
0.0032291586976498
0.0044567678123712
0.005700406152755
0.0069277789443731
0.0081144627183675
0.0092462189495563
0.0103160645812749
0.0113161262124776
0.0122283045202493
0.013015897013247
0.0136187598109245
0.0139545816928148
0.013923330232501
0.013418149203062
0.0123486099764704
0.0106666339561343
0.0083827935159206
0.0055739977397024
0.0023824477102607
-0.0009991627885028
-0.0043523842468857
-0.0074604600667953
-0.0101327514275908
-0.0122202867642045
-0.0136248683556914
-0.014303820207715
-0.0142666827887296
-0.0135715417563915
-0.0123271737247705
-0.0106877023354172
-0.0088306004181504
-0.0069285640493035
-0.0051279561594128
-0.0035358425229787
-0.0022140452638268
-0.0011795796453952
-0.0004099421203136
0.0001473291777074
0.0005628052167594
0.0009156097657978
0.0012868680059909
0.0017518354579806
0.002369753550738
0.0031748842447996
0.0041706198826432
0.0053294347599148
0.0065994542092084
0.007915143854916
0.0092111593112349
0.0104343714192509
0.0115479817613959
0.0125277452170848
0.0133532620966434
0.0139980688691139
0.014420717023313
0.0145577620714902
0.0143238510936498
0.0136261340230703
0.0123892351984977
0.0105757303535938
0.0081955026835203
0.0053110201843082
0.0020402166992425
-0.0014503687852993
-0.0049631297588348
-0.0082923145964741
-0.0112474774941802
-0.0136706065386533
-0.0154461525380611
-0.0165093410760164
-0.0168501529842615
-0.0165084786713123
-0.015564908273518
-0.0141323506832122
-0.012346277013421
-0.0103539787232875
-0.0083067407831549
-0.0063497880473732
-0.0046057025901973
-0.0031572030857205
-0.0020368378609418
-0.0012287977151572
-0.0006802880670875
-0.0003145716618746
-4.353374242782593e-05
0.0002206650096923
0.0005563092418015
0.0010243171127513
0.0016626256983727
0.0024859814438968
0.0034918375313282
0.0046640727669
0.0059671099297702
0.0073407483287155
0.0087090851739048
0.0099970269948244
0.0111358165740966
0.0120536694303154
0.0126664424315094
0.0128775127232074
0.0125844292342662
0.0116932801902294
0.0101415729150176
0.00792021676898
0.005084372125566
0.0017542399000376
-0.0018899666611105
-0.0056247664615511
-0.009215104393661
-0.0124470125883817
-0.0151470098644495
-0.0171892456710338
-0.0184987504035234
-0.0190536770969629
-0.0188835579901933
-0.0180633384734392
-0.0167044959962368
-0.0149437338113784
-0.0129304220899939
-0.0108125368133187
-0.0087223025038838
-0.0067647378891706
-0.0050103715620934
-0.0034947234671562
-0.0022248211316764
-0.0011852018069475
-0.0003400901332497
0.0003642924129962
0.0009940296877175
0.0016174889169633
0.0022941571660339
0.0030667474493384
0.0039588478393852
0.0049770269542932
0.0061137685552239
0.0073503646999597
0.0086596943438053
0.0100104380398988
0.0113720828667283
0.0127092758193612
0.0139642804861068
0.0150455329567193
0.0158308148384094
0.0161796417087316
0.015952805057168
0.0150371277704834
0.0133698945865035
0.0109584797173738
0.0078905997797846
0.0043313773348927
0.0005055853980593
-0.0033312931191176
-0.0069228871725499
-0.0100364852696657
-0.0124807488173246
-0.014119085855782
-0.0148857347667217
-0.0147983208298683
-0.0139535907655954
-0.0125069199129939
-0.0106448046863079
-0.0085596162825822
-0.0064308736473321
-0.0044109178707003
-0.0026144485455006
-0.0011127134785056
6.789830513298512e-05
0.0009422897128388
0.0015591110568493
0.0019913495052605
0.0023260696325451
0.0026515359058976
0.0030413421336561
0.0035435759928077
0.004180762451142
0.0049541229382157
0.0058472175151109
0.0068313991650938
0.0078710801899433
0.0089283818379044
0.0099695939570665
0.0109670171514153
0.0118917720392346
0.0127012114971876
0.0133268209174275
0.0136728696525096
0.0136296730488538
0.0130898272618651
0.0119613539427518
0.0101856887340545
0.0077590197324752
0.0047455285675823
0.0012790542095899
-0.0024477373808622
-0.0062064905650913
-0.0097602391615509
-0.0128877982497215
-0.0154056092724204
-0.0171859767287969
-0.0181656386703252
-0.0183441787958145
-0.0177784319967031
-0.0165719054639339
-0.0148610128089785
-0.0128057915717363
-0.0105801634490489
-0.0083546824753284
-0.006278003565967
-0.0044615380465984
-0.0029674177058041
-0.0018056411063298
-0.0009409222984686
-0.0003036195703316
0.0001964985276572
0.000654550967738
0.0011559322010725
0.0017662176396697
0.0025286998134106
0.0034677744843065
0.0045896973460912
0.0058773406781256
0.0072883004322648
0.0087627060711383
0.0102353980764746
0.0116439210250973
0.0129268113523721
0.0140165193006396
0.0148353157564997
0.0152942454442381
0.0152960866689682
0.0147476019337773
0.0135769126936793
0.011747914366424
0.0092739164829254
0.0062330653890967
0.0027733515016734
-0.0009055980481207
-0.0045848595909774
-0.0080538876354694
-0.0111270621418952
-0.013653241097927
-0.015523288398981
-0.0166751146316528
-0.0170942731201648
-0.0168121922761201
-0.0159033332020044
-0.0144809540361166
-0.0126903317868709
-0.0106957461684942
-0.0086597176268696
-0.006719778291881
-0.0049742846749722
-0.0034827627241611
-0.0022718475665897
-0.001338523463346
-0.0006515262648463
-0.0001548494910821
0.000223955605179
0.0005625926423817
0.0009339965181425
0.0014006900601089
0.0020110169425606
0.0027921937871724
0.0037459768354892
0.0048527792096138
0.0060801957733929
0.0073915058746933
0.0087464191019535
0.0100899711251258
0.0113402586430311
0.0123853581026196
0.0130909848958253
0.0133153330534696
0.0129262106493115
0.0118208043277263
0.0099475001916289
0.00732431281358
0.0040493058040738
0.0002976828254759
-0.0036973659880459
-0.0076735420152544
-0.0113681871443986
-0.0145431160926818
-0.0170084200799465
-0.0186425261199474
-0.0193985812366008
-0.0192995797842741
-0.0184314046055078
-0.0169315673410892
-0.0149710504338145
-0.0127340974286198
-0.0104011707007884
-0.0081364996731281
-0.0060758995823562
-0.0043129306286573
-0.0028902683407068
-0.0018011140637099
-0.0009968165541067
-0.0003969293902628
9.5732684712857e-05
0.000575331505388
0.001116701751016
0.0017681441968306
0.0025527258403599
0.0034744089934974
0.0045234789140522
0.0056786886416375
0.0069083007983863
0.0081737041473388
0.0094362823292613
0.0106613216921687
0.0118121411651372
0.012836561538279
0.0136571172624826
0.0141743514686822
0.0142764076590538
0.0138460053130984
0.0127740716561675
0.0109871039167046
0.0084757069125771
0.0053112711757421
0.0016463610809296
-0.0023013898171484
-0.0062762275338172
-0.0100147984921932
-0.0132747609168291
-0.0158578287810087
-0.0176261272281408
-0.0185122229158878
-0.0185233857482671
-0.017735831439495
-0.0162779483944177
-0.0143143534660339
-0.0120337242260575
-0.009629676118493
-0.0072766216471791
-0.0051115229725837
-0.003224728628993
-0.0016585490666329
-0.000409334199503
0.0005677225999534
0.0013471283018589
0.0020172051154077
0.0026649106293916
0.0033653043210506
0.0041778110899031
0.0051446123979985
0.0062860716134309
0.0075960289686918
0.0090416008606553
0.0105682788416743
0.0121097648516297
0.0135978814214468
0.0149676762521266
0.0161596722900867
0.017116567119956
0.0177704263478517
0.0180324018001556
0.0177974049001932
0.0169616974890232
0.0154461460188031
0.0132196573540568
0.0103191062808036
0.0068570743314921
0.0030096974223852
-0.0010080325882881
-0.0049667134881019
-0.0086428606882691
-0.0118365036323666
-0.0143858082592487
-0.0161774586886167
-0.0171528104692697
-0.0173123963177204
-0.0167184099555015
-0.0154878087341785
-0.013774961233139
-0.0117518464103341
-0.0095876520499587
-0.0074282521381974
-0.0053865863010287
-0.003547545755282
-0.0019713060464709
-0.0006866648327559
0.0003148869145661
0.0010773639660328
0.0016711964271962
0.0021788328886032
0.0026818588376045
0.0032515130005776
0.0039399825036525
0.0047767404466867
0.0057715158909559
0.0069186799228191
0.0082010263577103
0.0095923952758312
0.011055557988584
0.0125354286283254
0.0139536261558532
0.0152081456035375
0.0161784552037715
0.0167332328855991
0.0167382415384054
0.0160686671733856
0.0146292885765433
0.0123791694641113
0.0093533508479595
0.0056712259538471
0.0015262789092957
-0.0028381634037941
-0.0071553676389157
-0.0111567080020904
-0.0145959192886948
-0.0172779969871044
-0.0190789271146059
-0.0199524145573377
-0.0199292954057455
-0.01910837367177
-0.0176402702927589
-0.0157100167125463
-0.0135175073519349
-0.0112543562427163
-0.0090824887156486
-0.0071213785558938
-0.0054427087306976
-0.0040686926804482
-0.0029757260344922
-0.0021029841154813
-0.0013659584801644
-0.0006754859350621
4.579010419547558e-05
0.0008555504027754
0.0017903816187754
0.0028677117079496
0.0040875896811485
0.0054336050525307
0.006875951308757
0.0083778891712427
0.0099017731845378
0.0114107728004455
0.0128668453544378
0.014224880374968
0.015426049940288
0.0163948610424995
0.0170351229608058
0.0172245483845472
0.0168219394981861
0.0156939215958118
0.0137499952688813
0.010972823947668
0.0074379839934408
0.0033157817088067
-0.0011491794139146
-0.0056716348044574
-0.0099604129791259
-0.0137484520673751
-0.0168171003460884
-0.0190146435052156
-0.0202643182128667
-0.0205605514347553
-0.0199647694826126
-0.0186047870665788
-0.0166645105928182
-0.0143594536930322
-0.0119088245555758
-0.0095106055960059
-0.0073212925344705
-0.0054434593766927
-0.0039226855151355
-0.0027528523933142
-0.0018846406601369
-0.0012348934542387
-0.0007005236111581
-0.0001751178642734
0.0004371383693069
0.0012111525284126
0.0021933249663561
0.0033974405378103
0.0048049138858914
0.0063693048432469
0.0080265523865818
0.009708140976727
0.011349257081747
0.0128907402977347
0.0142777068540453
0.0154537772759795
0.0163517426699399
0.0168847776949405
0.0169429760426282
0.0164034441113472
0.0151566201820969
0.0131365777924656
0.0103404801338911
0.0068346094340085
0.0027537844143807
-0.0017036800272762
-0.0062901182100176
-0.0107327289879322
-0.0147618763148784
-0.0181363932788372
-0.0206645783036947
-0.0222237464040517
-0.0227761641144752
-0.022372581064701
-0.0211389977484941
-0.0192539095878601
-0.0169236380606889
-0.0143554145470261
-0.0117349680513143
-0.0092198550701141
-0.0069393799640238
-0.0049869059585034
-0.0034094450529664
-0.002202374394983
-0.0013119550421833
-0.0006471711676567
-9.689503349363804e-05
0.0004534469917416
0.0011083076242357
0.0019502986688166
0.0030303737148642
0.0043651456944644
0.0059420550242066
0.0077269729226827
0.0096711507067084
0.0117146233096718
0.0137835526838898
0.0157866273075342
0.0176164079457521
0.0191518440842628
0.0202587712556123
0.0207943376153707
0.0206200517714023
0.0196232665330171
0.0177419483661651
0.0149835869669914
0.0114354146644473
0.0072644194588065
0.0027053258381783
-0.0019596095662564
-0.0064307269640266
-0.0104299494996666
-0.0137323047965765
-0.0161813292652368
-0.0176949687302112
-0.0182645190507173
-0.0179466605186462
-0.0168527271598577
-0.0151361152529716
-0.0129781244322657
-0.0105741033330559
-0.0081181591376662
-0.0057845283299684
-0.0037093800492584
-0.0019773608073592
-0.0006128252716735
0.000418885028921
0.0011936883674934
0.0018038279376924
0.0023400969803333
0.0028836284764111
0.0035012473817914
0.0042416062206029
0.0051330002024769
0.0061814538203179
0.0073718084022402
0.0086743608117103
0.0100500704720616
0.0114523125812411
0.0128295747563242
0.0141283897683024
