bvp
0.0131838815286755
0.0098089016973972
0.0058917505666613
0.0016129887662827
-0.0028046569786965
-0.0071253585629165
-0.0111272148787975
-0.0146225411444902
-0.0174726992845535
-0.0195972323417663
-0.0209740083664655
-0.0216331258416175
-0.0216495506465435
-0.0211315900087356
-0.0202075615525245
-0.0190204717218875
-0.0177244041115045
-0.0164684224873781
-0.0153731908649206
-0.0145136453211307
-0.01391142886132
-0.013537747785449
-0.0133264753967523
-0.0131909567862749
-0.0130383782088756
-0.012781829573214
-0.0123494323343038
-0.0116888955235481
-0.0107678044587373
-0.0095704980194568
-0.0080982781946659
-0.0063780294731259
-0.0044684330932796
-0.0024511190131306
-0.0004116711206734
0.0015716711059212
0.0034236432984471
0.0050638001412153
0.0064040645956993
0.0073481416329741
0.0077950451523065
0.0076544107869267
0.0068678269162774
0.0054257255978882
0.00337929232046
0.0008462860714644
-0.0019977167248725
-0.0049436260014772
-0.0077770091593265
-0.0103001026436686
-0.0123454863205552
-0.0137853631749749
-0.0145418932661414
-0.014597101137042
-0.0139942346140742
-0.0128266476094722
-0.0112215261906385
-0.0093257166445255
-0.0072911577299237
-0.0052575673907995
-0.0033342789392918
-0.0015853906515985
-2.931826747953892e-05
0.001344968797639
0.00256201880984
0.0036562522873282
0.0046730432659387
0.0056626447476446
0.0066699935123324
0.007730470970273
0.0088691860437393
0.0100982906296849
0.0114162601530551
0.0128104127943515
0.0142567977309226
0.0157188437879085
0.0171541571617126
0.0185278076678514
0.0198159366846084
0.0209912303835153
0.0220027044415473
0.0227668154984712
0.0231724344193935
0.0230931732803583
0.0224056523293256
0.0210147816687822
0.0188800562173128
0.0160324443131685
0.0125778587535023
0.0086887087672948
0.0045837583020329
0.0005006319843232
-0.0033298349007964
-0.0067029860801994
-0.0094573386013507
-0.0114914728328585
-0.0127751259133219
-0.0133488029241561
-0.013311649672687
-0.0128031922504305
-0.0119858169928193
-0.0110285263508558
-0.0100881261751055
-0.0092885103076696
-0.0087077105417847
-0.0083776023238897
-0.0082869278267025
-0.0083828810602426
-0.0085774157196283
-0.0087603293359279
-0.0088185388594865
-0.008658361621201
-0.0082204770296812
-0.0074825608171522
-0.0064526293426752
-0.005159203428775
-0.0036454033106565
-0.0019663008861243
-0.0001842058263719
0.0016363314352929
0.0034276640508323
0.0051133022643625
0.0066035343334078
0.0077940924093127
0.0085692796856164
0.0088145285844802
0.0084348917007446
0.0073695173487067
0.0056035192683339
0.0031817718409001
0.0002164207398891
-0.00311945611611
-0.0066087562590837
-0.0100122448056936
-0.0130922980606555
-0.0156356170773506
-0.0174721479415893
-0.0184910781681537
-0.0186535101383924
-0.0179948136210441
-0.0166113581508398
-0.0146382357925176
-0.0122329657897353
-0.0095691299065947
-0.0068266075104475
-0.0041704075410962
-0.0017283222405239
0.0004202952841296
0.0022446976508945
0.0037578586488962
0.0050089284777641
0.0060725565999746
0.0070345075801014
0.0079752802848815
0.0089576840400695
0.0100216791033744
0.011184575036168
0.0124456752091646
0.0137902591377496
0.0151875624433159
0.0165909100323915
0.017946396023035
0.0192004796117544
0.0202980022877454
0.0211754646152257
0.0217568427324295
0.0219526086002588
0.0216642376035451
0.0207997672259807
0.0192953795194625
0.0171315781772136
0.0143427606672048
0.0110244965180754
0.0073339799419045
0.0034741559065878
-0.000335179734975
-0.0038845832459628
-0.0069939880631864
-0.0095264911651611
-0.0113956853747367
-0.012563987635076
-0.0130390357226133
-0.0128744896501302
-0.0121689401566982
-0.011056981049478
-0.0096950698643922
-0.0082455929368734
-0.0068598226644098
-0.0056583629921078
-0.0047127972356975
-0.0040407408960163
-0.0036173118278384
-0.0033905552700161
-0.0032922779209911
-0.0032462119124829
-0.0031761093996465
-0.0030132601968944
-0.0027016578242182
-0.0022015669383108
-0.0014950800687074
-0.0005914103239774
0.0004763239994645
0.0016622226685285
0.002917667850852
0.0041967434808611
0.0054556094110012
0.0066407267004251
0.0076700123026967
0.0084239086136221
0.0087579172104597
0.0085310712456703
0.0076348176226019
0.0060146152973175
0.0036881966516375
0.0007575005292892
-0.0025983238592743
-0.0061507024802267
-0.0096565317362546
-0.0128872953355312
-0.0156500916928052
-0.0178012177348136
-0.0192520320415496
-0.0199738666415214
-0.020004978403449
-0.0194477681070566
-0.01845183968544
-0.0171904154121875
-0.0158339403569698
-0.014527203515172
-0.013376509770751
-0.0124437706544995
-0.0117446575313806
-0.0112527459859848
-0.0109097827225923
-0.0106385499238967
-0.0103548197075724
-0.00997712649405
-0.009434463456273
-0.0086758248507976
-0.0076813520863652
-0.0064648995175957
-0.0050652944482862
-0.0035351957194507
-0.0019329134374856
-0.0003161013883072
0.0012636731844395
0.0027619628235697
0.0041343485936522
0.0053244824521243
0.0062566492706537
0.0068390499800443
0.0069740656763315
0.0065725860185921
0.00557446712628
0.0039675799198448
0.0017965952865779
-0.0008352345321327
-0.0037713139317929
-0.0068170395679771
-0.0097582172602415
-0.0123782698065042
-0.0144795812666416
-0.0159069262444973
-0.0165637135505676
-0.0164204575121402
-0.0155162513256073
-0.013948674313724
-0.0118562271818518
-0.0094002950936555
-0.0067446371540427
-0.0040363315492868
-0.0013972194865345
0.0010780002921819
0.0033235270529985
0.0053054359741508
0.0070253694429993
0.0085175167769193
0.0098363002762198
0.01104371342808
0.0121996942907571
0.0133546758443117
0.0145465834066271
0.0157976057380437
0.0171077437698841
0.0184556394815444
0.0198096986860036
0.0211343728005886
0.0223837308585643
0.0234941430389881
0.0243851020932197
0.0249614343047142
0.0251133535057306
0.0247236490249633
0.023686546832323
0.0219317246228456
0.0194456428289413
0.0162830352783203
0.0125677213072776
0.0084864953532814
0.0042726518586277
0.0001796935684978
-0.0035457550548017
-0.0066913026385009
-0.0091058742254972
-0.010714640840888
-0.0115159871056675
-0.0115678906440734
-0.010973272845149
-0.0098689161241054
-0.0084139360114932
-0.0067736851051449
-0.0051027322188019
-0.0035293344408273
-0.0021422123536467
-0.0009856792166829
-6.558280438184738e-05
0.0006430009379982
0.0011924542486667
0.001655482687056
0.0021085147745907
0.0026133735664188
0.0032059662044048
0.0038960995152592
0.0046768197789788
0.0055334838107228
0.0064464602619409
0.0073913186788558
0.0083393892273306
0.0092576965689659
0.0101076206192374
0.0108401533216238
0.0113884340971708
0.0116664031520485
0.0115793999284505
0.0110391080379486
0.0099747367203235
0.0083467904478311
0.006167849060148
0.0035155566874891
0.0005268639652058
-0.0026170292403548
-0.0057084569707512
-0.0085366405546665
-0.0109113845974206
-0.0126814637333154
-0.0137502755969762
-0.01408651471138
-0.0137229589745402
-0.0127427456900477
-0.0112608652561903
-0.0094117680564522
-0.0073442501015961
-0.0052120513282716
-0.00315498909913
-0.0012811918277293
0.0003409474156796
0.0016838808078318
0.0027577478904277
0.0036038160324096
0.0042879963293671
0.0048913620412349
0.0054929563775658
0.0061542447656393
0.0069159120321273
0.0078025534749031
0.0088252937421202
0.0099775986745953
0.0112267192453145
0.012510466389358
0.0137454494833946
0.0148396724835038
0.0156982373446226
0.0162227749824523
0.0163135938346385
0.0158772431313991
0.014838577248156
0.0131574692204594
0.0108456443995237
0.0079751256853342
0.0046743801794946
0.0011182711459696
-0.0024836948141455
-0.0059071984142065
-0.008942948654294
-0.0114256860688328
-0.0132501013576984
-0.0143710393458604
-0.0147977015003561
-0.0145892146974802
-0.0138471461832523
-0.0127012692391872
-0.0112929139286279
-0.0097621399909257
-0.0082374038174748
-0.0068235853686928
-0.0055920649319887
-0.0045768851414322
-0.0037757325917482
-0.0031557907350361
-0.0026651262305676
-0.0022452287375926
-0.0018398058600723
-0.0013992767781019
-0.0008819755166769
-0.0002560894936323
0.0004935851320624
0.0013596080243587
0.0023151896893978
0.0033232178539037
0.0043401326984167
0.0053130108863115
0.0061759958043694
0.0068496176972985
0.0072436155751347
0.0072616320103406
0.00680738594383
0.0057967295870184
0.0041767517104744
0.0019462313503026
-0.0008297553285956
-0.0040170541033148
-0.007423875387758
-0.0108252968639135
-0.013994543813169
-0.0167306885123252
-0.0188778638839721
-0.0203345958143472
-0.021053247153759
-0.0210348963737487
-0.020324757322669
-0.0190103277564048
-0.0172196608036756
-0.0151113364845514
-0.0128528196364641
-0.0105955200269818
-0.0084578543901443
-0.0065192547626793
-0.0048202988691627
-0.0033654836006462
-0.0021302592940628
-0.0010724538005888
-0.0001422143541276
0.0007121199741959
0.001536822412163
0.0023648510687053
0.0032154791988432
0.0040977303870022
0.0050080358050763
0.0059274812228977
0.0068254494108259
0.0076659983024001
0.0084124859422445
0.0090257730334997
0.0094546470791101
0.0096276551485061
0.0094561595469713
0.0088480962440371
0.0077269119210541
0.0060512963682413
0.0038307341746985
0.0011324454098939
-0.0019215391948819
-0.0051682880148291
-0.0084258317947387
-0.0115110706537961
-0.014250879175961
-0.0164962206035852
-0.0181379225105047
-0.0191142633557319
-0.0194115657359361
-0.0190633982419967
-0.0181463751941919
-0.0167694594711065
-0.0150598101317882
-0.0131520545110106
-0.011180143803358
-0.0092625115066766
-0.0074823210015892
-0.0058781476691365
-0.0044525475241243
-0.0031879872549325
-0.0020567846950143
-0.0010233581997454
-4.55775298178196e-05
0.0009196298196911
0.0019110538996756
0.002964193932712
0.0041122790426015
0.00538045540452
0.0067789405584335
0.0083019062876701
0.0099276406690478
0.0116166975349187
0.0133121870458126
0.014938835054636
0.0163969472050666
0.0175608973950147
0.0182908214628696
0.0184571556746959
0.0179715044796466
0.0168102737516164
0.0150221586227417
0.0127226635813713
0.0100803887471556
0.0072964765131473
0.0045798067003488
0.0021232906728982
8.53880774229765e-05
-0.0014214895199984
-0.0023359069600701
-0.0026507845614105
-0.0024168479721993
-0.0017374688759446
-0.0007509726565331
0.000392789253965
0.0015540891326963
0.002618906321004
0.0035062336828559
0.004169400781393
0.0045961253345012
0.0048053334467113
0.0048374542966485
0.0047437353059649
0.0045812372118234
0.0044118738733232
0.0042999647557735
0.0043036346323788
0.0044606821611523
0.0047797593288123
0.005243104416877
0.0058136144652962
0.0064430311322212
0.0070817475207149
0.0076827318407595
0.0081962253898382
0.0085621429607272
0.0087045757099986
0.0085298828780651
0.0079334937036037
0.0068190270103514
0.005127228796482
0.0028640690725296
0.0001096853520721
-0.002997976494953
-0.0062882015481591
-0.0095772668719291
-0.01268454734236
-0.0154468733817338
-0.0177297927439212
-0.0194362346082925
-0.0205131471157073
-0.0209556631743907
-0.020807422697544
-0.0201559402048587
-0.019120555371046
-0.0178317129611969
-0.0164085235446691
-0.0149442190304398
-0.0135040674358606
-0.0121322311460971
-0.0108576146885752
-0.0096941869705915
-0.0086395535618066
-0.0076743718236684
-0.006762811448425
-0.0058555076830089
-0.0048967730253934
-0.003835279494524
-0.002633633557707
-0.001273559872061
0.0002430640161037
0.0018969681113958
0.0036570476368069
0.0054855365306138
0.0073357243090868
0.0091394139453768
0.0107961520552635
0.0121762193739414
0.0131363160908222
0.0135435769334435
0.0133044756948947
0.0123898554593324
0.0108448825776577
0.008783433586359
0.0063738422468304
0.0038179650437086
0.0013271095231175
-0.0008996585384011
-0.0026947120204567
-0.0039360271766781
-0.0045562721788883
-0.0045513799414038
-0.0039799818769097
-0.0029467344284057
-0.0015826215967535
-3.0982308089733124e-05
0.0015663718804717
0.0030843783169984
0.0044260430149734
0.0055279340595006
0.0063617192208766
0.0069334497675299
0.0072803990915417
0.007463882677257
0.0075586084276437
0.0076428009197115
0.0077887661755084
0.0080499136820435
0.008449682034552
0.0089792720973491
0.0096047315746545
0.010282102972269
0.010970483534038
0.0116333030164241
0.0122342109680175
0.0127342268824577
0.0130854435265064
0.0132219232618808
0.0130603965371847
0.0125162675976753
0.0115256235003471
0.010062918998301
0.0081469900906085
0.0058349901810288
0.0032161355484277
0.0004113246686756
-0.00242984527722
-0.005141775123775
-0.0075631975196301
-0.0095582334324717
-0.0110308192670345
-0.0119307786226272
-0.0122552150860428
-0.012044733390212
-0.0113750314339995
-0.0103483749553561
-0.0090807769447565
-0.0076818703673779
-0.006240680348128
-0.004826839081943
-0.0034948110114783
-0.0022793549578636
-0.0011903641279786
-0.000216415268369
0.0006679331418126
0.0014981301501393
0.002314661629498
0.003152712713927
0.0040342253632843
0.0049675144255161
0.0059496806934475
0.0069685392081737
0.0080050015822052
0.0090368622913956
0.0100385826081037
0.0109719410538673
0.0117748584598302
0.012357716448605
0.0126099865883588
0.0124180102720856
0.0116887316107749
0.0103693613782525
0.0084591452032327
0.006013911217451
0.0031428625807166
-1.644715666770935e-06
-0.0032389729749411
-0.0063762948848307
-0.0092240301892161
-0.0116135915741324
-0.0134190078824758
-0.0145767126232385
-0.0150939058512449
-0.0150391096249222
-0.0145190805196762
-0.0136553756892681
-0.0125702982768416
-0.0113800484687089
-0.0101873371750116
-0.0090728467330336
-0.0080901198089122
-0.0072628408670425
-0.0065832138061523
-0.0060167582705616
-0.0055137444287538
-0.0050198431126773
-0.0044850651174783
-0.0038731980603188
-0.0031659142114222
-0.0023592689540237
-0.0014605387113988
-0.0004867513198405
0.0005403258837759
0.0015982370823621
0.0026620572898536
0.0037012018729001
0.0046748742461204
0.0055244639515876
0.0061709485016763
0.0065248534083366
0.0065053272992372
0.0060579567216336
0.0051629184745252
0.0038342475891113
0.0021170252002775
8.771196007728577e-05
-0.0021419231779873
-0.0044251237995922
-0.0065944250673055
-0.0084856990724802
-0.0099589694291353
-0.0109137659892439
-0.0113024059683084
-0.0111335227265954
-0.01045972853899
-0.0093605630099773
-0.007932455278933
-0.006283601745963
-0.0045282673090696
-0.002779119182378
-0.0011390229919925
0.0003071782412007
0.0015029972419142
0.0024295486509799
0.0031063710339367
0.0035827697720378
0.003924214746803
0.0041988962329924
0.0044695702381432
0.0047907275147736
0.0052037057466804
0.00572992535308
0.0063738031312823
0.007133750244975
0.0080022336915135
0.0089511508122086
0.0099219745025038
0.0108309797942638
0.0115793338045477
0.0120589127764105
0.0121586099267005
0.011780459433794
0.0108626997098326
0.0093953972682356
0.0074227950535714
0.0050392155535519
0.0023809801787137
-0.0003873580135405
-0.0030871650669723
-0.0055392463691532
-0.0075861532241106
-0.0091191995888948
-0.0100902430713176
-0.010505536571145
-0.0104166362434625
-0.0099116237834095
-0.0091012921184301
-0.0081042777746915
-0.0070358617231249
-0.0059964838437736
-0.0050610252656042
-0.0042762313969433
-0.0036620639730244
-0.0032093618065118
-0.0028805271722376
-0.0026191268116235
-0.0023637479171156
-0.0020630951039493
-0.0016870461404323
-0.0012259148061275
-0.0006821658462285
-6.416463293135166e-05
0.0006163665093481
0.001344446092844
0.0020997966639697
0.002855286700651
0.0035761715844273
0.004215647932142
0.0047090896405279
0.0049763759598135
0.0049342163838446
0.0045122480951249
0.0036646872758865
0.0023753498680889
0.0006618821062147
-0.0014193847309798
-0.0037712624762207
-0.0062594269402325
-0.0087259970605373
-0.0110099874436855
-0.0129655301570892
-0.0144756650552153
-0.0154625568538904
-0.0158916879445314
-0.0157709829509258
-0.0151475202292203
-0.0141000710427761
-0.0127268442884087
-0.011135920882225
-0.0094426106661558
-0.007764643523842
-0.0062089879065752
-0.0048576276749372
-0.0037584311794489
-0.0029202997684478
-0.0023142693098634
-0.0018818085081875
-0.0015461316797882
-0.0012246137484908
-0.0008417074568569
-0.0003386600874364
0.0003216010518372
0.0011534770019352
0.0021500170696526
0.003283503698185
0.0045033581554889
0.005734990350902
0.0068847551010549
0.0078490506857633
0.0085226790979504
0.0088058998808264
0.0086145028471946
0.0078967083245515
0.0066501875407993
0.0049296203069388
0.0028449241071939
0.0005502835847437
-0.00177699374035
-0.0039574620313942
-0.0058223903179168
-0.0072278925217688
-0.0080745304003357
-0.0083200326189398
-0.0079797897487878
-0.0071189869195222
-0.0058382991701364
-0.0042586792260408
-0.0025100233033299
-0.0007190201431512
0.0010055117309093
0.0025825472548604
0.0039620748721063
0.0051246676594018
0.0060778916813433
0.0068522775545716
0.0074982880614697
0.0080773998051881
0.0086449654772877
0.0092371851205825
0.0098701808601617
0.0105445822700858
0.0112512717023491
0.0119772553443908
0.012707675807178
0.0134266819804906
0.0141197592020034
0.0147695057094097
0.015342915430665
0.0157820284366607
0.0160055831074714
0.0159201137721538
0.0154381077736616
0.0144950579851865
0.0130578586831688
0.0111318714916706
0.0087711075320839
0.006080952938646
0.0032079117372632
0.0003228774294257
-0.0023968471214175
-0.0047863749787211
-0.0067106271162629
-0.0080749727785587
-0.0088292080909013
-0.0089717889204621
-0.0085531193763017
-0.0076678409241139
-0.0064360275864601
-0.004985908512026
-0.0034466446377336
-0.0019446187652647
-0.0005906191654503
0.0005415463820099
0.0014281524345278
0.002089041750878
0.0025705071166157
0.0029313848353922
0.003234370611608
0.0035392043646425
0.0038965628482401
0.0043420810252428
0.0048930319026112
0.0055516432039439
0.0063122692517936
0.007162389345467
0.008072692900896
0.0089863734319806
0.0098199360072612
0.0104748709127306
0.0108503196388483
0.0108495838940143
0.0103851286694407
0.0093913823366165
0.007841957733035
0.0057611404918134
0.0032280154991894
0.0003744303248822
-0.0026260851882398
-0.0055778860114514
-0.0082841450348496
-0.0105671714991331
-0.0122911632061004
-0.0133810425177216
-0.0138287395238876
-0.0136868869885802
-0.0130524542182683
-0.0120465531945228
-0.0107989022508263
-0.0094365570694208
-0.0080713462084531
-0.0067872842773795
-0.005634132772684
-0.0046288277953863
-0.0037620689254254
-0.0030060466378927
-0.0023204118479043
-0.0016595567576587
-0.0009839554550126
-0.0002688230015337
0.0004967134445905
0.001315499190241
0.0021854129154235
0.0031006506178528
0.004053852520883
0.0050353407859802
0.0060303616337478
0.0070182532072067
0.0079676192253828
0.0088247908279299
0.009507542476058
0.009912678040564
0.0099329240620136
0.0094733284786343
0.0084634823724627
0.0068720066919922
0.0047236280515789
0.0021078810095787
-0.0008272919803857
-0.0038943227846175
-0.0068896845914423
-0.0096160285174846
-0.0119012184441089
-0.0136147681623697
-0.0146807795390486
-0.0150839611887931
-0.0148663502186536
-0.0141155328601598
-0.0129467649385333
-0.0114878332242369
-0.0098718125373125
-0.0082271769642829
-0.0066633848473429
-0.0052629150450229
-0.0040776547975838
-0.0031253360211849
-0.0023911749012768
-0.0018351865001022
-0.0014025319833308
-0.0010359934531152
-0.0006862999871373
-0.0003157574683427
0.0001030249986797
0.0005905928555876
0.0011656307615339
0.0018441386055201
0.0026277969591319
0.0034931858535856
0.0043916702270507
0.0052520069293677
0.0059802634641528
0.0064651258289813
0.0065916660241782
0.0062571950256824
0.0053875213488936
0.0039543295279145
0.0019866479560732
-0.0004300847649574
-0.0031633519101887
-0.0060431687161326
-0.0088722547516226
-0.0114470301195979
-0.0135896485298872
-0.0151737071573734
-0.0161334127187728
-0.0164608769118785
-0.0161970555782318
-0.0154199358075857
-0.0142325945198535
-0.0127530340105295
-0.0111059779301285
-0.0094126444309949
-0.0077778096310794
-0.0062792897224426
-0.0049622650258243
-0.003835794981569
-0.0028726290911436
-0.0020213993266224
-0.0012302254326641
-0.0004628398455679
0.0003040055744349
0.0010899689514189
0.0019123849924653
0.0027830605395138
0.0037094792351126
0.0046960855834186
0.0057405643165111
0.0068290494382381
0.0079317716881632
0.0089963227510452
0.009942346252501
0.0106659363955259
0.0110548269003629
0.0110043520107865
0.0104284696280956
0.009273799136281
0.0075372951105237
0.0052763526327908
0.0026072144974023
-0.0003060367889702
-0.0032690428197383
-0.006075934972614
-0.008529377169907
-0.0104649160057306
-0.0117723261937499
-0.0124037582427263
-0.0123694539070129
-0.0117286853492259
-0.010577717795968
-0.0090356767177581
-0.007235299795866
-0.0053165089339017
-0.0034135365858674
-0.0016368301585316
-5.960743874311447e-05
0.0012840088456869
0.0023936545476317
0.0032976330257952
0.0040457379072904
0.0046974415890872
0.0053111100569367
0.0059377769939601
0.0066169612109661
0.007375291083008
0.0082294512540102
0.0091864354908466
0.0102371498942375
0.011351772584021
0.0124801835045218
0.0135521125048398
0.0144788865000009
0.015159404836595
0.0154866073280572
0.0153568405658006
0.0146885272115468
0.0134428571909666
0.0116342082619667
0.0093327034264802
0.0066627878695726
0.0037942400667816
0.0009267339482903
-0.0017328020185232
-0.0040013077668845
-0.0057458765804767
-0.0068929018452763
-0.0074252472259104
-0.007377368863672
-0.0068292263895273
-0.0058944001793861
-0.0047045852988958
-0.0033951308578252
-0.0020896978676319
-0.000885160639882
0.0001551993191242
0.0010000532492995
0.0016495143063366
0.0021372511982917
0.0025234878994524
0.0028764079324901
0.0032577314414083
0.0037187384441494
0.0042982390150427
0.005021708086133
0.00590146984905
0.0069322856143116
0.008087552152574
0.0093248318880796
0.0105945486575365
0.0118422964587807
0.0130065940320491
0.0140144806355237
0.0147760845720767
0.0151855880394577
0.0151303615421056
0.0145040517672896
0.0132245700806379
0.0112570319324731
0.0086345672607421
0.0054654721170663
0.0019219088135287
-0.0017809343989938
-0.0054056639783084
-0.0087128458544611
-0.0114846983924508
-0.0135518191382288
-0.0148135358467698
-0.0152460969984531
-0.0149005409330129
-0.0138902915641665
-0.0123728085309267
-0.0105332043021917
-0.0085669755935668
-0.0066579766571521
-0.0049561820924282
-0.0035617013927549
-0.0025189199950546
-0.0018173197750002
-0.0013980051735416
-0.0011702680494636
-0.0010314130922779
-0.00088147475617
-0.0006353549542836
-0.0002319199702469
0.0003648714045993
0.0011709879618138
0.0021835416555404
0.0033741148654371
0.0046848249621689
0.0060324752703309
0.0073148803785443
0.0084191085770726
0.0092305094003677
0.0096366107463836
0.009531645104289
0.0088299438357353
0.0074822837486863
0.0054889866150915
0.0029107551090419
-0.0001283888705074
-0.003451173659414
-0.0068434146232903
-0.0100752338767051
-0.012930485419929
-0.0152339581400156
-0.0168655812740325
-0.017765263095498
-0.0179338715970516
-0.0174280609935522
-0.0163474399596452
-0.0148211400955915
-0.0129987262189388
-0.0110391089692711
-0.0090925255790352
-0.0072827786207199
-0.0056975004263222
-0.0043825223110616
-0.0033360903616994
-0.0025124601088464
-0.0018409901531413
-0.0012486124178394
-0.0006719778175465
-5.895481444895268e-05
0.0006315679056569
0.0014273496344685
0.002342025283724
0.0033771099988371
0.0045226728543639
0.0057580065913498
0.0070557468570768
0.0083815604448318
0.0096829999238252
0.0108791915699839
0.0118630863726139
0.012510547414422
0.0126904211938381
0.0122806653380393
0.0111921587958931
0.009395083412528
0.0069383564405143
0.0039509376510977
0.0006268769502639
-0.00279655540362
-0.0060669379308819
-0.0089494083076715
-0.0112532209604978
-0.0128460181877017
-0.0136598953977227
-0.0136914467439055
-0.0129950605332851
-0.0116756344214081
-0.009883876889944
-0.0078035942278802
-0.0056262370198965
-0.0035251153167337
-0.0016382350586354
-5.663902265951037e-05
0.0011838455684483
0.0021022050641477
0.0027603672351688
0.0032484838739037
0.0036726838443428
0.0041384329088032
0.0047312323004007
0.0055070226080715
0.006491950713098
0.0076811295002698
0.0090360827744007
0.0104897422716021
0.0119612347334623
0.0133701907470822
0.0146408444270491
0.0156969297677278
0.0164540242403745
0.0168151259422302
0.0166737381368875
0.01592886634171
0.0145090324804186
0.012393545359373
0.0096257757395505
0.0063210097141563
0.002665517386049
-0.0011036065407097
-0.0047363471239805
-0.008005691692233
-0.0107289925217628
-0.0127792954444885
-0.0140916472300887
-0.0146658662706613
-0.0145640205591917
-0.0138970827683806
-0.0128043796867132
-0.0114377774298191
-0.0099515542387962
-0.0084888692945241
-0.0071644093841314
-0.0060519925318658
-0.0051815193146467
-0.0045444071292877
-0.0041043390519917
-0.0038083235267549
-0.0035959461238235
-0.0034062913618981
-0.0031810116488486
-0.0028665391728281
-0.0024206447415053
-0.0018201749771833
-0.001062294235453
-0.0001600023824721
0.0008604864124208
0.0019575248006731
0.0030715966131538
0.0041271736845374
0.0050359172746539
0.0056953420862555
0.0059859314933419
0.0057788551785051
0.0049588228575885
0.0034531913697719
0.0012572016566991
-0.0015529764350503
-0.0048239645548164
-0.0083419568836689
-0.0118584651499986
-0.0151205714792013
-0.017896955832839
-0.0199966505169868
-0.0212850216776132
-0.0216966420412063
-0.0212390162050724
-0.0199898034334182
-0.0180930290371179
-0.0157454032450914
-0.0131661323830485
-0.0105641838163137
-0.0081166718155145
-0.0059547945857048
-0.0041523333638906
-0.0027217203751206
-0.0016220491379499
-0.0007745516486465
-7.933424785733223e-05
0.0005672662518918
0.0012565865181386
0.0020595048554241
0.0030274083837866
0.004191611893475
0.0055535808205604
0.0070760836824774
0.0086885262280702
0.0103043336421251
0.0118360547348856
0.0131980339065194
0.0143015403300523
0.0150529323145747
0.0153567092493176
0.0151207763701677
0.0142662981525063
0.0127451252192258
0.010561354458332
0.0077886627987027
0.0045758690685033
0.0011350335553288
-0.0022866544313728
-0.0054396758787333
-0.0081014353781938
-0.0100991912186145
-0.0113229919224977
-0.0117302918806672
-0.0113466251641511
-0.0102602932602167
-0.0086079929023981
-0.0065559707581996
-0.0042814249172806
-0.0019531035795807
0.0002863891422748
0.0023324182257056
0.0041254605166614
0.0056502451188862
0.0069243665784597
0.0079872263595461
0.0088940961286425
0.0097077116370201
0.0104898400604724
0.0112985987216234
0.0121856955811381
0.0131897535175085
0.0143305594101548
0.0156085928902029
0.0170071516185998
0.0184918008744716
0.0200098566710948
0.0214933715760707
0.0228582806885242
0.0239946078509092
0.0247586332261562
0.0249831657856702
0.0245080888271331
0.0232162941247224
0.0210608784109354
0.0180800035595893
0.0143987806513905
0.0102191409096121
0.0058006262406706
0.0014328376855701
-0.0025995853357017
-0.0060528283938765
-0.0087513737380504
-0.0106018213555216
-0.0115918610244989
-0.0117798447608947
-0.0112844407558441
-0.0102742109447717
-0.008948665112257
-0.0075096003711223
-0.0061328946612775
-0.0049499766901135
-0.0040398854762315
-0.003429512726143
-0.0030992869287729
-0.0029910393059253
-0.0030167170334607
-0.0030699567869305
-0.0030430927872657
-0.0028457804583013
-0.0024166260845959
-0.0017282888293266
-0.0007908628322184
0.0003510774113237
0.0016295509412884
0.002964383456856
0.0042717424221336
0.0054708798415958
0.0064845122396945
0.0072324275970458
0.0076262531802058
0.0075700087472796
0.0069662667810916
0.0057289199903607
0.0038018021732568
0.0011798990890383
-0.0020723128691315
-0.0058155357837677
-0.0098486449569463
-0.0139320520684123
-0.0178123284131288
-0.0212464481592178
-0.0240247808396816
-0.0259912852197885
-0.0270585678517818
-0.0272129774093627
-0.026510089635849
-0.0250668413937091
-0.0230507440865039
-0.020660575479269
-0.0181002169847488
-0.0155537892132997
-0.013166045770049
-0.0110318791121244
-0.0091984272003173
-0.0076734204776585
-0.006433242931962
-0.0054299859330058
-0.0045962557196617
-0.0038497217465192
-0.0031024240888655
-0.0022737008985131
-0.0012997984886169
-0.0001386585645377
0.0012248253915458
0.0027751899324357
0.0044714915566146
0.006257923785597
0.0080712335184216
0.0098371719941496
0.0114558842033147
0.0127922939136624
0.0136851603165268
0.0139709301292896
0.0135122304782271
0.0122239682823419
0.0100939851254224
0.0071951071731746
0.0036842171102762
-0.0002121783327311
-0.0042220633476972
-0.0080576539039611
-0.0114478329196572
-0.0141667407006025
-0.0160512924194335
-0.017011160030961
-0.0170374102890491
-0.0162043198943138
-0.0146558219566941
-0.0125796310603618
-0.0101818442344665
-0.0076681850478053
-0.005226420238614
-0.0030067143961787
-0.0011053103953599
0.0004416089504957
0.0016530319117009
0.0025925810914486
0.0033554616384208
0.0040521468035876
0.0047914274036884
0.0056645353324711
0.0067293052561581
0.0080013209953904
0.0094602089375257
0.0110640712082386
0.012758151628077
0.0144771495833992
0.0161497555673122
0.0177040137350559
0.0190651249140501
0.0201473534107208
0.0208501312881708
0.0210615657269954
0.020665556192398
0.0195552520453929
0.0176585167646408
0.0149651262909173
0.0115395877510309
0.0075201629661023
0.0031109012197703
-0.0014350393321365
-0.0058420561254024
-0.0098428213968873
-0.0132066262885928
-0.0157619826495647
-0.017410285770893
-0.0181299448013305
-0.0179727021604776
-0.0170513838529586
-0.0155218299478292
-0.0135640799999237
-0.0113617461174726
-0.0090833995491266
-0.0068739000707864
-0.0048508965410292
-0.0030982941389083
-0.0016572936438024
-0.0005208924412727
0.0003606444224715
0.0010645585134625
0.0016819469165056
0.0023070289753377
0.0030221734195947
0.0038849911652505
0.0049259359948337
0.0061501124873757
0.00753820175305
0.0090504698455333
0.010633286088705
0.0122222602367401
0.0137396417558193
0.0150886178016662
0.0161511804908514
0.016794815659523
0.0168850496411323
0.0163006763905286
0.0149546414613723
0.0128179285675287
0.0099356090649962
0.0064288466237485
0.0024862485006451
-0.001650565303862
-0.0057077542878687
-0.0094076227396726
-0.012501060962677
-0.0147961312904953
-0.0161763466894626
-0.0166092291474342
-0.0161450747400522
-0.014904229901731
-0.0130582321435213
-0.0108106154948472
-0.0083760069683194
-0.0059550693258643
-0.0037107518874108
-0.0017549581825733
-0.0001447133254259
0.0011174057144671
0.0020772207062691
0.0028171089943498
0.0034399726428091
0.0040494152344763
0.0047328858636319
0.0055540725588798
0.0065505495294928
0.0077321603894233
0.0090811476111412
0.0105540370568633
0.0120854992419481
0.0135961277410388
0.0150021240115165
0.0162211749702692
0.0171692073345184
0.0177514869719743
0.0178603641688823
0.0173837039619684
0.0162172336131334
0.0142798069864511
0.0115373153239488
0.0080290157347917
0.0038785366341471
-0.0007135476917028
-0.0054848245345056
-0.0101338736712932
-0.0143552646040916
-0.0178792141377925
-0.0205035675317049
-0.0221126284450292
-0.0226838272064924
-0.0222818739712238
-0.0210400857031345
-0.0191361308097839
-0.0167730879038572
-0.0141679970547556
-0.0115368785336613
-0.0090692769736051
-0.0069037396460771
-0.0051166177727282
-0.0037223007529973
-0.0026797831524163
-0.0019047146197408
-0.0012863680021837
-0.0007074426393955
-6.290711462497711e-05
0.0007267163600772
0.0017101136036217
0.0029070167802274
0.0043140025809407
0.0059076189063489
0.0076409885659813
0.0094411363825201
0.0112140774726867
0.0128531549125909
0.0142427366226911
0.015259277075529
0.0157766919583082
0.0156747307628393
0.014848755672574
0.0132261309772729
0.010788757354021
0.0075919958762824
0.003771093674004
-0.0004656673409044
-0.0048527400940656
-0.0090942252427339
-0.0129049345850944
-0.016049912199378
-0.0183634608983993
-0.0197527520358562
-0.0201997272670269
-0.0197602454572916
-0.0185529515147209
-0.016739509999752
-0.0145061751827597
-0.0120494086295366
-0.0095582958310842
-0.007195140235126
-0.0050821532495319
-0.0032913235481828
-0.0018363634590059
-0.0006779001560062
0.0002563067246228
0.0010501062497496
0.0017864757683128
0.0025399455334991
0.003367033554241
0.004298822954297
0.0053436169400811
0.0064942711032927
0.0077305096201598
0.0090179219841957
0.010310485959053
0.0115573676303029
0.0127057908102869
0.0136939110234379
0.0144411455839872
0.0148427737876772
0.0147685222327709
0.0140733774751424
0.0126278549432754
0.0103562958538532
0.007267321459949
0.0034695602953433
-0.0008325786329805
-0.0053653148934245
-0.0098233995959162
-0.0139056649059057
-0.0173447579145431
-0.0199317820370197
-0.0215343628078699
-0.0221053212881088
-0.0216786041855812
-0.0203588679432868
-0.0183150619268417
-0.0157698690891265
-0.0129730347543954
-0.0101654948666691
-0.0075492663308978
-0.0052701537497341
-0.0034101963974535
-0.001986893126741
-0.0009612611029297
-0.0002517057000659
0.000252924975939
0.0006776874070055
0.0011391708394512
0.0017264004563912
0.0024934913963079
0.0034556232858449
0.0045826006680727
0.0058011370711028
0.007010986097157
0.008103696629405
0.0089758718386292
0.009537904523313
0.009717283770442
0.0094546256586909
0.0086990967392921
0.0074112489819526
0.0055726589635014
0.0031982786022126
0.0003481729654595
-0.0028641140088438
-0.0062695532105863
-0.009653846733272
-0.0127820251509547
-0.0154268182814121
-0.0173905398696661
-0.0185229294002056
-0.0187374074012041
-0.0180203858762979
-0.0164293255656957
-0.0140816560015082
-0.0111401844769716
-0.0077996118925511
-0.0042718932963907
-0.0007648589089512
0.0025400202721357
0.0055015156976878
0.0080283414572477
0.0100852744653821
0.0116876140236854
0.0128883011639118
0.0137668587267398
0.0144190639257431
0.0149455517530441
0.0154416020959615
0.0159867908805608
0.016633216291666
0.0173995457589626
0.0182755626738071
0.0192305389791727
0.0202210266143083
0.0211979988962411
0.0221098363399505
0.0229005720466375
0.023502429947257
0.0238214675337076
0.023729033768177
0.0230737999081611
0.0217115506529808
0.0195386372506618
0.0165189988911151
0.0127018522471189
0.0082271881401538
0.0033152787946164
-0.0017579989507794
-0.0066914176568388
-0.0111893163993954
-0.0149942003190517
-0.0179141070693731
-0.0198351480066776
-0.0207255743443965
-0.0206389613449573
-0.0197078436613082
-0.0181229915469884
-0.0161065366119146
-0.0138842985033988
-0.0116607761010527
-0.0096034044399857
-0.0078350901603698
-0.0064267315901815
-0.005390178412199
-0.004679930396378
-0.0042070825584232
-0.0038603832945227
-0.003523604478687
-0.003086351789534
-0.002458102768287
-0.0015866145258769
-0.0004661339335143
0.0008717013988643
0.0023739906027913
0.0039764591492712
0.005606866441667
0.0071906829252839
0.0086560910567641
0.0099269058555364
0.010909354314208
0.0114900898188352
0.0115468855947256
0.0109639046713709
0.0096520017832517
0.0075740930624306
0.0047640660777688
0.0013304753229022
-0.002549510449171
-0.0066427998244762
-0.0106834499165415
-0.0144028356298804
-0.0175595302134752
-0.0199639871716499
-0.021494060754776
-0.0221016202121973
-0.0218146778643131
-0.0207332167774438
-0.0190121084451675
-0.0168363191187381
-0.0143997808918356
-0.0118874190375208
-0.0094588603824377
-0.0072392313741147
-0.0053145210258662
-0.0037244670093059
-0.002456652233377
-0.0014522888232022
-0.0006241309456527
0.0001267406041733
0.0009006604086607
0.0017865120898932
0.0028453406412154
0.0041016303002834
0.0055465814657509
0.0071452902629971
0.0088437600061297
0.0105803124606609
0.0122953476384282
0.0139282429590821
0.0154056996107101
0.0166323855519294
0.0174892954528331
0.0178414210677146
0.0175540652126073
0.0165160205215215
0.0146659202873706
0.0120146768167614
0.0086556859314441
0.004759912379086
0.0005599472206085
-0.0036743429955095
-0.0076650138944387
-0.0111510921269655
-0.0139099322259426
-0.0157819967716932
-0.0166932493448257
-0.0166636537760496
-0.0157975256443023
-0.0142602110281586
-0.0122519563883543
-0.0099857309833168
-0.0076655992306768
-0.005465124733746
-0.0035123554989695
-0.0018815899966284
-0.0005913320928812
0.0003872227389365
0.0011170024517923
0.0016861252952367
0.0021962116006761
0.0027434576768428
0.0034041670151054
0.0042282994836568
0.0052361427806317
0.0064203729853034
0.0077525284141302
0.0091878082603216
0.0106684025377035
0.0121285328641533
0.0134989116340875
0.0147070148959755
0.015674389898777
0.0163129642605781
0.0165234189480543
0.0162007175385952
0.0152451479807496
0.0135755566880106
0.0111495377495884
0.0079898238182067
0.0042026438750326
-2.4207402020692825e-05
-0.004442308563739
-0.0087713152170181
-0.0127281658351421
-0.0160592012107372
-0.0185711346566677
-0.0201491899788379
-0.0207622479647398
-0.0204594321548938
-0.0193553902208805
-0.0176079384982585
-0.0154010271653532
-0.0129362940788269
-0.0104216085746884
-0.0080483742058277
-0.0059647848829627
-0.0042570396326482
-0.0029448508284986
-0.0019908903632313
-0.0013163246912881
-0.000815771985799
-0.0003735148347914
0.0001197876408696
0.0007538460777141
0.0015890838112682
0.0026538444217294
0.0039495667442679
0.005454028956592
0.0071177156642079
0.0088629852980375
0.010591653175652
0.0121940206736326
0.0135543746873736
0.0145540703088045
0.015073980204761
0.0149984434247016
0.014223881997168
0.0126753663644194
0.0103291496634483
0.0072319554165005
0.0035076411440968
-0.0006498461589217
-0.0049916747957468
-0.0092375995591282
-0.0131088718771934
-0.0163618084043264
-0.0188143141567707
-0.020362339913845
-0.0209822058677673
-0.0207199081778526
-0.0196754112839698
-0.0179894845932722
-0.0158331356942653
-0.0133938174694776
-0.0108572095632553
-0.0083897598087787
-0.0061251916922628
-0.0041522476822137
-0.0025042849592864
-0.0011602491140365
-6.045494228601456e-05
0.0008739605545997
0.0017268001101911
0.0025760706048458
0.0034860973246395
0.0045042056590318
0.0056593194603919
0.0069603817537426
0.0083971330896019
0.009943121112883
0.0115574244409799
0.0131857506930828
0.0147636514157056
0.0162193495780229
0.0174719300121068
0.0184254813939332
0.0189640056341886
