bvp
0.0096104107797145
0.0115353967994451
0.0135196801275014
0.0155653348192572
0.0176619105041027
0.0197847746312618
0.021892400458455
0.0239282064139843
0.0258294530212879
0.0275407563894987
0.0290257073938846
0.0302723739296197
0.0312932804226875
0.032121792435646
0.0328045189380645
0.0333882756531238
0.0339037291705608
0.0343495495617389
0.0346808582544326
0.0348071232438087
0.0346004664897918
0.0339120626449584
0.032597679644823
0.0305497609078884
0.0277258120477199
0.0241657719016075
0.0199952125549316
0.0154099101200699
0.0106459539383649
0.0059482404030859
0.0015418156981468
-0.0023924661800265
-0.0057309316471219
-0.0084069510921835
-0.0104016857221722
-0.0117308255285024
-0.0124361822381615
-0.0125860460102558
-0.0122765973210334
-0.0116278240457177
-0.0107729053124785
-0.0098406625911593
-0.0089354030787944
-0.0081224627792835
-0.0074239009991288
-0.0068236324004828
-0.0062785078771412
-0.0057309162802994
-0.0051212580874562
-0.0043996991589665
-0.0035329172387719
-0.0025047075469046
-0.0013170308666303
7.000286132097244e-06
0.0014253314584493
0.002884603338316
0.0043276157230138
0.0057006506249308
0.0069605149328708
0.0080777695402503
0.0090351440012454
0.0098249176517128
0.0104474164545536
0.0109046082943677
0.0111860623583197
0.0112556498497724
0.0110484510660171
0.0104808574542403
0.0094683300703763
0.0079432725906372
0.0058711096644401
0.003263765014708
0.0001882752403616
-0.0032327603548765
-0.0068332627415657
-0.0104251652956008
-0.0138173792511224
-0.0168262403458356
-0.0192833356559276
-0.0210474710911512
-0.0220207851380109
-0.0221654810011386
-0.0215153098106384
-0.0201737862080335
-0.0183011088520288
-0.0160973593592643
-0.0137788960710167
-0.0115484502166509
-0.0095713175833225
-0.007963522337377
-0.006789306178689
-0.0060655437409877
-0.0057713724672794
-0.0058606313541531
-0.0062726875767111
-0.0069387862458825
-0.007785664871335
-0.008737338706851
-0.0097130965441465
-0.0106246704235672
-0.0113806091248989
-0.0118970861658453
-0.0121059687808156
-0.0119587071239948
-0.0114306146278977
-0.0105242300778627
-0.0092683704569935
-0.0077146249823272
-0.0059348503127694
-0.0040193377062678
-0.0020719477906823
-0.0002008248120546
0.0014929603785276
0.0029262984171509
0.0040437225252389
0.0048242360353469
0.005279017612338
0.0054392414167523
0.0053460299968719
0.0050484770908951
0.0046023000031709
0.0040673883631825
0.0035081934183835
0.0029933853074908
0.0025896737352013
0.0023524966090917
0.0023182015866041
0.0024980781599879
0.0028765331953763
0.0034169377759099
0.0040726643055677
0.0047970432788133
0.0055454056710004
0.0062705259770154
0.0069227311760187
0.007457410916686
0.0078428089618682
0.0080647487193346
0.0081277377903461
0.0080518666654825
0.0078671220690011
0.0076066851615905
0.0073008332401514
0.0069742202758789
0.0066454857587814
0.0063264537602663
0.0060232505202293
0.0057406593114137
0.00548199377954
0.0052402894943952
0.0049907490611076
0.0046917032450437
0.0042879432439804
0.0037099961191415
0.0028737373650074
0.0016884915530681
7.263198494911194e-05
-0.0020302403718233
-0.0046382844448089
-0.0077245291322469
-0.0112196495756506
-0.0150232929736375
-0.0190171021968126
-0.02307247556746
-0.0270570777356624
-0.0308484695851802
-0.0343478545546531
-0.0374816432595253
-0.0401939675211906
-0.0424415953457355
-0.0441961027681827
-0.0454509556293487
-0.0462281294167041
-0.0465781912207603
-0.0465705394744873
-0.0462758429348468
-0.0457461848855018
-0.0450027920305728
-0.0440373830497264
-0.0428199991583824
-0.0413089394569397
-0.0394651927053928
-0.0372646152973175
-0.0347014106810092
-0.0317853651940822
-0.0285372138023376
-0.0249869413673877
-0.0211748704314231
-0.017152115702629
-0.012979170307517
-0.0087204929441213
-0.0044350046664476
-0.0001684240996837
0.0040481276810169
0.008195424452424
0.012261857278645
0.0162332449108362
0.0200753565877676
0.0237194187939167
0.0270594432950019
0.0299628134816885
0.0322952158749103
0.0339567624032497
0.0349133238196373
0.0352073945105075
0.0349492095410823
0.0342932008206844
0.0334067456424236
0.0324472151696682
0.0315534397959709
0.0308432057499885
0.0304102543741464
0.0303174816071987
0.0305862203240394
0.0311887040734291
0.0320495553314685
0.0330564007163047
0.0340773165225982
0.0349812544882297
0.0356559939682483
0.0360172837972641
0.0360090732574462
0.0356009788811206
0.0347853675484657
0.0335735268890857
0.0319931991398334
0.0300907455384731
0.0279363114386796
0.0256203934550285
0.0232378859072923
0.0208736974745988
0.0185973607003688
0.0164620075374841
0.0145052643492817
0.0127495927736163
0.0112014282494783
0.0098535316064953
0.0086918845772743
0.0077022151090204
0.006870612502098
0.0061767464503645
0.0055823996663093
0.0050224694423377
0.0044072465971112
0.0036342716775834
0.0026017425116151
0.0012249145656824
-0.0005421666428446
-0.0026889161672443
-0.0051449933089315
-0.0077893212437629
-0.0104636065661907
-0.0129897138103842
-0.0151920774951577
-0.0169209334999322
-0.018068753182888
-0.0185750145465135
-0.0184233132749795
-0.0176369883120059
-0.0162724088877439
-0.0144116189330816
-0.0121587552130222
-0.0096348337829113
-0.0069654514081776
-0.0042660622857511
-0.0016303556039929
0.0008776895701885
0.00322857638821
0.005427214782685
0.0075066429562866
0.0095187742263078
0.011524730361998
0.0135815683752298
0.0157267525792121
0.0179697386920452
0.0202944129705429
0.022664526477456
0.0250258222222328
0.0273099672049283
0.0294442437589168
0.031359814107418
0.0329901948571205
0.0342592447996139
0.0350675210356712
0.0352904647588729
0.0347910523414611
0.0334389135241508
0.0311315394937992
0.0278140027076005
0.0234907232224941
0.0182291232049465
0.0121590718626976
0.0054652672260999
-0.0016310755163431
-0.008895231410861
-0.0160967912524938
-0.023019004613161
-0.0294640902429819
-0.0352587029337883
-0.0402605347335338
-0.044367715716362
-0.0475284978747367
-0.049745425581932
-0.0510737970471382
-0.0516133457422256
-0.0514912456274032
-0.0508412197232246
-0.049785315990448
-0.0484245344996452
-0.0468400791287422
-0.0450962334871292
-0.0432386100292205
-0.0412913709878921
-0.0392570495605468
-0.0371213406324386
-0.0348637551069259
-0.0324686467647552
-0.0299307964742183
-0.0272557139396667
-0.0244570523500442
-0.0215526260435581
-0.0185610558837652
-0.0155010130256414
-0.0123932156711816
-0.00926692225039
-0.0061714788898825
-0.0031871073879301
-0.0004276623949408
0.001967177260667
0.0038479608483612
0.0050796112045645
0.0055738897062838
0.0053221643902361
0.0044172257184982
0.0030546505004167
0.0015064771287143
7.231952622532845e-05
-0.0009727021679282
-0.0014173886738717
-0.0011388632701709
-0.0001129175070673
0.0015919647412374
0.0038355148863047
0.0064331474713981
0.0091817220672965
0.0118801807984709
0.0143440933898091
0.0164165701717138
0.0179824065417051
0.0189854446798563
0.0194364562630653
0.0194025617092847
0.0189844090491533
0.018292224034667
0.0174308586865663
0.0164971686899662
0.0155763728544116
0.0147314649075269
0.0140022020787
0.0134180439636111
0.0130087342113256
0.0128029463812708
0.0128174116834998
0.0130447810515761
0.0134478081017732
0.0139588993042707
0.0144847705960273
0.0149224679917097
0.0151808485388755
0.0151932658627629
0.0149208819493651
0.0143486578017473
0.0134696355089545
0.0122637068852782
0.010687144473195
0.0086811883375048
0.006195031106472
0.0032124957069754
-0.0002293363213539
-0.0040358039550483
-0.0080634048208594
-0.0121391341090202
-0.0160864423960447
-0.0197497140616178
-0.0230088122189044
-0.0257801599800586
-0.0280091185122728
-0.0296626426279544
-0.0307302623987197
-0.0312327183783054
-0.0312266666442155
-0.0307989232242107
-0.0300534889101982
-0.0290965735912323
-0.0280247945338487
-0.0269176624715328
-0.0258317552506923
-0.024797324091196
-0.023819101974368
-0.0228782892227172
-0.0219351854175329
-0.0209375731647014
-0.0198326222598552
-0.0185747146606445
-0.0171324983239173
-0.0154983680695295
-0.0136898644268512
-0.0117386253550648
-0.0096765831112861
-0.0075257085263729
-0.0052939224988222
-0.0029810518026351
-0.0005913618952035
0.0018564071506261
0.0043254289776086
0.0067596761509776
0.0090810749679803
0.0111897010356187
0.0129753155633807
0.0143384467810392
0.0152080925181508
0.0155488094314932
0.015365638770163
0.014712480828166
0.0136965233832597
0.0124720092862844
0.0112236328423023
0.0101448753848671
0.0094201564788818
0.0092134717851877
0.0096560213714838
0.010829359292984
0.0127510093152523
0.0153695838525891
0.0185720119625329
0.0222001522779464
0.0260674059391021
0.0299715623259544
0.0337121002376079
0.0371147990226745
0.0400536619126796
0.0424621775746345
0.0443342849612236
0.045714545994997
0.0466746650636196
0.0472809262573719
0.0475662648677825
0.0475175157189369
0.04707807675004
0.0461629331111907
0.0446851849555969
0.0425876677036285
0.039860937744379
0.0365377739071846
0.0326803289353847
0.0283750854432582
0.0237328428775072
0.0188879407942295
0.013990981504321
0.0091918716207146
0.0046189781278371
0.0003620600327849
-0.0035318767186254
-0.0070446720346808
-0.0101685905829072
-0.0128965927287936
-0.0152140166610479
-0.0170881226658821
-0.0184690672904253
-0.0193069744855165
-0.0195720996707677
-0.0192682854831218
-0.0184369888156652
-0.017150605097413
-0.0155000388622283
-0.0135833695530891
-0.0114986710250377
-0.0093432608991861
-0.0072185639292001
-0.005234676413238
-0.0035117110237479
-0.0021788971498608
-0.0013657128438353
-0.0011799521744251
-0.0016843359917402
-0.0028854571282863
-0.0047344900667667
-0.0071351071819663
-0.0099581433460116
-0.0130593627691268
-0.0162922888994216
-0.0195143446326255
-0.0225892551243305
-0.0253863371908664
-0.0277813449501991
-0.0296641364693641
-0.0309481602162122
-0.0315750576555728
-0.0315150134265422
-0.0307662598788738
-0.0293578151613473
-0.0273552238941192
-0.0248606763780117
-0.022002812474966
-0.0189230665564537
-0.0157677736133337
-0.0126892048865556
-0.0098491227254271
-0.0074124657548964
-0.0055277505889534
-0.0043035824783146
-0.0037909345701336
-0.0039750663563609
-0.0047770924866199
-0.0060634543187916
-0.0076613528653979
-0.0093823876231908
-0.0110539617016911
-0.0125440722331404
-0.0137664265930652
-0.0146709103137254
-0.015233414247632
-0.0154514517635107
-0.0153417717665433
-0.0149365067481994
-0.0142783718183636
-0.013415154069662
-0.0123927127569913
-0.0112469037994742
-0.0099982945248484
-0.0086525660008192
-0.0072030457668006
-0.0056341206654906
-0.0039276885800063
-0.0020670625381171
-3.5281525924801826e-05
0.0021844329312443
0.0046027800999581
0.0072169145569205
0.0100025683641433
0.0129072237759828
0.0158490985631942
0.0187252350151538
0.0214279480278491
0.0238641146570444
0.0259698443114757
0.0277151595801115
0.0290969833731651
0.0301220379769802
0.0307859499007463
0.0310610644519329
0.0308997686952352
0.0302452817559242
0.0290384218096733
0.0272194184362888
0.0247319899499416
0.0215329565107822
0.0176036730408668
0.0129612907767295
0.0076710446737706
0.0018541389144957
-0.0043154447339475
-0.010621060617268
-0.0168172735720872
-0.022655801847577
-0.0279200114309787
-0.0324454307556152
-0.0361209586262702
-0.0388851650059223
-0.0407204255461692
-0.0416423715651035
-0.0416911877691745
-0.0409269891679286
-0.0394239090383052
-0.0372625924646854
-0.0345246717333793
-0.031290017068386
-0.0276355352252721
-0.0236323438584804
-0.0193412825465202
-0.014814936555922
-0.0101102422922849
-0.0053022438660264
-0.0004858523607254
0.0042382003739476
0.0087835323065519
0.0130921546369791
0.0171388834714889
0.0209277272224426
0.0244830623269081
0.0278382580727338
0.0310218408703804
0.034043364226818
0.0368832275271415
0.0394901856780052
0.0417880117893219
0.0436829440295696
0.0450661219656467
0.0458175018429756
0.045813787728548
0.0449383333325386
0.043095339089632
0.0402291119098663
0.0363422557711601
0.0315046459436416
0.0258502718061208
0.0195651911199092
0.012871628627181
0.0060104387812316
-0.0007780597079545
-0.0072713238187134
-0.0132745169103145
-0.0186287648975849
-0.023225849494338
-0.0270197000354528
-0.0300239846110343
-0.0322981625795364
-0.0339251831173896
-0.0349840372800827
-0.0355277135968208
-0.0355813726782798
-0.0351565331220626
-0.0342554673552513
-0.0328620932996273
-0.0309393815696239
-0.0284368228167295
-0.0252998284995555
-0.0214825607836246
-0.0169700533151626
-0.0118068140000104
-0.0061160465702414
-9.632296860218048e-05
0.0060013565234839
0.0119064608588814
0.0173645131289958
0.022168505936861
0.0261809602379798
0.0293433032929897
0.0316691920161247
0.0332238785922527
0.0340981148183345
0.03438251465559
0.0341452211141586
0.033417422324419
0.0321876406669616
0.0304047148674726
0.0279953069984912
0.0248950719833374
0.0210786275565624
0.0165774077177047
0.0114879263564944
0.0059723784215748
0.0002471629995852
-0.0054405066184699
-0.0108410809189081
-0.0157264433801174
-0.0198991782963275
-0.0231886636465787
-0.0254450570791959
-0.0265418104827404
-0.0263964645564556
-0.0250055510550737
-0.0224686209112405
-0.0189842507243156
-0.0148237068206071
-0.0102941058576107
-0.005698905326426
-0.0013020520564168
0.0026959092356264
0.0061628730036318
0.0090237809345126
0.0112437196075916
0.0128161758184432
0.0137596689164638
0.01411984115839
0.0139723028987646
0.0134169664233922
0.0125581454485654
0.0114821251481771
0.0102481441572308
0.0088941492140293
0.0074485102668404
0.0059396298602223
0.0043996134772896
0.0028633051551878
0.0013645379804074
-7.330765947699547e-05
-0.0014526983723044
-0.002813713857904
-0.00423205178231
-0.0058018285781145
-0.0076099503785371
-0.0097150448709726
-0.0121368635445833
-0.014849605038762
-0.0177777335047721
-0.0207995343953371
-0.0237595420330762
-0.0264876969158649
-0.0288205929100513
-0.0306191071867942
-0.0317788049578666
-0.0322314836084842
-0.0319407656788826
-0.0308964774012565
-0.0291112121194601
-0.0266217440366745
-0.0234908945858478
-0.0198045149445533
-0.0156680475920438
-0.0112056909129023
-0.0065564848482608
-0.0018614074215292
0.0027543967589735
0.0071917073801159
0.0113748973235487
0.0152435256168246
0.0187439434230327
0.0218252576887607
0.0244410522282123
0.0265511143952608
0.0281210429966449
0.0291271731257438
0.0295686982572078
0.0294778831303119
0.0289215389639139
0.0279951617121696
0.0268123839050531
0.0254891756922006
0.0241227876394987
0.0227679349482059
0.021414628252387
0.0199777074158191
0.0183104034513235
0.0162411425262689
0.0136163998395204
0.0103334737941622
0.0063591608777642
0.001738857012242
-0.0033998202998191
-0.0088549330830574
-0.0143727175891399
-0.0196729321032762
-0.024470429867506
-0.0284961480647325
-0.0315170995891094
-0.0333548076450824
-0.0339012928307056
-0.0331276878714561
-0.0310842618346214
-0.0278956536203622
-0.0237530656158924
-0.0189012009650468
-0.0136177223175764
-0.0081853084266185
-0.0028617209754884
0.0021401098929345
0.0066576460376381
0.0105790123343467
0.0138442926108837
0.0164464805275201
0.0184285826981067
0.0198736414313316
0.0208911448717117
0.0216051302850246
0.0221409723162651
0.0226083099842071
0.0230849608778953
0.0236068069934844
0.024165516719222
0.0247172303497791
0.0252048019319772
0.0255807638168334
0.0258104354143142
0.0258561633527278
0.0256606414914131
0.0251411832869052
0.0241992138326168
0.0227424334734678
0.0207111872732639
0.0181017778813838
0.0149787403643131
0.0114696761593222
0.0077453954145312
0.0039911679923534
0.0003758640959858
-0.002967519685626
-0.005943483673036
-0.0084911212325096
-0.0105896759778261
-0.0122656365856528
-0.0135890673846006
-0.0146609395742416
-0.0156000861898064
-0.0165296420454978
-0.0175592321902513
-0.0187684465199708
-0.0201997831463813
-0.0218605622649192
-0.0237277075648307
-0.0257514212280511
-0.0278595983982086
-0.0299647189676761
-0.0319719910621643
-0.0337899327278137
-0.0353417694568634
-0.0365715436637401
-0.0374438874423503
-0.0379413403570652
-0.0380619615316391
-0.0378166101872921
-0.0372262112796306
-0.0363209657371044
-0.0351384095847606
-0.0337173007428646
-0.0320944860577583
-0.0303130280226469
-0.0284373890608549
-0.0265636127442121
-0.0248176380991935
-0.0233428813517093
-0.0222798381000757
-0.0217405632138252
-0.0217852480709552
-0.0224088057875633
-0.0235394518822431
-0.0250480994582176
-0.0267663337290287
-0.0285067111253738
-0.030080571770668
-0.0313145667314529
-0.0320639833807945
-0.0322189256548881
-0.0317074656486511
-0.0304975155740976
-0.0285929217934608
-0.0260300673544406
-0.0228811465203762
-0.0192541182041168
-0.0152818709611892
-0.0111038796603679
-0.0068460628390312
-0.0026059038937091
0.0015539228916168
0.0056047812104225
0.0095458105206489
0.0133948437869548
0.0171796567738056
0.0209309458732604
0.0246769655495882
0.0284408703446388
0.0322385393083095
0.0360693037509918
0.0399021431803703
0.0436725839972496
0.0472955368459224
0.0506844073534011
0.053767018020153
0.0564934611320495
0.0588355623185634
0.0607799291610717
0.062314473092556
0.063411958515644
0.0640202760696411
0.0640677437186241
0.0634827241301536
0.0622195079922676
0.060281615704298
0.0577305033802986
0.0546725392341613
0.0512352474033832
0.0475487187504768
0.0437353812158107
0.0399031154811382
0.0361397825181484
0.0325130634009838
0.0290773306041955
0.0258820187300443
0.0229759402573108
0.0204062610864639
0.018213115632534
0.0164224132895469
0.0150410747155547
0.0140573792159557
0.0134425796568393
0.013151491060853
0.0131290815770626
0.0133259855210781
0.01371287740767
0.014283612370491
0.0150471860542893
0.0160130411386489
0.0171737633645534
0.0184897668659687
0.0198816396296024
0.0212365537881851
0.0224303193390369
0.0233562570065259
0.0239496789872646
0.0242007989436388
0.0241493321955204
0.0238617919385433
0.0234070774167776
0.0228443667292594
0.0222200006246566
0.0215595476329326
0.0208497215062379
0.0200196839869022
0.0189334694296121
0.0173989534378051
0.0151957515627145
0.0121185537427663
0.0080221835523843
0.0028529074043035
-0.003339048475027
-0.0104020126163959
-0.0180988200008869
-0.026133382692933
-0.0341776646673679
-0.0418955795466899
-0.0489686504006385
-0.0551215782761573
-0.0601443275809288
-0.0639098435640335
-0.0663821399211883
-0.0676112323999404
-0.0677179545164108
-0.0668746456503868
-0.0652858018875122
-0.0631664991378784
-0.0607143864035606
-0.0580797716975212
-0.0553462505340576
-0.0525250136852264
-0.0495654642581939
-0.0463859289884567
-0.0429011546075344
-0.0390286743640899
-0.0346917547285556
-0.0298308264464139
-0.0244150962680578
-0.0184481739997863
-0.011970474384725
-0.0050612930208444
0.0021602753549814
0.0095350518822669
0.0168631710112094
0.0239051152020692
0.0303862411528825
0.0360078141093254
0.0404728427529335
0.0435282699763774
0.0450097844004631
0.0448748618364334
0.0432163402438163
0.0402514189481735
0.0362891443073749
0.031686995178461
0.0268037654459476
0.0219553783535957
0.0173821188509464
0.0132332891225814
0.0095704011619091
0.0063826851546764
0.0036030039191246
0.001119676977396
-0.0012061707675457
-0.0035116635262966
-0.0059007853269577
-0.0084212496876716
-0.0110547132790088
-0.0137223191559314
-0.0163038913160562
-0.0186646729707717
-0.0206822678446769
-0.0222691688686609
-0.0233868453651666
-0.0240475628525018
-0.0243050158023834
-0.0242412686347961
-0.0239573083817958
-0.0235643833875656
-0.0231686476618051
-0.0228516645729541
-0.0226559564471244
-0.0225817784667015
-0.0225962586700916
-0.0226488783955574
-0.0226851850748062
-0.0226579867303371
-0.0225410014390945
-0.0223447699099779
-0.0221259966492652
-0.0219821482896804
-0.0220302771776914
-0.0223761275410652
-0.0230876635760068
-0.0241825208067893
-0.0256216786801815
-0.0273049306124448
-0.0290787406265735
-0.0307599417865276
-0.032165553420782
-0.0331384912133216
-0.0335630178451538
-0.033369418233633
-0.0325319655239582
-0.0310638323426246
-0.029012082144618
-0.0264530815184116
-0.023483570665121
-0.0202083364129066
-0.0167330987751483
-0.0131632210686802
-0.0096011580899357
-0.0061406581662595
-0.0028577137272804
0.0002014108467847
0.0030276079196482
0.0056454953737556
0.0081031126901507
0.0104620028287172
0.0127887576818466
0.0151446564123034
0.0175745300948619
0.0200989991426467
0.0227119922637939
0.0253828950226306
0.0280573070049285
0.0306547153741121
0.0330739431083202
0.0352116450667381
0.0369823947548866
0.0383263304829597
0.0392009019851684
0.0395642220973968
0.0393606498837471
0.0385160520672798
0.0369460061192512
0.0345769561827182
0.031375091522932
0.0273713432252407
0.022671777755022
0.0174499116837978
0.0119233336299657
0.0063231908716261
0.0008684860076755
-0.0042495136149227
-0.0088759651407599
-0.0128972120583057
-0.0162421073764562
-0.018881557509303
-0.0208226907998323
-0.0220933035016059
-0.0227275975048542
-0.0227643102407455
-0.0222482345998287
-0.0212241299450397
-0.0197264440357685
-0.017774011939764
-0.0153780151158571
-0.0125602548941969
-0.0093653127551078
-0.0058602597564458
-0.0021278001368045
0.0017433548346161
0.0056672543287277
0.0095657017081975
0.0133685395121574
0.0170078575611114
0.0204086117446422
0.0234829522669315
0.0261320695281028
0.0282535292208194
0.0297543443739414
0.0305676087737083
0.0306606795638799
0.0300332270562648
0.0287180989980697
0.0267842449247837
0.0243298783898353
0.0214664582163095
0.0183005221188068
0.0149160232394933
0.0113643072545528
0.0076720458455383
0.003863145597279
-2.0565465092659e-05
-0.0039081452414393
-0.007697245106101
-0.0112576596438884
-0.0144387502223253
-0.0170839894562959
-0.0190541613847017
-0.0202492326498031
-0.0206197425723075
-0.020168587565422
-0.0189453158527612
-0.0170366019010543
-0.0145592354238033
-0.0116553613916039
-0.0084861908107995
-0.0052233757451176
-0.0020359205082058
0.0009280629456043
0.0035581234842538
0.0057916194200515
0.0076179886236786
0.0090729910880327
0.0102213071659207
0.0111392550170421
0.0119062950834631
0.0126031013205647
0.0133115965873003
0.0141122220084071
0.0150765869766473
0.0162592474371194
0.0176936276257038
0.0193918626755476
0.0213451404124498
0.0235253646969795
0.0258901640772819
0.0283906310796737
0.0309799779206514
0.0336163006722927
0.0362548939883708
0.0388373397290706
0.0412842333316803
0.0434919521212577
0.0453342646360397
0.0466700978577137
0.047358401119709
0.0472795292735099
0.0463579818606376
0.0445759184658527
0.0419713668525218
0.0386285670101642
0.0346679612994194
0.0302366875112056
0.0254999306052923
0.0206282250583171
0.015778113156557
0.0110747832804918
0.0066039804369211
0.002413872629404
-0.001477513462305
-0.0050776172429323
-0.0084175635129213
-0.0115442257374525
-0.014504799619317
-0.0173332896083593
-0.0200457200407981
-0.0226425733417272
-0.0251153856515884
-0.0274550542235374
-0.0296577643603086
-0.0317308530211448
-0.0337002240121364
-0.0356050357222557
-0.0374764613807201
-0.0393233709037303
-0.0411321856081485
-0.0428660325706005
-0.0444621071219444
-0.0458358228206634
-0.04689172655344
-0.0475374050438404
-0.0476971007883548
-0.04732196778059
-0.0463957674801349
-0.0449370294809341
-0.0430022701621055
-0.0406954661011695
-0.038176629692316
-0.0356524810194969
-0.0333463847637176
-0.0314616374671459
-0.0301500279456377
-0.0294892359524965
-0.0294709391891956
-0.0300043858587741
-0.0309363976120948
-0.032080240547657
-0.0332445576786994
-0.0342588573694229
-0.0349941551685333
-0.0353725329041481
-0.0353636406362056
-0.0349799394607543
-0.0342769585549831
-0.0333480313420295
-0.0323072522878646
-0.0312682501971721
-0.0303258020430803
-0.029540941119194
-0.0289317909628152
-0.0284741315990686
-0.0281066931784153
-0.0277331247925758
-0.0272320993244647
-0.0264848824590444
-0.0253987237811088
-0.0239086374640464
-0.0219702236354351
-0.0195587836205959
-0.0166728980839252
-0.0133345071226358
-0.0095863752067089
-0.0054913591593503
-0.0011304225772619
0.0034044347703456
0.0080181472003459
0.0126184057444334
0.0171226635575294
0.0214657671749591
0.0256025306880474
0.0295034628361463
0.033145722001791
0.0365013778209686
0.0395250841975212
0.0421428680419921
0.0442482605576515
0.0457166880369186
0.0464364886283874
0.046340100467205
0.0454242639243602
0.0437575913965702
0.0414745695888996
0.0387561284005641
0.0358003601431846
0.0327912308275699
0.0298757068812847
0.0271550044417381
0.0246878508478403
0.0225000884383916
0.0205938816070556
0.0189512223005294
0.0175348632037639
0.0162945818156003
0.0151790678501129
0.0141478683799505
0.0131785906851291
0.0122692212462425
0.0114381238818168
0.010719571262598
0.0101540405303239
0.0097791012376546
0.0096231549978256
0.0097005199640989
0.0100097171962261
0.010538026690483
0.0112695954740047
0.0121872965246438
0.0132667142897844
0.0144733693450689
0.0157678388059139
0.0171126667410135
0.0184758715331554
0.019831208512187
0.0211585015058517
0.0224458090960979
0.0236902646720409
0.0248938258737325
0.0260552559047937
0.0271591451019048
0.0281624309718608
0.028987593948841
0.0295294448733329
0.0296686179935932
0.0292877536267042
0.0282957646995782
0.0266556143760681
0.0244009736925363
0.0216337256133556
0.0185085795819759
0.015217088162899
0.011972602456808
0.0089903455227613
0.0064638792537152
0.0045435321517288
0.0033204685896635
0.0028169965371489
0.0029819952324032
0.0036939033307135
0.0047710221260786
0.005985832773149
0.0070886900648474
0.0078428434208035
0.008059112355113
0.0076194503344595
0.0064866887405514
0.0047009252011775
0.0023642284795641
-0.0003801882266998
-0.0033671427518129
-0.006427205633372
-0.0094045586884021
-0.0121707720682024
-0.0146302441135048
-0.016718840226531
-0.0184048935770988
-0.0196971427649259
-0.020648056641221
-0.021341897547245
-0.0218680351972579
-0.0222904458642005
-0.0226373467594385
-0.0229174736887216
-0.0231394506990909
-0.0233209934085607
-0.0234927199780941
-0.0236958768218755
-0.0239733923226594
-0.0243594367057085
-0.0248676519840955
-0.0254791527986526
-0.0261409990489482
-0.0267792697995901
-0.0273143202066421
-0.0276680849492549
-0.027769211679697
-0.0275608524680137
-0.0270041394978761
-0.0260762013494968
-0.024771574884653
-0.0231084525585174
-0.0211317650973796
-0.0189085789024829
-0.0165188983082771
-0.0140456408262252
-0.0115652624517679
-0.0091408528387546
-0.0068205334246158
-0.0046400250867009
-0.0026222760789096
-0.0007730801589787
0.0009185317903757
0.0024720365181565
0.0039062309078872
0.0052366512827575
0.0064789350144565
0.0076486156322062
0.0087543204426765
0.0097918827086687
0.0107424668967723
0.0115728769451379
0.0122405141592025
0.0127031793817877
0.0129236560314893
0.0128628863021731
0.0124708963558077
0.0116845481097698
0.0104302754625678
0.00862742587924
0.0061938897706568
0.0030593434348702
-0.0008142213337123
-0.0054096477106213
-0.0106358444318175
-0.0163237079977989
-0.0222388301044702
-0.0281057711690664
-0.0336449518799781
-0.0386110804975032
-0.0428120717406272
-0.0461077988147735
-0.048402052372694
-0.0496363118290901
-0.0497882105410099
-0.0488726273179054
-0.0469413064420223
-0.0440810658037662
-0.0404119677841663
-0.0360814407467842
-0.0312502905726432
-0.0260759443044662
-0.020701453089714
-0.0152520518749952
-0.0098333451896905
-0.0045261904597282
0.0006146728992462
0.0055518727749586
0.0102562252432107
0.0147048309445381
0.0188790969550609
0.022757513448596
0.0263097379356622
0.0294967014342546
0.03227499127388
0.0346055850386619
0.0364641770720481
0.0378467366099357
0.0387709811329841
0.0392750278115272
0.0394104532897472
0.0392313301563262
0.0387770310044288
0.0380504503846168
0.0370136126875877
0.0356062017381191
0.0337648205459117
0.0314382873475551
0.0286055319011211
0.0252898298203945
0.0215661469846963
0.017563309520483
0.0134567599743604
0.0094490638002753
0.0057435948401689
0.0025202743709087
-8.025765419006348e-05
-0.0019640419632196
-0.0030890740454196
-0.0034699887037277
-0.0031733736395835
-0.0023020040243864
-0.0009791553020477
0.000660590827465
0.0024769473820924
0.0043292390182614
0.0060829296708106
0.0076177399605512
0.0088350474834442
0.0096620442345738
0.010055162012577
0.010005734860897
0.0095455469563603
0.0087475832551717
0.0077158054336905
0.0065645119175314
0.0053999796509742
0.004312066361308
0.0033729383721947
0.0026389425620436
0.0021524168550968
0.0019430331885814
0.0020297151058912
0.0024231960996985
0.0031263250857591
0.0041259815916419
0.0053770272061228
0.0067875548265874
0.0082158744335174
0.0094853360205888
0.0104109728708863
0.0108269453048706
0.0106143150478601
0.0097277015447616
0.0082073025405406
0.0061698919162154
0.0037871233653277
0.0012584598734974
-0.0012167734093964
-0.0034617567434906
-0.0053350063972175
-0.0067351018078625
-0.0076031214557588
-0.0079257301986217
-0.0077321641147136
-0.0070796008221805
-0.006036827340722
-0.0046769599430263
-0.0030749258585274
-0.0013032755814492
0.0005716348532587
0.0024914990644901
0.0044104885309934
0.006302029825747
0.0081604905426502
0.0099964411929249
0.0118298670276999
0.0136818708851933
0.0155662083998322
0.017486672848463
0.0194412488490343
0.0214259214699268
0.0234314296394586
0.025435447692871
0.0273990910500288
0.0292688943445682
0.0309799816459417
0.0324591659009456
0.0336244516074657
0.0343785248696804
0.0346026420593261
0.0341598764061927
0.0329098403453826
0.0307304766029119
0.0275412052869796
0.0233227461576461
0.0181300733238458
0.0120951291173696
0.0054131094366312
-0.001685582101345
-0.0089626628905534
-0.0161904860287904
-0.0231642983853817
-0.0297090951353311
-0.035682238638401
-0.0409756600856781
-0.0455196276307106
-0.0492862835526466
-0.0522889234125614
-0.0545724481344223
-0.0561942607164382
-0.0572042427957057
-0.0576348565518856
-0.0575022026896476
-0.0568137802183628
-0.055579449981451
-0.0538185648620128
-0.0515612512826919
-0.0488508716225624
-0.0457490049302578
-0.0423359423875808
-0.0387043431401252
-0.0349501594901084
-0.0311647877097129
-0.027429899200797
-0.0238124635070562
-0.0203582383692264
-0.0170889664441347
-0.0140060121193528
-0.0110980197787284
-0.0083556752651929
-0.0057933400385081
-0.0034647621214389
-0.0014653806574642
7.550930604338646e-05
0.001012910157442
0.0012151007540524
0.0005947826430201
-0.0008670692332088
-0.0031077458988875
-0.0059825084172189
-0.0092789269983768
-0.0127419615164399
-0.0161047969013452
-0.0191205609589815
-0.0215887017548084
-0.0233722310513257
-0.0244046598672866
-0.0246854126453399
-0.0242658611387014
-0.0232314988970756
-0.021686166524887
-0.0197406895458698
-0.0175028555095195
-0.0150662828236818
-0.0125000774860382
-0.0098421685397624
-0.0070963613688945
-0.0042348932474851
-0.0012093596160411
0.0020355954766273
0.0055514946579933
0.0093736797571182
0.0135066118091344
0.0179159827530384
0.0225317403674125
0.0272584706544876
0.0319891609251499
0.0366172194480896
0.041043397039175
0.0451784133911132
0.0489444285631179
0.0522797144949436
0.0551448054611682
0.0575244389474391
0.0594244003295898
0.0608638040721416
0.0618619546294212
0.0624194629490375
0.0624999031424522
0.0620274692773819
0.0609079822897911
0.0590622797608375
0.0564558915793895
0.0531156584620475
0.0491320602595806
0.0446492247283458
0.0398444831371307
0.0349039696156978
0.0300030205398798
0.0252941083163023
0.0209010504186153
0.0169178824871778
0.0134080592542886
0.0103986393660306
0.0078728850930929
0.005772384814918
0.0040119588375091
0.0024993289262056
0.0011494355276226
-0.0001105554401874
-0.0013403836637735
-0.0025834739208221
-0.0038625225424766
-0.0051799993962049
-0.0065241856500506
-0.0078755188733339
-0.0092104179784655
-0.0105018205940723
-0.0117175541818141
-0.0128225935623049
-0.0137874893844127
-0.0145947765558958
-0.0152368564158678
-0.0157104600220918
-0.0160161349922418
-0.0161612145602703
-0.0161594077944755
-0.0160311050713062
-0.0158038623631
-0.0155010931193828
-0.0151321906596422
-0.0147037571296095
-0.014241624623537
-0.01381223089993
-0.0135357836261391
-0.0135776102542877
-0.0141190765425562
-0.0153179494664072
-0.017266497015953
-0.0199613720178604
-0.0232964884489774
-0.0270782560110092
-0.0310535971075296
-0.0349426120519638
-0.038473941385746
-0.0414155982434749
-0.0435935854911804
-0.0449024811387062
-0.0453116558492183
-0.0448620915412902
-0.0436511039733886
-0.0418151319026947
-0.0395212061703205
-0.0369581058621406
-0.0343158319592475
-0.0317589491605758
-0.0294037833809852
-0.0273057650774717
-0.0254595484584569
-0.0238105449825525
-0.0222730580717325
-0.0207493733614683
-0.0191467925906181
-0.0173898711800575
-0.0154262566938996
-0.0132263153791427
-0.0107788713648915
-0.0080896653234958
-0.0051825023256242
-0.002094630151987
0.0011354098096489
0.004479837603867
0.0079237520694732
0.0114546250551939
0.0150483893230557
0.0186595283448696
0.0222125463187694
0.0255939532071352
0.0286504924297332
0.0311996601521968
0.033046904951334
0.034004807472229
0.0339313931763172
0.0327786467969417
0.0306110549718141
0.0275946091860532
0.0239724610000848
0.0200217515230178
0.0160036571323871
0.0121298683807253
0.0085484199225902
0.0053428672254085
0.0025422524195164
0.0001367856748402
-0.0019076284952461
-0.0036394353955984
-0.0051144938915967
-0.0063861049711704
-0.0074917222373187
-0.0084455702453851
-0.0092411506921052
-0.0098570631816983
-0.0102632762864232
-0.010432880371809
-0.0103584686294198
-0.0100615434348583
-0.0095861395820975
-0.0089813359081745
-0.0082851760089397
-0.0075183967128396
-0.0066874101758003
-0.0057910596951842
-0.0048255277797579
-0.0037847692146897
-0.0026599466800689
-0.0014431327581405
-0.0001326389610767
0.0012681931257247
0.0027584107592701
0.0043434305116534
0.006031883880496
0.0078305639326572
0.009739551693201
0.011743277311325
0.0137967523187398
0.0158146321773529
0.0176730901002883
0.0192270446568727
0.0203350018709898
0.0208846479654312
0.0208153072744607
0.0201269164681434
0.0188732650130987
0.0171528849750757
0.0151026267558336
0.012887792661786
0.0106863602995872
0.0086693000048398
0.0069819558411836
0.0057319356128573
0.004983427003026
0.004755132831633
0.0050222985446453
0.0057233031839132
0.0067688887938857
0.0080547239631414
0.0094767734408378
0.0109419468790292
0.0123714143410325
0.0137033946812152
0.0148985590785741
0.015945415943861
0.0168599840253591
0.0176752749830484
0.0184257924556732
0.0191334262490272
0.0197961740195751
0.0203825626522302
0.0208321698009967
0.0210613440722227
0.0209766868501901
0.0204955879598855
0.0195669196546077
0.018182061612606
0.0163736026734113
0.0142111210152506
0.0117992907762527
0.0092735700309276
0.0067885732278227
0.0044988617300987
0.0025370870716869
0.0009921453893184
-0.0001136590726673
-0.0008424753323197
-0.0013404283672571
-0.0018124431371688
-0.0024815816432237
-0.0035457964986562
-0.005140118766576
-0.007315204013139
-0.0100381458178162
-0.0132049974054098
-0.0166552178561687
-0.0201895758509635
-0.0235928893089294
-0.0266568958759307
-0.0291968379169702
-0.0310623794794082
-0.0321492031216621
-0.0324124693870544
-0.0318763069808483
-0.0306320451200008
-0.0288232043385505
-0.0266216285526752
-0.0242002829909324
-0.0217108260840177
-0.0192719250917434
-0.0169650614261627
-0.0148332398384809
-0.0128819812089204
-0.0110855586826801
-0.0094000976532697
-0.0077782454900443
-0.0061803911812603
-0.0045820213854312
-0.0029755909927189
-0.001364896656014
0.0002458752132952
0.0018608493264764
0.003493130672723
0.0051599852740764
0.0068747997283935
0.0086379088461399
0.0104350605979561
0.0122452974319458
0.0140486033633351
0.0158284194767475
0.0175708979368209
0.0192595869302749
0.0208643302321434
0.0223312396556139
0.0235809180885553
0.0245155915617942
0.0250340532511472
0.0250536240637302
0.024535447359085
0.0235005617141723
0.0220222547650337
0.0202008262276649
0.0181423891335725
0.0159504599869251
0.0137254456058144
0.0115657923743128
0.0095651913434267
0.0078049562871456
0.0063468813896179
0.0052302610129117
0.0044705905020236
0.0040557142347097
0.0039415210485458
0.004053745418787
0.0042989421635866
0.0045822039246559
0.0048208180814981
0.0049461144953966
0.004902895539999
0.0046549439430236
0.0041905306279659
0.0035208966583013
0.0026729330420494
0.0016801245510578
0.0005711670964956
-0.000644277781248
-0.0019863564521074
-0.0035049319267272
-0.0052662044763565
-0.0073316097259521
-0.0097361467778682
-0.0124682504683732
-0.0154597088694572
-0.0185945387929677
-0.0217292252928018
-0.0247134827077388
-0.0274084340780973
-0.0297013968229293
-0.031517457216978
-0.0328291580080986
-0.0336647890508174
-0.0341119617223739
-0.034310445189476
-0.03443119302392
-0.0346448458731174
-0.0350904539227485
-0.0358537249267101
-0.0369570441544055
-0.0383642986416816
-0.0399967394769191
-0.0417467951774597
-0.0434877425432205
-0.0450847633183002
-0.0464063324034214
-0.0473334640264511
-0.0477662421762943
-0.0476280525326728
-0.0468698479235172
-0.0454747527837753
-0.0434604957699775
-0.0408785231411457
-0.0378086790442466
-0.0343490950763225
-0.0306049734354019
-0.0266834646463394
-0.022695068269968
-0.0187503099441528
-0.0149454344063997
-0.011345081962645
-0.0079737622290849
-0.0048176050186157
-0.0018295869231224
0.0010609757155179
0.0039325058460235
0.0068564619868993
0.0098895905539393
0.0130702666938304
0.0164171978831291
0.019934169948101
0.0236194357275962
0.0274685192853212
0.0314688123762607
0.0356000252068042
0.0398427955806255
0.044182002544403
0.048597864806652
0.0530492737889289
0.057457111775875
0.0616930201649665
0.0655767247080802
0.0688860863447189
0.0713818073272705
0.0728399008512497
0.0730839744210243
0.0720152109861373
0.0696330815553665
0.0660335570573806
0.0613854341208934
0.0559027083218097
0.0498244240880012
0.0433955341577529
0.0368439182639122
0.0303633324801921
0.0241085700690746
0.0181960836052894
0.0127052664756774
0.0076820524409413
0.0031461413018405
