bvp
-0.0025156531482934
0.00022529438138
0.0028293523937463
0.0052366498857736
0.0074203889816999
0.0093873925507068
0.0111769139766693
0.0128567591309547
0.0145121291279792
0.0162255372852087
0.0180589184165
0.0200509522110223
0.0222289748489856
0.0246175825595855
0.0272306241095066
0.0300566181540489
0.0330530889332294
0.0361510701477527
0.0392619892954826
0.0422834903001785
0.0451054833829402
0.0476157963275909
0.0497054047882556
0.0512703992426395
0.0522024109959602
0.0523735396564006
0.0516370795667171
0.0498498976230621
0.0469047613441944
0.0427629947662353
0.0374808385968208
0.0312224607914686
0.024255733937025
0.016928756609559
0.0096286796033382
0.0027336089406162
-0.0034294361248612
-0.0086135072633624
-0.0126651246100664
-0.0155263915657997
-0.01723388209939
-0.0179116856306791
-0.0177501775324344
-0.0169735830277204
-0.0158086698502302
-0.0144642908126115
-0.013120412826538
-0.0119182337075471
-0.0109524419531226
-0.010272029787302
-0.0098846610635519
-0.0097587881609797
-0.0098291765898466
-0.0100105190649628
-0.0102131804451346
-0.0103518823161721
-0.0103488955646753
-0.0101396264508366
-0.0096781589090824
-0.0089386170729994
-0.0079152137041091
-0.0066208723001182
-0.005083201918751
-0.0033419905230402
-0.0014518313109874
0.0005145408213138
0.002468965947628
0.0043152933940291
0.0059550963342189
0.0072877630591392
0.0082060303539037
0.0085925534367561
0.008322337642312
0.0072736367583274
0.0053498242050409
0.0025085117667913
-0.0012145228683948
-0.0056979469954967
-0.0107446480542421
-0.0161024574190378
-0.0214925836771726
-0.0266411006450653
-0.0313028804957866
-0.0352734103798866
-0.0383964926004409
-0.0405737459659576
-0.0417674407362937
-0.0419892221689224
-0.0412873513996601
-0.0397455766797065
-0.0374859943985939
-0.0346624143421649
-0.0314433760941028
-0.027995653450489
-0.0244757030159235
-0.0210233200341463
-0.0177541673183441
-0.0147580737248063
-0.0121035957708954
-0.0098417904227972
-0.0080062355846166
-0.006605926901102
-0.0056083663366734
-0.0049232449382543
-0.0044059022329747
-0.0038864405360072
-0.0032081257086247
-0.0022582279052585
-0.0009865954052656
0.0005935113877058
0.0024245146196335
0.0044284053146839
0.0065151369199156
0.008572950027883
0.0104539301246404
0.0119684906676411
0.0129033289849758
0.0130692468956112
0.0123583935201168
0.0107827493920922
0.0084802843630313
0.00568722281605
0.0026917054783552
-0.0002106954343616
-0.0027534768451005
-0.0047248727641999
-0.0059802560135722
-0.0064473799429833
-0.0061285523697733
-0.0050944862887263
-0.0034653388429433
-0.0013875600416213
0.0009783490095287
0.0034625520929694
0.0059000253677368
0.0081492755562067
0.0100971739739179
0.0116553492844104
0.0127648171037435
0.0134055260568857
0.0136006018146872
0.0134160425513982
0.0129575729370117
0.0123650785535573
0.0118065066635608
0.011463863775134
0.0115048559382557
0.012052190490067
0.0131622049957513
0.0148155251517891
0.0169294290244579
0.0193911120295524
0.0220852941274642
0.0248979218304157
0.0277047809213399
0.0303608253598213
0.0326990224421024
0.0345358327031135
0.035674724727869
0.0359099693596363
0.0350420549511909
0.0329082645475864
0.0294214636087417
0.0246036648750305
0.0186001770198345
0.0116718150675296
0.0041731428354978
-0.0034789498895406
-0.0108488742262125
-0.0175334308296442
-0.0232012923806905
-0.0276114046573638
-0.0306221470236778
-0.0321991890668869
-0.0324167273938655
-0.0314466618001461
-0.0295360926538705
-0.0269771330058574
-0.0240730121731758
-0.0211052987724542
-0.0183085836470127
-0.0158573631197214
-0.013863424770534
-0.0123781319707632
-0.0114029003307223
-0.0109093682840466
-0.0108525371178984
-0.0111692538484931
-0.0117765394970774
-0.0125773111358284
-0.0134668545797467
-0.0143378656357526
-0.0150881679728627
-0.0156297050416469
-0.0158946551382541
-0.0158406924456357
-0.0154561679810285
-0.0147595982998609
-0.0137920472770929
-0.012608858756721
-0.011280970647931
-0.009909875690937
-0.0086430730298161
-0.0076737040653824
-0.0072211632505059
-0.0074986689724028
-0.0086776604875922
-0.0108544314280152
-0.01401998847723
-0.0180416293442249
-0.0226682126522064
-0.027561217546463
-0.0323406867682933
-0.0366317555308342
-0.0401026308536529
-0.0424907654523849
-0.0436228923499584
-0.0434329770505428
-0.0419676080346107
-0.0393707267940044
-0.035854872316122
-0.0316693559288978
-0.0270715840160846
-0.0223041474819183
-0.017575729638338
-0.0130451340228319
-0.0088129919022321
-0.0049227774143218
-0.0013675168156623
0.0018992070108652
0.0049493368715047
0.0078678708523511
0.0107400380074977
0.0136353727430105
0.0165959242731332
0.0196342896670103
0.0227378606796264
0.0258756224066019
0.0290068704634904
0.0320902951061725
0.0350903421640396
0.0379756949841976
0.0407052561640739
0.0432053804397583
0.0453511774539947
0.0469638034701347
0.0478292442858219
0.047736432403326
0.0465196445584297
0.0440903268754482
0.0404590182006359
0.0357480198144912
0.0301869064569473
0.0240883119404315
0.0178102105855941
0.0117151774466037
0.0061386302113533
0.0013722218573093
-0.0023447945713996
-0.0048370715230703
-0.0060065034776926
-0.0058419406414031
-0.0044224932789802
-0.0019096676260232
0.0014693457633256
0.0054398160427808
0.0097027420997619
0.013967121951282
0.0179822593927383
0.0215625297278165
0.0246032532304525
0.027084145694971
0.0290581826120615
0.0306286141276359
0.0319193378090858
0.0330459251999855
0.0340948700904846
0.0351148396730423
0.0361187905073165
0.0370926335453987
0.0380023792386055
0.0387957170605659
0.0394056253135204
0.0397614166140556
0.0398010946810245
0.0394786857068538
0.0387636125087738
0.0376311428844928
0.0360481739044189
0.0339614897966384
0.031295008957386
0.027961267158389
0.0238836891949176
0.01902268640697
0.013404662720859
0.0071442760527133
0.0004410855472087
-0.0064489301294088
-0.0132475327700376
-0.0196820553392171
-0.0255072452127933
-0.0305229108780622
-0.0345866866409778
-0.0376219227910041
-0.0396235808730125
-0.0406586527824401
-0.040853276848793
-0.0403713211417198
-0.0393937081098556
-0.0381001271307468
-0.0366535149514675
-0.0351855754852294
-0.0337866879999637
-0.0325094573199749
-0.031379260122776
-0.0303963869810104
-0.0295326430350542
-0.02873445302248
-0.0279335752129554
-0.0270592868328094
-0.0260465070605278
-0.0248380377888679
-0.0233866851776838
-0.0216617472469806
-0.019652796909213
-0.0173600204288959
-0.0147751336917281
-0.0118757355958223
-0.0086512025445699
-0.0051425592973828
-0.0014568641781806
0.0022519752383232
0.0058047585189342
0.009001363068819
0.011622448451817
0.0134457228705286
0.0142747946083545
0.0139714516699314
0.0124852210283279
0.0098723517730832
0.0062977522611618
0.002020257525146
-0.0026342822238802
-0.0073078144341707
-0.0116560664027929
-0.0154008157551288
-0.0183636136353015
-0.0204688869416713
-0.0217300709336996
-0.0222320891916751
-0.022110927850008
-0.021529097110033
-0.0206540375947952
-0.0196459461003541
-0.0186508074402809
-0.0177909731864929
-0.017151866108179
-0.0167689267545938
-0.0166192650794982
-0.0166235566139221
-0.016664644703269
-0.0166189391165971
-0.0163849629461765
-0.0158993732184171
-0.0151417991146445
-0.0141306538134813
-0.0129112359136343
-0.0115383379161357
-0.0100578907877206
-0.008494533598423
-0.0068480744957923
-0.0050954641774296
-0.0031971097923815
-0.0011118706315755
0.0011805766262114
0.0036554334219545
0.0062179388478398
0.0086898850277066
0.0108248349279165
0.0123480074107646
0.0130050927400588
0.0126095162704586
0.0110796242952346
0.0084602907299995
0.0049240170046687
0.0007490143179893
-0.0037172529846429
-0.0080995121970772
-0.0120384162291884
-0.0152320312336087
-0.0174642838537693
-0.0186136122792959
-0.0186510942876338
-0.0176373310387134
-0.0157106723636388
-0.0130624268203973
-0.0099101904779672
-0.0064768623560667
-0.002969454973936
0.0004444364458322
0.003652224317193
0.0065983198583126
0.0092761823907494
0.0117135290056467
0.0139546981081366
0.0160457901656627
0.0180248282849788
0.0199159570038318
0.021723112091422
0.0234246868640184
0.024979680776596
0.026344483718276
0.0274917110800743
0.0284265428781509
0.0291904285550117
0.0298490561544895
0.0304759889841079
0.0311332121491432
0.0318436026573181
0.0325661897659301
0.0331899896264076
0.0335492715239524
0.03345587849617
0.0327409729361534
0.031290054321289
0.0290620513260364
0.0260996185243129
0.0225324407219886
0.018566396087408
0.0144575145095586
0.0104763694107532
0.0068722967989742
0.0038475538603961
0.0015436522662639
3.4166499972343445e-05
-0.0006778985261917
-0.0006551090627908
-1.3357959687709808e-05
0.0010942700318992
0.0024925656616687
0.0039923842996358
0.0053974529728293
0.0065255099907517
0.0072449990548193
0.0075114322826266
0.0073887100443243
0.0070437975227832
0.006710534915328
0.0066366582177579
0.0070329769514501
0.0080329338088631
0.0096691148355603
0.0118722692131996
0.0144881680607795
0.0173073019832372
0.0201045013964176
0.0226720124483108
0.0248340852558612
0.0264571905136108
0.0274655316025018
0.027850542217493
0.0276629626750946
0.0269874427467584
0.0259097684174776
0.0244875643402338
0.0227296743541955
0.0205903369933366
0.0179849490523338
0.0148241128772497
0.0110514443367719
0.0066731665283441
0.0017760302871465
-0.0034718923270702
-0.0088422112166881
-0.014080150052905
-0.0189390629529953
-0.0232111252844333
-0.0267533157020807
-0.0295064747333526
-0.0315024144947528
-0.0328547842800617
-0.0337342396378517
-0.0343344360589981
-0.0348377041518688
-0.0353877916932106
-0.0360746718943119
-0.0369294472038745
-0.0379253029823303
-0.0389870814979076
-0.0400065407156944
-0.0408529005944728
-0.0413829460740089
-0.0414625145494937
-0.0409934483468532
-0.0399304628372192
-0.0382859036326408
-0.0361299663782119
-0.0335851199924945
-0.030809536576271
-0.0279731098562479
-0.0252348352223634
-0.0227284301072359
-0.0205548554658889
-0.0187742803245782
-0.0173989608883857
-0.0163935460150241
-0.0156822446733713
-0.015162936411798
-0.0147279324010014
-0.0142858689650893
-0.0137837324291467
-0.0132259363308548
-0.0126760518178343
-0.0122352447360754
-0.0120119797065854
-0.0120980385690927
-0.0125530986115336
-0.013394696637988
-0.0145902205258607
-0.0160507895052433
-0.0176372174173593
-0.0191857703030109
-0.0205380581319332
-0.021553311496973
-0.0221043061465024
-0.0220747403800487
-0.0213694665580987
-0.0199335888028144
-0.0177673157304525
-0.0149281276389956
-0.011521914973855
-0.0076874541118741
-0.0035788957029581
0.0006493646651506
0.0048561068251729
0.0089257024228572
0.0127725768834352
0.0163346920162439
0.0195675790309906
0.0224476028233766
0.0249763801693916
0.0271782986819744
0.029096245765686
0.0307906493544578
0.0323366001248359
0.0338148698210716
0.0353011637926101
0.0368577539920806
0.0385260879993438
0.0403194352984428
0.0422198325395584
0.0441790968179702
0.0461133420467376
0.0478915087878704
0.0493343733251094
0.0502305664122104
0.0503651276230812
0.0495584793388843
0.0477063246071338
0.0448039844632148
0.0409487411379814
0.0363264605402946
0.0311885774135589
0.0258226804435253
0.0205225385725498
0.015561587177217
0.0111711667850613
0.0075247534550726
0.0047246352769434
0.0027891378849744
0.0016491869464516
0.0011613946408033
0.0011332286521792
0.0013536559417843
0.0016262056306004
0.0017997855320572
0.0017927763983607
0.0016065388917922
0.0013187704607844
0.0010524410754442
0.0009331507608294
0.0010529104620218
0.0014518816024065
0.0021193660795688
0.003000458702445
0.0039990600198507
0.0049902386963367
0.0058497469872236
0.0064870808273553
0.0068672373890876
0.0070127733051776
0.0069865975528955
0.006867803633213
0.0067304391413927
0.0066205039620399
0.006520951166749
0.0063141994178295
0.0057724267244338
0.0045921355485916
0.0024599842727184
-0.0008769445121288
-0.005559928715229
-0.0115930214524269
-0.0188374742865562
-0.0270234532654285
-0.035779807716608
-0.0446811392903327
-0.0533023327589035
-0.0612615533173084
-0.0682428032159805
-0.0740072950720787
-0.07840246707201
-0.0813665613532066
-0.0829243659973144
-0.0831721052527427
-0.0822560638189315
-0.0803571194410324
-0.0776817873120307
-0.0744463801383972
-0.0708520114421844
-0.0670623555779457
-0.0631922781467437
-0.059306900948286
-0.0554292351007461
-0.0515534467995166
-0.0476584658026695
-0.0437187291681766
-0.0397110842168331
-0.0356158688664436
-0.0314152762293815
-0.0270942412316799
-0.0226424932479858
-0.0180595088750123
-0.0133657194674015
-0.0086100026965141
-0.0038652662187814
0.0007820948958396
0.0052434206008911
0.0094360318034887
0.0132826995104551
0.0167028494179248
0.0196038857102394
0.0218808688223361
0.0234269853681325
0.0241531729698181
0.0240144189447164
0.0230374615639448
0.0213374570012092
0.0191081147640943
0.0165878124535083
0.0140211395919322
0.011627908796072
0.0095852464437484
0.0080247595906257
0.0070358477532863
0.0066674128174781
0.0069287121295928
0.0077914744615554
0.0091944597661495
0.0110511258244514
0.0132597684860229
0.015712670981884
0.0183022692799568
0.0209293738007545
0.0235133618116378
0.0259976089000701
0.0283531509339809
0.0305832251906394
0.0327216982841491
0.0348233506083488
0.0369502417743206
0.0391548573970794
0.0414649955928325
0.0438807643949985
0.0463829077780246
0.0489427149295806
0.0515291839838027
0.054113183170557
0.0566691346466541
0.059175930917263
0.0616136044263839
0.063954621553421
0.0661588683724403
0.0681729093194007
0.0699212476611137
0.0712881162762641
0.0721059292554855
0.07216477394104
0.0712411180138588
0.0691350698471069
0.0657090321183204
0.0609229058027267
0.0548564530909061
0.0477094613015651
0.0397836901247501
0.0314573273062706
0.0231489837169647
0.0152685204520821
0.0081714019179344
0.0021310150623321
-0.0026765223592519
-0.006184484809637
-0.008440401405096
-0.009593273513019
-0.0098655456677079
-0.0095216631889343
-0.0088341021910309
-0.0080415792763233
-0.0073141953907907
-0.0067481426522135
-0.0063817244954407
-0.0062083746306598
-0.0061881826259195
-0.0062702191062271
-0.0064155673608183
-0.006603030487895
-0.0068166959099471
-0.0070296782068908
-0.0071978252381086
-0.0072648990899324
-0.0071732648648321
-0.0068749887868762
-0.0063399700447916
-0.0055623073130846
-0.0045676114968955
-0.0034193871542811
-0.0022226357832551
-0.0011236183345317
-0.0003046216443181
2.7109868824481964e-05
-0.0003353767096996
-0.001554824411869
-0.0037062196061015
-0.0067592775449156
-0.0105911456048488
-0.0150134125724434
-0.0197990760207176
-0.0247067417949438
-0.0295016467571258
-0.0339697450399398
-0.03792629763484
-0.0412243902683258
-0.0437597148120403
-0.0454685240983963
-0.0463299229741096
-0.0463747829198837
-0.0456839799880981
-0.0443714521825313
-0.0425662174820899
-0.0403991267085075
-0.0379907563328743
-0.0354394949972629
-0.0328106246888637
-0.0301290601491928
-0.0273803323507308
-0.0245219990611076
-0.021504059433937
-0.0182924643158912
-0.0148867182433605
-0.0113254925236105
-0.0076826107688248
-0.0040604379028081
-0.0005814470350742
0.0026256181299686
0.0054437704384326
0.0077839037403464
0.0095953829586505
0.0108724795281887
0.0116557227447628
0.0120230261236429
0.0120700560510158
0.0118864737451076
0.0115319639444351
0.0110128400847315
0.0102708814665675
0.0091964546591043
0.0076560424640774
0.0055222753435373
0.0027090432122349
-0.0007951147854328
-0.0049093719571828
-0.0094614699482917
-0.0142063582316041
-0.0188589915633201
-0.0231305267661809
-0.0267622545361518
-0.0295550301671028
-0.031387835741043
-0.0322240702807903
-0.0321069620549678
-0.0311418883502483
-0.0294701978564262
-0.0272471718490123
-0.0246302969753742
-0.021772289648652
-0.0188123192638158
-0.0158644467592239
-0.0130043691024184
-0.0102582108229398
-0.0076003563590347
-0.0049637807533144
-0.002260350389406
0.000593617092818
0.0036554336547851
0.0069453278556466
0.0104446606710553
0.0140991928055882
0.0178256779909133
0.0215164087712764
0.0250417161732912
0.0282602868974208
0.0310399085283279
0.0332785472273826
0.0349168628454208
0.0359420739114284
0.0363841913640499
0.0363006480038166
0.0357499718666076
0.034765787422657
0.0333443731069564
0.0314521603286266
0.0290506556630134
0.0261291358619928
0.0227319467812776
0.0189671926200389
0.0149946585297584
0.0110053773969411
0.0072030173614621
0.0037864171899855
0.000930325128138
-0.0012355339713394
-0.0026468769647181
-0.0033200299367308
-0.0033529964275658
-0.0029053254984319
-0.0021646562963724
-0.0013181157410144
-0.0005352031439542
4.475843161344528e-05
0.0003239251673221
0.0002479907125234
-0.0002038143575191
-0.0010259132832288
-0.0021829698234796
-0.0036063375882804
-0.0051966132596135
-0.0068307644687592
-0.0083742197602987
-0.0096965795382857
-0.0106846373528242
-0.0112495273351669
-0.0113328956067562
-0.0109163979068398
-0.0100289359688758
-0.0087439976632595
-0.0071732653304934
-0.0054697645828127
-0.0038335309363901
-0.0024972129613161
-0.0016910517588257
-0.0016063582152128
-0.0023671444505453
-0.0040135406889021
-0.0065014907158911
-0.0097164222970604
-0.0134974848479032
-0.0176681671291589
-0.0220584087073802
-0.0265066176652908
-0.0308484677225351
-0.0349084287881851
-0.0385066382586956
-0.0414813943207263
-0.0437124781310558
-0.0451300330460071
-0.0457084365189075
-0.0454547703266143
-0.0443979501724243
-0.0425795018672943
-0.0400508530437946
-0.0368833243846893
-0.0331857800483703
-0.0291113629937171
-0.0248411707580089
-0.0205550901591777
-0.0164013169705867
-0.0124667789787054
-0.0087598990648984
-0.0052204802632331
-0.0017533507198095
0.0017333719879388
0.0053018722683191
0.0089747346937656
0.0127390837296843
0.0165592692792415
0.0203912928700447
0.0241939052939414
0.0279334373772144
0.0315836258232593
0.0351249948143959
0.0385430939495563
0.041820965707302
0.0449311211705207
0.0478357076644897
0.0504887104034423
0.0528331957757473
0.054797489196062
0.056288506835699
0.0571813695132732
0.0573180392384529
0.0565273948013782
0.0546649992465972
0.0516554117202758
0.0475179217755794
0.0423723198473453
0.0364314541220665
0.0299826897680759
0.0233582705259323
0.0169003829360008
0.0109290899708867
0.0057122414000332
0.0014357338659465
-0.0018117348663508
-0.0040301922708749
-0.0052883187308907
-0.0057046255096793
-0.0054304515942931
-0.0046325880102813
-0.0034797175321727
-0.0021352146286517
-0.0007496097823604
0.0005511925555765
0.0016760170692577
0.0025731967762112
0.0032340551260858
0.0036931734066456
0.0040154536254704
0.004273597151041
0.0045335618779063
0.0048523829318583
0.0052778688259422
0.0058453269302845
0.0065752249211072
0.0074749896302819
0.008544378913939
0.0097847608849406
0.0112059423699975
0.0128146009519696
0.0145902698859572
0.0164749138057231
0.0183809474110603
0.0202032607048749
0.0218230504542589
0.0231015011668205
0.0238747261464595
0.0239607449620962
0.0231772325932979
0.0213663391768932
0.0184243470430374
0.0143275447189807
0.0091478414833545
0.0030596442520618
-0.003669599071145
-0.0107130482792854
-0.0177289471030235
-0.024397175759077
-0.0304419696331024
-0.0356426909565925
-0.0398410931229591
-0.0429528914391994
-0.0449758991599082
-0.0459841266274452
-0.0461122244596481
-0.0455360971391201
-0.044449221342802
-0.0430410988628864
-0.0414841473102569
-0.0399232730269432
-0.0384652055799961
-0.0371747575700283
-0.0360781550407409
-0.0351654477417469
-0.0343911498785018
-0.0336781665682792
-0.0329300388693809
-0.0320520140230655
-0.0309704355895519
-0.0296379942446947
-0.0280258525162935
-0.026114584878087
-0.0238913986831903
-0.0213513821363449
-0.0184993483126163
-0.0153525108471512
-0.0119434725493192
-0.0083201322704553
-0.0045405616983771
-0.0006641140207648
0.0032586054876446
0.0071892738342285
0.0110878506675362
0.0148826939985156
0.0184435024857521
0.0215752683579921
0.0240388736128807
0.0255915038287639
0.0260340012609958
0.0252545326948165
0.0232581906020641
0.0201719030737876
0.016226053237915
0.0117267314344644
0.0070221321657299
0.0024581467732787
-0.0016639148816466
-0.0051119625568389
-0.0077364882454276
-0.0094783212989568
-0.010364013724029
-0.010488761588931
-0.0099957380443811
-0.0090586896985769
-0.0078681427985429
-0.006617113482207
-0.0054831695742905
-0.0046102390624582
-0.0040976288728415
-0.0039964807219803
-0.0043076812289655
-0.0049812151119112
-0.0059192716144025
-0.0069831283763051
-0.0080101313069462
-0.008842502720654
-0.0093528423458337
-0.0094555988907814
-0.0091100558638572
-0.0083195008337497
-0.0071248020976781
-0.0055937310680747
-0.0038096660282462
-0.0018611752893775
0.0001657054526731
0.002191424369812
0.0041435770690441
0.0059518706984817
0.0075380047783255
0.008808079175651
0.0096496380865573
0.0099337343126535
0.0095309000462293
0.0083427354693412
0.0063356505706906
0.0035620310809463
0.0001648650504648
-0.0036321023944765
-0.0075504966080188
-0.0112946424633264
-0.014587003737688
-0.0171973668038845
-0.0189632233232259
-0.0197950694710016
-0.0196692757308483
-0.0186176411807537
-0.0167212765663862
-0.0141094261780381
-0.0109535949304699
-0.0074503263458609
-0.0037972964346408
-0.0001702653244137
0.0032942360267043
0.006506148725748
0.0094185434281826
0.0120210563763976
0.0143364202231168
0.0164167508482933
0.0183330625295639
0.0201603882014751
0.0219689048826694
0.0238270927220582
0.0258087776601314
0.0279915556311607
0.0304466858506202
0.0332267209887504
0.0363515764474868
0.0397946946322917
0.0434746667742729
0.0472537465393543
0.050943586975336
0.0543220788240432
0.0571613386273384
0.0592579543590545
0.0604522936046123
0.0606294088065624
0.0597089454531669
0.0576370954513549
0.0543827340006828
0.0499366670846939
0.0443198382854461
0.0376024805009365
0.0299249328672885
0.0215073190629482
0.0126422680914402
0.0036713797599077
-0.0050503266975283
-0.013193879276514
-0.0204910468310117
-0.0267572570592165
-0.0319011211395263
-0.0359227247536182
-0.038900002837181
-0.0409657321870327
-0.0422860532999038
-0.0430460087954998
-0.0434349328279495
-0.0436266139149665
-0.0437592640519142
-0.0439231619238853
-0.0441578477621078
-0.0444563813507556
-0.0447756871581077
-0.0450506135821342
-0.0452057495713233
-0.0451612025499343
-0.0448357574641704
-0.0441543497145175
-0.0430591776967048
-0.0415148958563804
-0.0395062938332557
-0.0370366312563419
-0.0341278612613678
-0.0308194290846586
-0.0271664205938577
-0.0232370570302009
-0.0191109757870435
-0.014879934489727
-0.0106470426544547
-0.0065203360281884
-0.0026003415696322
0.0010329062351956
0.0043243821710348
0.0072370320558547
0.009737554937601
0.0117807686328887
0.0132950600236654
0.0141747314482927
0.014291463419795
0.01352727599442
0.011815533041954
0.0091735254973173
0.0057165282778441
0.001651145517826
-0.0027476577088236
-0.0071702292189002
-0.0113123506307601
-0.0149121657013893
-0.0177718047052621
-0.0197620522230863
-0.0208152718842029
-0.0209120586514472
-0.0200719162821769
-0.0183527767658233
-0.0158512014895677
-0.0126994587481021
-0.0090638697147369
-0.0051428228616714
-0.0011566653847694
0.002674164250493
0.0061591630801558
0.0091677540913224
0.0116496784612536
0.0136392256245017
0.0152424545958638
0.016612084582448
0.0179182346910238
0.0193208530545234
0.0209427867084741
0.0228468775749206
0.0250292550772428
0.0274310950189828
0.0299590118229389
0.0325069725513458
0.034975279122591
0.0372825749218463
0.0393720604479312
0.041215643286705
0.0428126156330108
0.0441761538386344
0.0453106500208377
0.0461887121200561
0.0467356070876121
0.0468290448188781
0.046315599232912
0.0450382269918918
0.0428710803389549
0.0397540740668773
0.0357138104736804
0.0308645106852054
0.0253933612257242
0.0195384137332439
0.0135629437863826
0.0077280192635953
0.0022692859638482
-0.0026176325045526
-0.0067858221009373
-0.0101448092609643
-0.0126667879521846
-0.0143863875418901
-0.0153962355107069
-0.0158430058509111
-0.0159165691584348
-0.0158254411071538
-0.01576579362154
-0.0158936753869056
-0.0163059905171394
-0.0170343592762947
-0.0180509835481643
-0.0192819945514202
-0.0206264294683933
-0.0219749249517917
-0.0232205390930175
-0.0242686439305543
-0.0250502843409776
-0.0255252718925476
-0.0256700403988361
-0.0254637822508811
-0.0248827505856752
-0.0239026565104722
-0.0225047804415226
-0.0206794571131467
-0.0184289701282978
-0.0157787445932626
-0.0127965398132801
-0.0096093220636248
-0.0064077991992235
-0.0034355642274022
-0.0009651240543462
0.0007375893183052
0.0014583722222596
0.0010787231149151
-0.0004004596266895
-0.0028613335452973
-0.006084797438234
-0.0097721368074417
-0.0135776977986097
-0.0171518214046955
-0.0201818421483039
-0.0224221255630254
-0.0237134676426649
-0.0239907223731279
-0.0232772603631019
-0.0216743387281894
-0.0193493664264678
-0.0165139082819223
-0.0133900670334696
-0.0101789673790335
-0.0070410799235105
-0.0040893042460083
-0.0013911174610257
0.0010285507887601
0.0031853364780545
0.0051281345076859
0.0069262092001736
0.0086541036143898
0.0103769246488809
0.0121409902349114
0.0139722675085067
0.0158787183463573
0.0178522579371929
0.0198698937892913
0.0218964964151382
0.0238915346562862
0.0258160587400198
0.0276329293847084
0.029300719499588
0.0307666473090648
0.0319586545228958
0.0327762551605701
0.0330902598798275
0.0327592194080352
0.0316536873579025
0.0296792797744274
0.026799326762557
0.023053340613842
0.0185642968863248
0.0135347191244363
0.0082327406853437
0.0029619061388075
-0.0019891313277184
-0.0063915448263287
-0.0100868046283721
-0.0129858823493123
-0.0150824729353189
-0.0164486151188612
-0.0171935409307479
-0.0174240097403526
-0.0172348320484161
-0.0167121365666389
-0.015930812805891
-0.0149502269923686
-0.0138118863105773
-0.0125363068655133
-0.0111200716346502
-0.0095360726118087
-0.0077432156540453
-0.0057080909609794
-0.0034256435465067
-0.0009272476891055
0.0017215458210557
0.0044296705164015
0.0070938975550234
0.0096133509650826
0.0119012854993343
0.0138915404677391
0.0155401173979043
0.0168251767754554
0.0177473258227109
0.0183301195502281
0.0186202507466077
0.018685333430767
0.0186025351285934
0.0184344872832298
0.0182033870369195
0.0178750082850456
0.0173540785908699
0.0164940878748893
0.0151249971240758
0.013092384673655
0.0102946180850267
0.0067083053290843
0.0024006934836506
-0.0024711582809686
-0.0076758223585784
-0.0129350526258349
-0.0179563872516155
-0.0224635507911443
-0.0262250639498233
-0.0290813371539115
-0.0309585276991128
-0.0318625941872596
-0.0318639017641544
-0.0310815759003162
-0.0296661145985126
-0.0277810953557491
-0.0255893841385841
-0.0232430174946784
-0.0208725333213806
-0.0185770243406295
-0.0164187029004097
-0.0144234597682952
-0.0125843053683638
-0.0108650587499141
-0.0092107355594635
-0.0075670639052987
-0.0058959126472473
-0.004178091417998
-0.0024096183478832
-0.0005973386578261
0.0012451922520995
0.0031007234938442
0.0049493727274239
0.0067684040404856
0.0085317492485046
0.0102097876369953
0.0117706563323736
0.0131837101653218
0.0144256083294749
0.0154869360849261
0.01636703312397
0.017050789669156
0.017483826726675
0.0175626911222934
0.017139384523034
0.0160415675491094
0.0141162443906068
0.0112774726003408
0.007525528781116
0.0029469365254044
-0.0022818804718554
-0.007901569828391
-0.0136031247675418
-0.0190695822238922
-0.0240056812763214
-0.0281585045158863
-0.0313368327915668
-0.0334223136305809
-0.0343658626079559
-0.0341798961162567
-0.0329338274896144
-0.0307459980249404
-0.0277721546590328
-0.024197919294238
-0.0202333815395832
-0.016100276261568
-0.0120100453495979
-0.0081434091553092
-0.0046392562799155
-0.0015913187526166
0.0009522573091089
0.0029901231173425
0.0045645092613995
0.0057474197819828
0.0066250837408006
0.0072908247821033
0.007841944694519
0.0083722965791821
0.0089611550793051
0.0096651399508118
0.0105168651789426
0.0115268351510167
0.0126842502504587
0.0139579121023416
0.0152992997318506
0.0166495405137538
0.0179511085152626
0.0191567689180374
0.020223194733262
0.0210878159850835
0.0216462053358554
0.0217477548867464
0.0212120600044727
0.0198621749877929
0.0175680611282587
0.0142852831631898
0.0100761726498603
0.0051124729216098
-0.000338890356943
-0.0059482222422957
-0.0113687682896852
-0.0162835512310266
-0.0204386562108993
-0.0236549172550439
-0.0258318334817886
-0.0269573330879211
-0.0271092075854539
-0.0264354385435581
-0.0251245126128196
-0.0233793556690216
-0.0213980134576559
-0.0193566381931304
-0.017391650006175
-0.0155871957540512
-0.0139735210686922
-0.01253242790699
-0.0112058296799659
-0.0099083743989467
-0.0085419230163097
-0.007006712257862
-0.0052135623991489
-0.0031022820621728
-0.0006551891565322
0.0021040458232164
0.0051198918372392
0.0083162290975451
0.0116080129519104
0.0149103263393044
0.0181432925164699
0.0212364140897989
0.0241344515234231
0.0267997644841671
0.0292055644094944
0.0313202627003192
0.0330882109701633
0.0344170369207859
0.0351768806576728
0.035208910703659
0.0343468934297561
0.0324562937021255
0.029480941593647
0.0254777073860168
0.0206243433058261
0.015200656838715
0.0095525374636054
0.0040477337315678
-0.0009669922292232
-0.0052002742886543
-0.0084399133920669
-0.0105649316683411
-0.0115481000393629
-0.011451443657279
-0.0104152001440525
-0.0086404904723167
-0.0063638603314757
-0.003825606778264
-0.001238196156919
0.0012398157268762
0.0035185753367841
0.0055775018408894
0.0074533829465508
0.0092204809188842
0.0109697850421071
0.012792183086276
0.0147649580612778
0.0169382356107234
0.0193226113915443
0.0218876115977764
0.024572480469942
0.0272987652570009
0.0299817863851785
0.0325420014560222
0.0349132046103477
0.0370476506650447
0.0389184392988681
0.0405162014067173
0.0418398156762123
0.0428855493664741
0.0436338521540164
0.044031124562025
0.0439766943454742
0.0433310680091381
0.0419463813304901
0.0397003218531608
0.0365164689719677
0.0323758535087108
0.0273312088102102
0.0215204767882823
0.0151691958308219
0.0085730627179145
0.0020586475729942
-0.0040635466575622
-0.0095338243991136
-0.0141603089869022
-0.0178267695009708
-0.0204980596899986
-0.0222192611545324
-0.0231047961860895
-0.0233206320554018
-0.0230622235685586
-0.0225336793810129
-0.0219349469989538
-0.0214532781392335
-0.0212510135024786
-0.0214508697390556
-0.0221291072666645
-0.0233222916722297
-0.0250353701412677
-0.0272343475371599
-0.0298283267766237
-0.0326628386974334
-0.035535741597414
-0.0382265821099281
-0.0405249930918216
-0.042250070720911
-0.0432599037885665
-0.0434584207832813
-0.0428059212863445
-0.0413280874490737
-0.0391135700047016
-0.0362967513501644
-0.0330345407128334
-0.0294881500303745
-0.025808822363615
-0.0221289936453104
-0.018570952117443
-0.015271034091711
-0.0123958718031644
-0.0101326368749141
-0.0086607635021209
-0.0081224627792835
-0.0085961557924747
-0.0100757479667663
-0.0124666448682546
-0.0155978538095951
-0.0192423146218061
-0.0231461562216281
-0.0270640365779399
-0.0307858735322952
-0.0341467149555683
-0.0370265170931816
-0.0393475964665412
-0.0410723052918911
-0.0422021932899951
-0.0427761226892471
-0.0428622551262378
-0.0425420105457305
-0.041890263557434
-0.0409635603427886
-0.0398004874587059
-0.0384228639304637
-0.0368337519466877
-0.0350185707211494
-0.0329479798674583
-0.030580811202526
-0.0278709847480058
-0.0247781742364168
-0.0212774686515331
-0.0173641014844179
-0.0130521431565284
-0.0083681102842092
-0.0033430033363401
0.0019924165681004
0.0076085957698524
0.0134712625294923
0.0195256415754556
0.0256846826523542
0.0318349003791809
0.0378526896238327
0.0436197482049465
0.0490328297019004
0.0540056563913822
0.0584634989500045
0.0623306185007095
0.0655157268047332
0.0679061710834503
0.0693742558360099
0.069791704416275
0.0690487921237945
0.0670766606926918
0.0638673156499862
0.05948406457901
0.0540651865303516
0.0478231757879257
0.0410320647060871
0.0340005941689014
0.0270389858633279
0.0204281136393547
0.0143970232456922
0.0091088386252522
0.0046523124910891
0.0010381094180047
-0.0018017254769802
-0.0040111751295626
-0.0057964553125202
-0.0073941191658377
-0.0090319756418466
-0.0108964629471302
-0.0131048811599612
-0.015683390200138
-0.018560703843832
-0.0215798486024141
-0.0245245918631553
-0.0271598622202873
-0.0292788390070199
-0.0307382941246032
-0.0314708612859249
-0.0314786992967128
-0.0308164730668067
-0.0295697450637817
-0.027835052460432
-0.0257086120545864
-0.0232887137681245
-0.0206840094178915
-0.0180111862719059
-0.0153796812519431
-0.0128785297274589
-0.0105775939300656
-0.0085425861179828
-0.0068542826920747
-0.0056217340752482
-0.0049835159443318
-0.0050929202698171
-0.0060867993161082
-0.0080448482185602
-0.0109523497521877
-0.0146787753328681
-0.0189773477613925
-0.0235097222030162
-0.0278942100703716
-0.0317607410252094
-0.034794844686985
-0.0367626100778579
-0.0375198125839233
-0.037014327943325
-0.0352818593382835
-0.0324330739676952
-0.0286384131759405
-0.0241126157343387
-0.0190943386405706
-0.0138203836977481
-0.0085014458745718
-0.0033039823174476
0.0016634538769721
0.0063524842262268
0.0107576381415128
0.0148911643773317
0.0187660288065671
0.022390030324459
0.0257671512663364
0.0289016515016555
0.0318007916212081
0.0344744622707366
0.0369312390685081
0.0391717255115509
0.0411844924092292
0.0429499261081218
0.044448047876358
0.0456633158028125
0.0465882904827594
0.0472279489040374
0.0475982055068016
0.0477187149226665
0.0476052165031433
0.0472570285201072
0.0466365814208984
0.0456525534391403
0.0441610664129257
0.0419890731573104
0.0389741398394107
0.0350097678601741
0.0300834067165851
0.0242957435548305
0.0178566817194223
0.0110624562948942
0.0042599998414516
-0.0021975170820951
-0.0079942755401134
-0.0128813497722148
-0.0166899058967828
-0.0193351246416568
-0.0208140928298234
-0.0211974401026964
-0.0206177905201911
-0.0192551296204328
-0.0173173435032367
-0.0150231923907995
-0.0125944465398788
-0.0102470591664314
-0.0081660579890012
-0.0064744558185338
-0.0052249822765588
-0.0044163949787616
-0.0040127206593751
-0.0039589889347553
-0.0041962303221225
-0.004670338705182
-0.0053310487419366
-0.0061245076358318
-0.0069870706647634
-0.0078458078205585
-0.0086219366639852
-0.0092317499220371
-0.0095871463418006
-0.0096012558788061
-0.0091985650360584
-0.0083237886428833
-0.0069477539509534
-0.0050732586532831
-0.0027409978210926
-3.0897557735443115e-05
0.0029416782781481
0.0060293115675449
0.0090524274855852
0.0117976889014244
0.0140206571668386
0.0154597731307148
0.0158653259277343
0.0150417033582925
0.0128915421664714
0.0094458926469087
0.0048738224431872
-0.0005277534946799
-0.0063642207533121
-0.0121940588578581
-0.0175918117165565
-0.0222032722085714
-0.0257779285311698
-0.0281785447150468
-0.0293774604797363
-0.0294463895261287
-0.0285364110022783
-0.0268480330705642
-0.0245997384190559
-0.022000502794981
-0.0192270763218402
-0.0164111517369747
-0.013638874515891
-0.0109532382339239
-0.0083545166999101
-0.0058085080236196
-0.0032668970525264
-0.000688636675477
0.0019485671073198
0.0046459250152111
0.0073861181735992
0.0101436823606491
0.012898308224976
0.0156336463987827
0.0183232687413692
0.0209224373102188
0.0233689229935407
0.0255877841264009
0.0275028944015502
0.0290554743260145
0.0302190855145454
0.0309970639646053
0.031402938067913
0.0314422138035297
0.0311048161238431
0.0303633622825145
0.0291739627718925
0.0274716913700103
0.0251509603112936
0.022039758041501
0.0178954005241394
0.0124438982456922
0.0054562771692872
-0.0031749028712511
-0.0134016815572977
-0.0250365883111953
-0.0377800427377224
-0.0512265339493751
-0.0648543760180473
-0.0780200585722923
-0.0899824351072311
-0.0999770388007164
-0.1073255538940429
-0.1115365326404571
-0.1123699024319648
-0.1098647266626358
-0.1043309047818183
-0.0963013619184494
-0.0864528566598892
-0.0755141824483871
-0.0641810446977615
-0.053046703338623
-0.0425473451614379
-0.0329272225499153
-0.0242327861487865
-0.0163372904062271
-0.008996233344078
-0.0019238218665122
0.0051392465829849
0.0123866721987724
0.0199298858642578
0.0277930162847042
0.0359175279736518
0.0441774949431419
0.0524035580456256
0.0604107677936553
0.0680257081985473
0.0751077905297279
0.0815605372190475
0.0873323529958725
0.0924078822135925
0.0967918038368225
0.1004872918128967
0.103474736213684
0.1056988388299942
0.1070679575204849
0.1074649021029472
0.1067689880728721
0.104887455701828
0.1017850786447525
0.0975028276443481
0.092165321111679
0.0859762802720069
0.0792024135589599
0.072150781750679
0.0651407316327095
0.0584720410406589
0.0523965433239936
0.0470958352088928
0.0426635593175888
0.0390972718596458
0.0363063141703605
0.0341311320662498
0.0323656648397445
0.0307838842272758
0.0291688628494739
0.0273356512188911
0.0251487921923398
0.0225415527820587
0.0195327512919902
0.0162285640835762
0.0128017216920852
0.0094523448497056
0.0063678445294499
0.0036990121006965
0.0015510786324739
-2.0328909158706665e-05
-0.0010091587901115
-0.0014534369111061
-0.0014265812933444
-0.0010260008275508
-0.0003621689975261
0.0004489384591579
0.0012941174209117
0.0020730346441268
0.0027079805731773
0.0031524784862995
0.0033889673650264
0.0034067258238792
0.0031713955104351
0.0026031546294689
0.0015716776251792
-9.023770689964294e-05
-0.0025587864220142
-0.0059845596551895
-0.0104571990668773
-0.0159745402634143
-0.0224250219762325
-0.0295922309160232
-0.0371795929968357
-0.044843666255474
-0.0522265098989009
-0.0589843951165676
-0.0648178309202194
-0.0695047825574874
-0.0729244127869606
-0.0750591456890106
-0.0759784951806068
-0.0758175104856491
-0.0747598111629486
-0.0730222314596176
-0.0708312764763832
-0.0683938264846801
-0.0658752918243408
-0.0633915811777114
-0.0610103867948055
-0.0587573647499084
-0.0566299259662628
-0.0546223148703575
-0.0527488961815834
-0.0510403960943222
-0.0495168007910251
-0.0481689013540744
-0.0469552837312221
-0.0457970313727855
-0.0445695333182811
-0.0431016869843006
