bvp
-0.2792333364486694
-0.3172893524169922
-0.3519546389579773
-0.3820207715034485
-0.4065006077289581
-0.4249403476715088
-0.4375748038291931
-0.4453200101852417
-0.4495554268360138
-0.4516593515872955
-0.4524557292461395
-0.4518815279006958
-0.4490801393985748
-0.4428409337997436
-0.4320927262306213
-0.4161902666091919
-0.3949356973171234
-0.3683995306491852
-0.3366153240203857
-0.2993383407592773
-0.2560977935791015
-0.2065186202526092
-0.1506848633289337
-0.0893099308013916
-0.0236338675022125
0.0447527468204498
0.1140191853046417
0.1822807490825653
0.2479176968336105
0.3098686635494232
0.3677539229393005
0.4217622280120849
0.4723311364650726
0.5197961330413818
0.5641347169876099
0.6047700047492981
0.6404839754104614
0.6695886850357056
0.6903104782104492
0.7011599540710449
0.7011613845825195
0.689997673034668
0.6681455969810486
0.6369571685791016
0.5985736846923828
0.5556458234786987
0.5109677910804749
0.4671528339385986
0.4264215528964996
0.3905222713947296
0.3607523441314697
0.3380265831947326
0.3227979838848114
0.3145967721939087
0.311801016330719
0.3124451041221618
0.315069317817688
0.3183314502239227
0.3201488852500915
0.3175668716430664
0.3074122071266174
0.2872340083122253
0.2560024559497833
0.2143142968416214
0.1642084270715713
0.1087658405303955
0.0516348890960216
-0.0033635459840297
-0.0524455904960632
-0.0919012278318405
-0.118162453174591
-0.1281845569610595
-0.1200372129678726
-0.0933084562420845
-0.0492537915706634
0.0091545134782791
0.0773402526974678
0.149503082036972
0.2191888391971588
0.2799544930458069
0.3260874450206756
0.3532920777797699
0.3592148423194885
0.3437227606773376
0.3089325726032257
0.2589576840400696
0.1992293298244476
0.1354571878910064
0.0726327896118164
0.0142699182033538
-0.0382244288921356
-0.0858629941940307
-0.1316935420036316
-0.1798310726881027
-0.234412133693695
-0.2986284792423248
-0.3737446367740631
-0.4583394527435303
-0.548170804977417
-0.6368321180343628
-0.7171456217765808
-0.7829074859619141
-0.8302520513534546
-0.8581292629241943
-0.8679124712944031
-0.8624275326728821
-0.8448929190635681
-0.8182100653648376
-0.7846729159355164
-0.7459561824798584
-0.7032464742660522
-0.6574150323867798
-0.6091715097427368
-0.5591779947280884
-0.5081168413162231
-0.4567084312438965
-0.4056841731071472
-0.3557345867156982
-0.3074581623077392
-0.2613294422626495
-0.2176950871944427
-0.1768016815185547
-0.1388405561447143
-0.1039765477180481
-0.0723488479852676
-0.04406064376235
-0.019169945269823
0.0023207552731037
0.0204820204526186
0.0354814678430557
0.0475995540618896
0.0572156086564064
0.0647497400641441
0.0705533102154731
0.0747726559638977
0.0772986263036727
0.0779191628098487
0.0766046792268753
0.0737160891294479
0.0700215622782707
0.0665549784898758
0.064398281276226
0.0644753500819206
0.0674242675304412
0.0735605657100677
0.0829091146588325
0.0952831283211708
0.1103824079036712
0.1278743743896484
0.1474357098340988
0.1687482595443725
0.1914587467908859
0.2151318341493606
0.2392190545797348
0.2630465030670166
0.2858302295207977
0.3067322075366974
0.3249488472938537
0.3398036956787109
0.3508231043815613
0.3577978014945984
0.3608112335205078
0.3601638674736023
0.3561620712280273
0.3488588333129883
0.3379195928573608
0.3227266669273376
0.3026780486106872
0.2775352299213409
0.2476282268762588
0.2137989252805709
0.1771728247404098
0.1389151811599731
0.1000543683767318
0.0614018812775611
0.0235496684908866
-0.0130969807505607
-0.0482783839106559
-0.0818427875638008
-0.1137100085616111
-0.1438290625810623
-0.1721317768096923
-0.1984937489032745
-0.2227119952440261
-0.2444986402988433
-0.2634924054145813
-0.279291033744812
-0.2914971709251404
-0.2997660636901855
-0.303847998380661
-0.3036228120326996
-0.2991237044334411
-0.2905489206314087
-0.2782623171806335
-0.2627792954444885
-0.2447366565465927
-0.2248491942882537
-0.2038580775260925
-0.1824756860733032
-0.1613298058509826
-0.1409150958061218
-0.1215649247169494
-0.1034488976001739
-0.0865918099880218
-0.0709120035171508
-0.0562704801559448
-0.0425137877464294
-0.029501587152481
-0.0171194374561309
-0.0052801668643951
0.0060811042785644
0.017015129327774
0.0275681316852569
0.0377908051013946
0.0477458238601684
0.0575141906738281
0.0671952366828918
0.0768938958644867
0.0866995751857757
0.0966680943965911
0.1068097054958343
0.1170817911624908
0.1273880898952484
0.1375854313373565
0.1474974155426025
0.1569301486015319
0.165688544511795
0.173595905303955
0.1805151402950287
0.1863665282726287
0.1911371797323227
0.1949199885129928
0.1980673521757125
0.2014038860797882
0.2062670141458511
0.2142778187990188
0.226973071694374
0.2454543858766555
0.2701412439346313
0.3006680607795715
0.3359283804893493
0.374237596988678
0.413566380739212
0.4517947435379028
0.4869483709335327
0.5173881649971008
0.5419329404830933
0.5599117875099182
0.5711544156074524
0.5759267210960388
0.5748238563537598
0.5686450600624084
0.5582743287086487
0.5445794463157654
0.5283352136611938
0.5101766586303711
0.4905856549739837
0.4699033200740814
0.4483543336391449
0.4260737299919128
0.4031369686126709
0.3796022236347198
0.3555642068386078
0.3311940431594848
0.3067418336868286
0.2825004458427429
0.2587451934814453
0.2356718331575393
0.2133492976427078
0.1916949898004531
0.1704765558242797
0.149342268705368
0.1278813779354095
0.1057109832763671
0.0825736820697784
0.0584146380424499
0.0334042012691497
0.0078945457935333
-0.0176682770252227
-0.0428440272808074
-0.0672842562198638
-0.0907929837703704
-0.1133548319339752
-0.1351262032985687
-0.1563957631587982
-0.1775257885456085
-0.1988853812217712
-0.2207880318164825
-0.2434451580047607
-0.2669403254985809
-0.29122394323349
-0.3161243796348572
-0.3413697779178619
-0.3666135668754577
-0.391460508108139
-0.4154937267303467
-0.4383057355880737
-0.4595323204994201
-0.4788857698440552
-0.496173620223999
-0.511297345161438
-0.5242394804954529
-0.5350463390350342
-0.5438075661659241
-0.5506378412246704
-0.5556622743606567
-0.559005081653595
-0.5607811212539673
-0.5610904693603516
-0.5600149035453796
-0.5576168298721313
-0.553941011428833
-0.5490184426307678
-0.542873203754425
-0.5355343222618103
-0.5270460844039917
-0.5174689888954163
-0.5068724155426025
-0.4953270554542541
-0.4829009473323822
-0.4696579575538635
-0.4556561112403869
-0.440947949886322
-0.4255830347537994
-0.4096111357212066
-0.393084317445755
-0.3760565519332886
-0.3585831820964813
-0.3407210111618042
-0.3225260078907013
-0.3040548264980316
-0.2853726744651794
-0.2665532231330871
-0.2476648539304733
-0.2287610173225402
-0.209881916642189
-0.1910579651594162
-0.172312319278717
-0.1536645740270614
-0.1351341754198074
-0.1167419701814651
-0.0985112190246582
-0.0804710760712623
-0.0626620650291442
-0.0451371148228645
-0.0279601905494928
-0.0112091563642025
0.0050232182256877
0.020636398345232
0.0355310924351215
0.0496143102645874
0.0628006756305694
0.0750127583742141
0.0861866474151611
0.0962860807776451
0.1053202152252197
0.1133588105440139
0.1205390840768814
0.1270578652620315
0.1331498622894287
0.1390603482723236
0.1450155675411224
0.1511927843093872
0.1577005982398986
0.1645751297473907
0.1717860698699951
0.1792487502098083
0.1868409961462021
0.194421112537384
0.2018457800149917
0.208987683057785
0.2157485485076904
0.2220649719238281
0.2279071807861328
0.2332717180252075
0.2381704151630401
0.2426183819770813
0.2466201335191726
0.2501571178436279
0.2531856596469879
0.2556460499763489
0.2574767172336578
0.2586315274238586
0.2590952813625335
0.2588910460472107
0.2580789625644684
0.2567470073699951
0.2549980282783508
0.2529416382312774
0.2506906390190124
0.2483565360307693
0.2460425794124603
0.2438349723815918
0.2417893409729004
0.2399127036333084
0.2381526976823806
0.2364070266485214
0.2345471680164337
0.2324399054050445
0.2299606055021286
0.2270040065050125
0.2234938293695449
0.2193866223096847
0.2146666198968887
0.2093341946601867
0.2033943980932235
0.1968504339456558
0.1897034645080566
0.1819584667682647
0.1736302375793457
0.1647455245256424
0.1553463637828827
0.1454962790012359
0.1352854073047638
0.1248322129249572
0.1142783313989639
0.1037760376930236
0.0934735164046287
0.0835007950663566
0.0739595517516136
0.0649174302816391
0.0564027428627014
0.0484016351401805
0.0408637225627899
0.0337138772010803
0.0268627218902111
0.020214844495058
0.0136808631941676
0.0071936696767807
0.0007192268967628
-0.0057424148544669
-0.0121589815244078
-0.0184687934815883
-0.0245904084295034
-0.030439268797636
-0.035945288836956
-0.0410662367939949
-0.0457935556769371
-0.0501497313380241
-0.0541790723800659
-0.0579354688525199
-0.0614737793803215
-0.0648480877280235
-0.0681101158261299
-0.0713032260537147
-0.074455089867115
-0.0775720849633216
-0.0806375667452812
-0.0836149007081985
-0.0864514485001564
-0.0890802294015884
-0.0914219841361045
-0.093391865491867
-0.0949129834771156
-0.095934584736824
-0.0964452847838401
-0.0964750349521637
-0.0960916429758071
-0.0953960493206977
-0.0945114567875862
-0.0935646295547485
-0.0926652699708938
-0.0918901041150093
-0.0912736356258392
-0.0908042564988136
-0.090428277850151
-0.0900637507438659
-0.0896204859018325
-0.089021548628807
-0.0882196649909019
-0.0872043371200561
-0.085999883711338
-0.0846545025706291
-0.0832255184650421
-0.0817679762840271
-0.080327533185482
-0.0789349675178527
-0.0775992274284362
-0.0762998163700103
-0.0749876722693443
-0.0735983699560165
-0.0720679312944412
-0.070343978703022
-0.0683947503566742
-0.0662165731191635
-0.0638345777988433
-0.0612922050058841
-0.0586312375962734
-0.0558727532625198
-0.0530130192637443
-0.0500362776219844
-0.046931654214859
-0.043704017996788
-0.0403773412108421
-0.0369918420910835
-0.0335979387164115
-0.0302511192858219
-0.0270114801824092
-0.0239475015550851
-0.0211362466216087
-0.0186552330851554
-0.0165705643594265
-0.01492556091398
-0.0137296933680772
-0.0129510769620537
-0.0125203775241971
-0.0123456120491027
-0.0123263243585824
-0.012360967695713
-0.0123507361859083
-0.0122038275003433
-0.0118425581604242
-0.0112124625593423
-0.0102899437770247
-0.0090874321758747
-0.0076557202264666
-0.0060804514214396
-0.0044707995839416
-0.0029429018031805
-0.0016012357082217
-0.0005207029171288
0.0002638795413076
0.000758527778089
0.0010094372555613
0.0011029681190848
0.0011580660939216
0.0013087065890431
0.0016817478463053
0.0023781396448612
0.0034629274159669
0.0049614030867815
0.0068594496697187
0.0091133704409003
0.011667963117361
0.0144706377759575
0.0174749679863452
0.0206359177827835
0.0238984636962413
0.0271848011761903
0.0303919091820716
0.0334054715931415
0.0361226983368396
0.0384745001792907
0.0404431521892547
0.0420686565339565
0.043437048792839
0.0446571335196495
0.0458371713757514
0.0470641627907753
0.0483853667974472
0.0497981086373329
0.0512544214725494
0.0526755675673484
0.0539650246500968
0.0550183206796646
0.0557337775826454
0.0560218468308448
0.055809810757637
0.0550447143614292
0.0537011548876762
0.0517938584089279
0.0493829548358917
0.0465630963444709
0.0434417575597763
0.0401162803173065
0.0366559028625488
0.033092726022005
0.0294248163700103
0.0256326049566268
0.0217010807245969
0.0176374427974224
0.0134830977767705
0.009320706129074
0.0052706710994243
0.0014734845608472
-0.0019359125290066
-0.0048522669821977
-0.0072182808071374
-0.0090350611135363
-0.0103612160310149
-0.0112994480878114
-0.0119767449796199
-0.0125238513574004
-0.0130499545484781
-0.0136125516146421
-0.0141970608383417
-0.0147169912233948
-0.0150323528796434
-0.0149832554161548
-0.014435663819313
-0.0133270239457488
-0.0116912694647908
-0.0096489218994975
-0.0073705343529582
-0.0050370157696306
-0.0028108824044466
-0.000818487489596
0.0008589257486164
0.0021866397000849
0.0031714630313217
0.0038496539928019
0.0042664627544581
0.0044534266926348
0.0044180233962833
0.0041509857401251
0.0036411434412002
0.0028879102319478
0.0019081151112914
0.0007358342409133
-0.0005839988589286
-0.0020039277151226
-0.0034800460562109
-0.0049759745597839
-0.0064650848507881
-0.0079293427988886
-0.0093563217669725
-0.0107385795563459
-0.0120775122195482
-0.013387955725193
-0.0146960420534014
-0.0160275809466838
-0.0173927396535873
-0.0187753606587648
-0.0201315153390169
-0.0213975701481103
-0.0225025862455368
-0.0233743414282798
-0.0239352583885192
-0.0240998193621635
-0.0237841550260782
-0.0229252856224775
-0.0215018726885318
-0.0195495076477527
-0.0171687249094247
-0.0145249608904123
-0.0118324784561991
-0.0093174101784825
-0.007170770317316
-0.0055087679065763
-0.0043483469635248
-0.003594358684495
-0.0030336964409798
-0.0023391528520733
-0.0010940763168036
0.0011541740968823
0.0048225508071482
0.0102257560938596
0.0175297670066356
0.0267239715903997
0.0376052968204021
0.0497763901948928
0.0626669973134994
0.0755816921591758
0.0877662748098373
0.0984811261296272
0.1070702299475669
0.1130145192146301
0.1159606724977493
0.1157254576683044
0.1122858077287674
0.1057678610086441
0.0964437425136566
0.0847312286496162
0.071181796491146
0.0564467385411262
0.0412189662456512
0.0261577367782592
0.0118171460926532
-0.0014000385999679
-0.0132606700062751
-0.0236985012888908
-0.0327919982373714
-0.0407274514436721
-0.0477569103240966
-0.0541538521647453
-0.060167945921421
-0.065988190472126
-0.0717231780290603
-0.0773973986506462
-0.082956276834011
-0.0882769525051117
-0.0931903719902038
-0.0975153222680091
-0.1010920703411102
-0.1038047671318054
-0.1055918931961059
-0.1064482480287551
-0.1064198315143585
-0.1055917143821716
-0.1040712743997573
-0.1019702851772308
-0.0993876457214355
-0.0963964164257049
-0.0930387303233146
-0.0893298238515853
-0.0852720290422439
-0.0808759033679962
-0.0761796832084655
-0.0712559446692466
-0.066195011138916
-0.0610679537057876
-0.0558926835656166
-0.0506269186735153
-0.0451893769204616
-0.0394913852214813
-0.0334579907357692
-0.0270287580788135
-0.0201451145112514
-0.0127412788569927
-0.0047532031312584
0.0038542626425623
0.0130561841651797
0.0227475389838218
0.0327394604682922
0.042768508195877
0.0525153577327728
0.0616303458809852
0.0697621703147888
0.0765872672200203
0.081840232014656
0.0853436291217804
0.0870304703712463
0.0869518369436264
0.0852661356329917
0.082214280962944
0.0780881196260452
0.0731968209147453
0.0678364187479019
0.0622689165174961
0.0567103326320648
0.0513251312077045
0.0462290123105049
0.0414987839758396
0.0371865667402744
0.0333354882895946
0.029988408088684
0.0271857399493455
0.0249572973698377
0.0233134310692548
0.0222409106791019
0.0217056553810834
0.0216565951704978
0.0220263097435235
0.0227291528135538
0.0236581768840551
0.0246837213635444
0.0256577804684638
0.0264297295361757
0.0268794167786836
0.0269587710499763
0.0267161577939987
0.0262875538319349
0.0258633531630039
0.0256482735276222
0.0258228406310081
0.0265085771679878
0.0277405213564634
0.0294499415904283
0.0314606316387653
0.0335067324340343
0.0352743305265903
0.0364507287740707
0.0367634370923042
0.0360083281993866
0.0340718030929565
0.0309427939355373
0.0267090648412704
0.0215413272380828
0.015673991292715
0.00938705727458
0.0029885396361351
-0.0032077580690383
-0.0089139528572559
-0.0139048732817173
-0.0180504955351352
-0.0213338136672973
-0.0238463878631591
-0.0257660187780857
-0.0273266565054655
-0.0287847910076379
-0.0303858965635299
-0.0323361679911613
-0.0347817577421665
-0.0377945676445961
-0.0413656495511531
-0.0454124584794044
-0.0498024299740791
-0.0543852373957634
-0.0590239688754081
-0.0636184886097908
-0.0681155323982238
-0.0725042745471
-0.0768008455634117
-0.0810285359621048
-0.0852006822824478
-0.0893066525459289
-0.0933008268475532
-0.0970995873212814
-0.1005889624357223
-0.1036388352513313
-0.1061175838112831
-0.1079049408435821
-0.1089042052626609
-0.1090528294444084
-0.1083289235830307
-0.1067504361271858
-0.1043663322925567
-0.1012447103857994
-0.0974635034799575
-0.0931068509817123
-0.088264375925064
-0.0830273330211639
-0.0774814784526825
-0.0717008635401725
-0.0657424852252006
-0.0596423670649528
-0.0534177310764789
-0.0470771789550781
-0.0406344011425972
-0.034117791801691
-0.0275705531239509
-0.0210439451038837
-0.0145910903811454
-0.0082630962133407
-0.0021045878529548
0.0038481801748275
0.009563960134983
0.0150150656700134
0.0201817005872726
0.0250568017363548
0.029648058116436
0.0339754670858383
0.0380619131028652
0.0419199801981449
0.0455441251397132
0.048912514001131
0.051995113492012
0.0547639355063438
0.0572024919092655
0.0593126378953456
0.0611174069344997
0.0626574456691742
0.0639830529689788
0.0651492327451706
0.066214233636856
0.0672357678413391
0.0682636052370071
0.0693306177854538
0.0704452693462371
0.071589320898056
0.0727199912071228
0.0737741664052009
0.0746755748987197
0.0753469765186309
0.0757247805595398
0.0757718533277511
0.075487308204174
0.0749093294143676
0.074108637869358
0.073179543018341
0.0722313001751899
0.0713767111301422
0.0707237049937248
0.0703776180744171
0.0704463571310043
0.0710316747426986
0.0722043290734291
0.0739800482988357
0.0763138234615325
0.0791150406002998
0.0822683945298194
0.085645668208599
0.0891067162156105
0.0924888551235199
0.0955851972103118
0.098129041492939
0.0998032316565513
0.1002729535102844
0.0992293655872345
0.0964355841279029
0.091768704354763
0.0852503478527069
0.0770579278469085
0.0675118193030357
0.0570404827594757
0.046129822731018
0.0352665036916732
0.0248888060450553
0.0153537597507238
0.0069170468486845
-0.0002794116735458
-0.0062070777639746
-0.0109334168955683
-0.0145960170775651
-0.0173775255680084
-0.0194827001541852
-0.021119499579072
-0.0224847756326198
-0.0237504169344902
-0.0250509344041347
-0.0264761112630367
-0.0280685406178236
-0.0298258028924465
-0.0317069143056869
-0.0336431562900543
-0.0355544611811637
-0.0373672507703304
-0.0390256978571414
-0.0404950343072414
-0.0417620837688446
-0.042833786457777
-0.0437312424182891
-0.0444818548858165
-0.0451138205826282
-0.0456534288823604
-0.0461231991648674
-0.0465389564633369
-0.046906903386116
-0.0472269169986248
-0.0475042834877967
-0.0477609261870384
-0.0480412356555461
-0.0484126582741737
-0.0489565655589103
-0.049751654267311
-0.0508614927530288
-0.0523267388343811
-0.0541480369865894
-0.056255605071783
-0.0584844797849655
-0.060578279197216
-0.0622257590293884
-0.0631167590618133
-0.0630010366439819
-0.0617365837097168
-0.0593160018324852
-0.0558650195598602
-0.0516184344887733
-0.0468838103115558
-0.0419974699616432
-0.037274993956089
-0.032961718738079
-0.0291909053921699
-0.0259605553001165
-0.0231391079723835
-0.0205007884651422
-0.0177812948822975
-0.014738249592483
-0.0112016182392835
-0.0071077765896916
-0.0025165043771266
0.0023923302069306
0.0073479269631206
0.0120395850390195
0.0161733962595462
0.0195210706442594
0.0219538509845733
0.0234551969915628
0.024110272526741
0.0240771807730197
0.0235486961901187
0.022712493315339
0.0217160675674676
0.0206417590379714
0.0194966215640306
0.01821980625391
0.0167051739990711
0.0148331020027399
0.0125037971884012
0.0096629951149225
0.006314025260508
0.002516240812838
-0.0016248608008027
-0.0059618121013045
-0.0102898627519607
-0.0143190156668424
-0.0176591761410236
-0.0198422782123088
-0.0203867778182029
-0.0188879668712615
-0.0151089010760188
-0.0090496093034744
-0.0009758212836459
0.0086009157821536
0.0189834106713533
0.0293733309954404
0.0389666371047496
0.0470488145947456
0.0530749261379241
0.056720808148384
0.0579026825726032
0.0567681491374969
0.0536585077643394
0.0490451343357563
0.0434538535773754
0.0373932421207428
0.0312957689166069
0.0254782736301422
0.0201284922659397
0.0153195802122354
0.0110425613820552
0.0072405412793159
0.0038359127938747
0.0007496941834688
-0.0020864307880401
-0.0047252960503101
-0.0072076302021741
-0.0095739047974348
-0.0118792057037353
-0.0142005160450935
-0.0166313871741294
-0.0192678235471248
-0.0221891347318887
-0.0254378970712423
-0.0290067866444587
-0.0328341610729694
-0.0368048474192619
-0.0407600477337837
-0.044520653784275
-0.0479141846299171
-0.0507931783795356
-0.0530435554683208
-0.0545879006385803
-0.0553880594670772
-0.0554464571177959
-0.0548045299947261
-0.0535399541258811
-0.0517615415155887
-0.0495974421501159
-0.0471768081188201
-0.0446104593575
-0.0419760458171367
-0.0393093526363372
-0.0366001576185226
-0.0337887294590473
-0.0307610742747783
-0.027351014316082
-0.0233585387468338
-0.0185815934091806
-0.0128537742421031
-0.0060825459659099
0.0017202114686369
0.010423949919641
0.01978500187397
0.0294705033302307
0.039094865322113
0.0482591204345226
0.056585356593132
0.0637447834014892
0.0694790706038475
0.0736123323440551
0.0760527104139328
0.0767844691872596
0.0758534371852874
0.0733499750494957
0.0693930983543396
0.0641213357448577
0.0576930455863475
0.0502914637327194
0.0421301238238811
0.0334566533565521
0.0245497412979602
0.0157044678926467
0.0072093633934855
-0.0006755553185939
-0.0077374354004859
-0.0138274421915411
-0.0188705399632453
-0.0228644683957099
-0.0258708838373422
-0.0280014723539352
-0.0294004529714584
-0.0302250087261199
-0.0306269470602273
-0.0307393074035644
-0.0306681841611862
-0.0304888486862182
-0.0302462875843048
-0.0299598574638366
-0.0296291783452034
-0.0292377229779958
-0.0287571642547845
-0.0281562767922878
-0.0274100080132484
-0.0265043191611766
-0.0254370402544736
-0.0242161583155393
-0.0228573717176914
-0.0213819462805986
-0.0198145117610692
-0.0181791707873344
-0.0164945498108863
-0.0147726600989699
-0.0130233122035861
-0.0112586179748177
-0.009491616860032
-0.0077317701652646
-0.0059887086972594
-0.004286884330213
-0.0026777395978569
-0.0012391796335577
-6.492249667644501e-05
0.0007518734782934
0.0011381087824702
0.0010573184117674
0.0005192179232835
-0.0004154630005359
-0.0016353577375411
-0.0029874593019485
-0.0042942259460687
-0.0053747221827507
-0.0060631483793258
-0.0062212627381086
-0.0057485699653625
-0.0045898798853158
-0.0027290992438793
-0.0001618564128875
0.0031415652483701
0.0072592291980981
0.0123098138719797
0.018413733690977
0.0256376322358846
0.0339460521936416
0.0431808046996593
0.0530769750475883
0.0633090436458587
0.07354486733675
0.083484411239624
0.0928741544485092
0.1014993414282798
0.1091645509004592
0.1156796887516975
0.1208619475364685
0.1245495378971099
0.1266165226697921
0.126983568072319
0.1256267428398132
0.122584193944931
0.1179565042257309
0.1118990257382392
0.104606918990612
0.0962977260351181
0.0871969684958458
0.0775249600410461
0.0674820691347122
0.0572327375411987
0.0468907803297042
0.036512617021799
0.0261014923453331
0.0156190246343612
0.0050024017691612
-0.0058140754699707
-0.0168764814734458
-0.0281897187232971
-0.0396991670131683
-0.0512791909277439
-0.062732994556427
-0.0738057717680931
-0.0842093378305435
-0.093656025826931
-0.1018957942724227
-0.1087478175759315
-0.11411764472723
-0.1179888695478439
-0.1203853636980056
-0.1213171258568763
-0.1207360923290252
-0.1185275763273239
-0.1145480275154113
-0.1086975038051605
-0.1009971126914024
-0.0916421115398407
-0.0810151174664497
-0.0696554780006408
-0.0581939481198787
-0.0472728461027145
-0.0374721065163612
-0.02925481274724
-0.022937573492527
-0.0186844021081924
-0.0165172144770622
-0.0163341835141181
-0.0179303027689456
-0.0210178829729557
-0.025247611105442
-0.0302330423146486
-0.0355795957148075
-0.040915161371231
-0.0459174811840057
-0.0503352023661136
-0.0540026873350143
-0.0568479783833026
-0.0588938444852829
-0.0602528601884841
-0.0611107572913169
-0.0616907104849815
-0.0622060187160968
-0.0628172233700752
-0.063603863120079
-0.0645554736256599
-0.0655815228819847
-0.0665336176753044
-0.0672326907515525
-0.0674970224499702
-0.0671678036451339
-0.0661275684833526
-0.0643074065446853
-0.0616847239434719
-0.058278102427721
-0.0541443303227424
-0.0493762865662574
-0.0440961122512817
-0.0384419187903404
-0.0325519070029258
-0.0265533290803432
-0.020557977259159
-0.0146547146141529
-0.0088986195623874
-0.0033111236989498
0.0021077580749988
0.0073735155165195
0.0125290006399154
0.0176617242395877
0.0229061804711818
0.0284251570701599
0.0343734733760356
0.0408514365553855
0.047867264598608
0.0553265213966369
0.0630467161536216
0.0707877576351165
0.0782897993922233
0.0853067934513092
0.0916254967451095
0.0970695987343788
0.1014965921640396
0.1047938168048858
0.1068767085671424
0.1076911836862564
0.107218861579895
0.105481207370758
0.1025389283895492
0.0984852463006973
0.0934397429227829
0.0875478833913803
0.0809816792607307
0.0739370137453079
0.0666259080171585
0.0592637509107589
0.0520564690232276
0.0451903529465198
0.0388222746551036
0.0330714583396911
0.0280142463743686
0.0236815046519041
0.0200623776763677
0.0171152744442224
0.0147768128663301
0.0129630137234926
0.0115706734359264
0.0104860570281744
0.009597647935152
0.0088079255074262
0.0080421604216098
0.0072522163391113
0.0064146686345338
0.0055265240371227
0.0046024098992347
0.0036725495010614
0.0027792695909738
0.0019721537828445
0.0013027768582105
0.0008199959993362
0.0005630999803543
0.0005509983748197
0.0007755868136882
0.0012058224529027
0.0017973128706216
0.0025003049522638
0.0032650772482156
0.0040465798228979
0.004808222874999
0.0055243410170078
0.0061836019158363
0.0067935986444354
0.0073828343302011
0.0079989312216639
0.008704874664545
0.0095709944143891
0.010657487437129
0.0119924917817115
0.0135607169941067
0.0153084434568881
0.0171559192240238
0.0190089121460914
0.0207697376608848
0.0223482400178909
0.0236708670854568
0.0246872641146183
0.0253733769059181
0.0257314108312129
0.0257891565561294
0.0255983266979455
0.0252293683588504
0.0247615426778793
0.024266742169857
0.0237890183925628
0.0233302004635334
0.0228475127369165
0.0222594961524009
0.0214581917971372
0.0203259401023387
0.0187522489577531
0.0166505426168441
0.0139761660248041
0.0107399374246597
0.0070101954042911
0.0029043778777122
-0.0014236979186534
-0.0057962946593761
-0.0100266151130199
-0.013942951336503
-0.0174159277230501
-0.0203717611730098
-0.0227879043668508
-0.0246822256594896
-0.026103425770998
-0.0271239578723907
-0.0278361495584249
-0.0283484607934951
-0.028775330632925
-0.0292214956134557
-0.0297689493745565
-0.0304707325994968
-0.0313508659601211
-0.032410942018032
-0.0336437635123729
-0.0350527055561542
-0.0366703867912292
-0.0385645776987075
-0.0408267080783844
-0.0435482338070869
-0.0467894040048122
-0.0505482666194438
-0.0547428391873836
-0.0592107437551021
-0.0637218207120895
-0.0680015906691551
-0.0717645585536956
-0.0747535452246666
-0.0767755359411239
-0.0777226462960243
-0.0775766521692276
-0.0764027684926986
-0.0743289738893508
-0.0715021565556526
-0.0680289566516876
-0.0639256611466407
-0.0591019056737422
-0.0533896759152412
-0.0466093868017196
-0.0386506356298923
-0.0295408628880977
-0.0194791983813047
-0.0088280783966183
0.0019291257485747
0.0122508127242326
0.0216064285486936
0.0295412316918373
0.0357260033488273
0.039982583373785
0.0422846488654613
0.042737677693367
0.0415442399680614
0.0389677211642265
0.0353053584694862
0.0308697596192359
0.0259737838059663
0.0209168978035449
0.0159712359309196
0.0113674523308873
0.0072842696681618
0.0038439203053712
0.001111852005124
-0.0009037022828124
-0.0022561561781913
-0.0030637185554951
-0.0034998327028006
-0.003768702968955
-0.0040738871321082
-0.0045874258503317
-0.0054267533123493
-0.0066462345421314
-0.0082400748506188
-0.0101446015760302
-0.0122308786958456
-0.0142863513901829
-0.0159941725432872
-0.016930179670453
-0.0165978427976369
-0.0145050911232829
-0.0102680083364248
-0.0037127109244465
0.0050575090572237
0.015649763867259
0.0274264384061098
0.0395937711000442
0.0513045415282249
0.0617493614554405
0.0702327042818069
0.0762375220656395
0.0794731378555297
0.0798962265253067
0.0777011811733245
0.07328412681818
0.0671876668930053
0.0600331276655197
0.0524448305368423
0.0449754521250724
0.0380488224327564
0.0319295451045036
0.0267147198319435
0.0223426222801208
0.0186192076653242
0.0152622750028967
0.0119581557810306
0.008423188701272
0.0044589145109057
-1.172441989183426e-05
-0.0049353232607245
-0.0101464511826634
-0.0154038006439805
-0.0204305164515972
-0.0249556936323642
-0.028757631778717
-0.0316990539431571
-0.0337441638112068
-0.0349561460316181
-0.0354788936674594
-0.0355092845857143
-0.0352643057703971
-0.0349464565515518
-0.0347140505909919
-0.034661415964365
-0.0348106175661087
-0.0351177304983139
-0.0354912392795085
-0.0358120985329151
-0.0359528474509716
-0.0358012020587921
-0.0352849215269088
-0.0343903936445713
-0.0331647917628288
-0.0316881202161312
-0.0300294943153858
-0.0282191112637519
-0.0262321457266807
-0.0239648278802633
-0.0212137829512357
-0.0176860708743333
-0.0130494171753525
-0.0070105679333209
0.0005989298224449
0.0097545143216848
0.0202124658972024
0.0315315872430801
0.0431263856589794
0.0543345212936401
0.0644896328449249
0.0729921981692314
0.0793682783842086
0.0833063498139381
0.0846691653132438
0.0834826976060867
0.0799093917012214
0.0742170140147209
0.0667487457394599
0.0578925535082817
0.0480494610965251
0.0376072600483894
0.0269267428666353
0.0163351967930793
0.0061170347034931
-0.0034973789006471
-0.0123381437733769
-0.0202950853854417
-0.0273085832595825
-0.0333532840013504
-0.0384246110916137
-0.0425361208617687
-0.04572394490242
-0.0480511412024498
-0.0496046245098114
-0.0504788309335708
-0.0507539510726928
-0.0504844300448894
-0.0497027747333049
-0.0484352596104145
-0.0467237792909145
-0.0446434617042541
-0.0423033311963081
-0.0398274548351764
-0.0373326390981674
-0.0349180847406387
-0.0326618291437625
-0.0306094419211149
-0.0287520121783018
-0.0270027592778205
-0.0251812580972909
-0.0230120532214641
-0.0201449356973171
-0.0161994006484746
-0.0108291367068886
-0.0037980112247169
0.0049496204592287
0.015246732160449
0.026700085029006
0.0387195609509944
0.0505712926387786
0.0614479854702949
0.0705484449863433
0.0771577358245849
0.0807227492332458
0.0809169635176658
0.0776828154921531
0.0712401419878006
0.0620572641491889
0.0507905259728431
0.0382051318883895
0.0250874795019626
0.0121588604524731
8.372589945793152e-06
-0.0109423268586397
-0.0204454846680164
-0.0284142009913921
-0.0348976254463195
-0.0400490313768386
-0.0440884195268154
-0.0472642816603183
-0.0498217120766639
-0.0519776940345764
-0.0539011470973491
-0.0556999184191226
-0.057417269796133
-0.059037834405899
-0.0605033189058303
-0.0617350526154041
-0.0626526251435279
-0.0631822273135185
-0.063260868191719
-0.0628421008586883
-0.0619013123214244
-0.0604384988546371
-0.0584793537855148
-0.0560748577117919
-0.053298182785511
-0.0502377673983573
-0.0469865202903747
-0.0436300337314605
-0.0402373746037483
-0.0368539094924926
-0.0334995165467262
-0.0301769562065601
-0.0268846713006496
-0.0236294940114021
-0.0204413160681724
-0.0173858366906642
-0.0145638436079025
-0.0120902061462402
-0.0100606866180896
-0.0085217542946338
-0.0074481479823589
-0.0067268684506416
-0.0061523169279098
-0.0054396465420722
-0.004259169101715
-0.0022869184613227
0.0007404908537864
0.0049799531698226
0.0104558169841766
0.0170558728277683
0.0245423689484596
0.0325719527900218
0.040724728256464
0.0485465414822101
0.0556027293205261
0.0615330189466476
0.0660978704690933
0.0692078322172164
0.0709282383322715
0.0714580044150352
0.0710888355970382
0.0701553598046302
0.0689843669533729
0.0678503364324569
0.0669469013810157
0.0663770511746406
0.0661565363407135
0.0662263706326484
0.0664727091789245
0.0667491778731346
0.0668953508138656
0.0667554810643196
0.0662101432681083
0.0652213767170906
0.0638744160532951
0.0623944774270057
0.0611235834658145
0.0604562871158123
0.0607473291456699
0.0622156858444213
0.0648766309022903
0.0685220062732696
0.0727453604340553
0.0769978538155555
0.0806623548269271
0.0831323191523552
0.0838827267289161
0.0825286656618118
0.0788717791438102
0.0729288011789321
0.0649314820766449
0.0552943758666515
0.0445591025054454
0.0333265736699104
0.0221865139901638
0.011654483154416
0.002125235274434
-0.0061539029702544
-0.013088995590806
-0.0187253970652818
-0.0232178922742605
-0.0267917737364768
-0.029701666906476
-0.0321944057941436
-0.0344785265624523
-0.0367010682821273
-0.0389344878494739
-0.0411759875714778
-0.0433579869568347
-0.0453680530190467
-0.0470790900290012
-0.0483832918107509
-0.0492150112986564
-0.0495568923652172
-0.0494357757270336
-0.0489137805998325
-0.0480770915746688
-0.0470247119665145
-0.0458564013242721
-0.0446594581007957
-0.0434987060725688
-0.0424133725464344
-0.0414238683879375
-0.0405522137880325
-0.0398412905633449
-0.0393458493053913
-0.0391075275838375
-0.0391446836292743
-0.0394392535090446
-0.0398925058543682
-0.0402731820940971
-0.0402027927339077
-0.0391963608562946
-0.0367467850446701
-0.0324242562055587
-0.0259594544768333
-0.017292657867074
-0.006588252261281
0.0057804845273494
0.0192719474434852
0.0332337692379951
0.0469630286097526
0.0597557462751865
0.0709453821182251
0.0799407958984375
0.086265429854393
0.0895899906754493
0.0897543728351593
0.0867761671543121
0.0808422341942787
0.0722850263118743
0.0615490302443504
0.0491518154740333
0.0356428697705268
0.0215630903840065
0.0074079185724258
-0.0063992217183113
-0.0195195339620113
-0.031704731285572
-0.0428031720221042
-0.0527590773999691
-0.0615957751870155
-0.0693879425525665
-0.0762323588132858
-0.0822213813662529
-0.0874245315790176
-0.0918843448162078
-0.0956256389617919
-0.0986713469028472
-0.1010581776499748
-0.1028485894203186
-0.1041353642940521
-0.1050340384244918
-0.105665348470211
-0.106137529015541
-0.1065337210893631
-0.1069012284278869
-0.1072429344058036
-0.107516661286354
-0.1076432466506958
-0.1075189113616943
-0.1070292443037033
-0.1060640215873718
-0.1045290529727935
-0.1023531705141067
-0.0994926020503044
-0.0959346145391464
-0.0917003825306892
-0.0868428498506546
-0.0814361125230789
-0.0755624771118164
-0.0693061426281929
-0.062751181423664
-0.0559743493795394
-0.0490331649780273
-0.0419567786157131
-0.0347412712872028
-0.0273503102362155
-0.0197238028049469
-0.0117914788424968
-0.0034848898649215
0.0052522718906402
0.0144515745341777
0.0241069458425045
0.0341677702963352
0.0445410162210464
0.0550987236201763
0.065684013068676
0.0761150196194648
0.0861921533942222
0.0957087874412536
0.1044600456953048
0.1122481077909469
0.1188897639513015
0.1242305338382721
0.1281604468822479
0.1306216716766357
0.1316047459840774
0.1311390846967697
0.1292838752269745
0.1261243522167205
0.1217753887176513
0.116380900144577
0.1101011782884597
0.1031009554862976
0.095548003911972
0.0876167863607406
0.0794908180832862
0.0713612288236618
0.0634208619594574
0.0558556765317916
0.0488337092101573
0.0424930341541767
0.0369326472282409
0.0322071611881256
0.0283261630684137
0.025260753929615
0.0229534916579723
0.0213232934474945
0.020266231149435
0.0196605585515499
0.0193739607930183
0.0192647539079189
0.0191808547824621
0.0189671423286199
0.018481608480215
0.0176122244447469
0.016289522871375
0.0144935436546802
0.0122537575662136
0.0096425749361515
0.0067645357921719
0.0037426883354783
0.0007034679874777
-0.0022398647852241
-0.0050014378502964
-0.0075264181941747
-0.0097831860184669
-0.0117507688701152
-0.0134061072021722
-0.0147140156477689
-0.01562459487468
-0.0160806570202112
-0.0160330235958099
-0.0154586043208837
-0.0143728423863649
-0.0128306560218334
-0.010919701308012
-0.0087526952847838
-0.0064621558412909
-0.0041980259120464
-0.0021224957890808
-0.0003976300358772
0.0008283294737339
0.0014317734166979
0.0013241218402981
0.0004614200443029
-0.0011499021202325
-0.0034513603895902
-0.006331336684525
-0.0096226297318935
-0.0131041696295142
-0.0165166072547435
-0.0195961017161607
-0.0221184361726045
-0.0239381231367588
-0.0250111781060695
-0.0253980718553066
-0.0252497363835573
-0.0247804895043373
-0.0242292992770671
-0.0238167569041252
-0.0237128138542175
-0.0240217894315719
-0.0247780475765466
-0.0259481333196163
-0.0274428129196167
-0.0291390232741832
-0.0309052318334579
-0.0326239094138145
-0.0342056974768638
-0.0355920493602752
-0.0367502495646476
-0.0376640260219574
-0.0383160039782524
-0.0386664941906929
-0.0386438332498073
-0.0381519421935081
-0.0370879806578159
-0.0353633761405944
-0.032925184816122
-0.0297738257795572
-0.0259714424610137
-0.0216385517269372
-0.0169433783739805
-0.0120879812166094
-0.0072884727269411
-0.0027502449229359
0.0013513779267668
0.0048804762773215
0.0077484203502535
0.0099266059696674
0.0114606861025094
0.0124777695164084
0.0131762316450476
0.0137943793088197
0.0145667232573032
0.015683639794588
0.017264349386096
0.0193418655544519
0.0218571294099092
0.02466481924057
0.0275543946772813
0.0302843563258647
0.0326199196279048
0.0343644991517066
0.0353814773261547
0.0356037765741348
0.0350303351879119
0.0337147824466228
0.0317529216408729
0.0292709022760391
0.0264115668833255
0.0233157649636268
0.0201011337339878
0.016846289858222
0.0135868806391954
0.0103251421824097
0.0070481598377227
0.0037443302571773
0.000409766100347
-0.0029528150334954
-0.0063344957306981
-0.00971913151443
-0.0130849760025739
-0.0164096262305974
-0.0196771249175071
-0.0228845439851284
-0.0260437577962875
-0.0291769690811634
-0.0323088690638542
-0.0354570969939231
-0.0386204198002815
-0.0417676605284214
-0.0448318868875503
-0.0477131009101867
-0.0502925515174865
-0.0524540245532989
-0.0540990866720676
-0.0551516264677047
-0.0555588603019714
-0.0552926063537597
-0.0543494187295436
-0.0527494214475154
-0.0505313947796821
-0.0477432124316692
-0.0444338172674179
-0.0406509041786193
-0.0364442057907581
-0.0318740382790565
-0.0270189456641674
-0.0219728481024503
-0.0168343093246221
-0.0117008257657289
-0.0066712461411952
-0.0018485747277736
0.0026624463498592
0.0067651998251676
0.0103873964399099
