bvp
0.008875448256731
0.0132835432887077
0.0181705951690673
0.0232467725872993
0.0281570795923471
0.0325093455612659
0.0359087139368057
0.0379996672272682
0.038512397557497
0.037305261939764
0.0343952178955078
0.0299675930291414
0.0243590716272592
0.0180171765387058
0.0114446673542261
0.0051342975348234
-0.0004973541945219
-0.0051577016711235
-0.0086954645812511
-0.0110944639891386
-0.0124526042491197
-0.0129485260695219
-0.0128023270517587
-0.0122382566332817
-0.0114524252712726
-0.0105896145105361
-0.0097360704094171
-0.00892866961658
-0.0081696063280105
-0.0074332095682621
-0.0066666193306446
-0.0058000832796096
-0.004769068211317
-0.003532949835062
-0.0020830761641263
-0.0004441048949956
0.0013305805623531
0.0031707230955362
0.0050040502101182
0.0067678494378924
0.0084168575704097
0.0099288914352655
0.0113055426627397
0.0125664733350276
0.0137405525892972
0.0148606514558196
0.0159643702208995
0.0170847028493881
0.0182155631482601
0.0192771442234516
0.020120944827795
0.0205729641020298
0.020486757159233
0.0197900924831628
0.0185189135372638
0.0168341733515262
0.0150167755782604
0.0134384296834468
0.0125202648341655
0.012693184427917
0.0143548902124166
0.0178135354071855
0.0232227537781
0.0305206589400768
0.0393899455666542
0.0492599084973335
0.0593561828136444
0.0687866583466529
0.0766495615243911
0.0821481570601463
0.0846920907497406
0.0839687138795852
0.0799763947725296
0.0730159878730773
0.0636378601193428
0.0525518655776977
0.0405203849077224
0.0282607749104499
0.0163781456649303
0.0053300485014915
-0.0045871511101722
-0.0132357329130172
-0.0206194035708904
-0.0268535800278186
-0.0321249812841415
-0.0366463661193847
-0.0406149476766586
-0.0441814586520195
-0.047435276210308
-0.0504062511026859
-0.0530747734010219
-0.0553790368139743
-0.057219099253416
-0.0584687665104866
-0.0590027943253517
-0.0587384402751922
-0.0576802231371402
-0.0559456646442413
-0.0537589043378829
-0.0514208786189556
-0.0492692030966281
-0.0476326942443847
-0.0467817708849906
-0.046878769993782
-0.0479379557073116
-0.049808669835329
-0.0521935448050498
-0.0547026358544826
-0.0569291934370994
-0.0585221089422702
-0.0592330805957317
-0.058935921639204
-0.0576251782476902
-0.0553951151669025
-0.0524042285978794
-0.0488403961062431
-0.044896475970745
-0.0407515317201614
-0.0365491956472396
-0.0323746502399444
-0.028242465108633
-0.0241078250110149
-0.0199011266231536
-0.015573427081108
-0.0111387521028518
-0.0066993497312068
-0.0024416446685791
0.0013917423784732
0.0045376643538475
0.0067501477897167
0.0078356154263019
0.0076774507761001
0.0062504261732101
0.003629632294178
-6.0498714447021484e-06
-0.0043789036571979
-0.0091293305158615
-0.0138464868068695
-0.0181070305407047
-0.0215105284005403
-0.0237025786191225
-0.0243869926780462
-0.023340918123722
-0.0204437840729951
-0.0157079249620437
-0.0092924628406763
-0.001498594880104
0.0072517395019531
0.016456201672554
0.0255875438451766
0.0341503843665123
0.0417231954634189
0.0479808114469051
0.0527036637067794
0.0557787120342254
0.05718994140625
0.0569938570261001
0.0552873276174068
0.0521827675402164
0.0477932803332805
0.0422257557511329
0.0355899892747402
0.0280240289866924
0.0197173319756984
0.0109166465699672
0.0019155405461788
-0.0069675035774707
-0.0154199935495853
-0.0231701433658599
-0.0300172008574008
-0.0358493737876415
-0.0406454354524612
-0.0444611310958862
-0.047404445707798
-0.0496054738759994
-0.0511904805898666
-0.0522690042853355
-0.0529290437698364
-0.0532303676009178
-0.0531985685229301
-0.052829198539257
-0.0521051809191703
-0.0510202534496784
-0.0495956763625144
-0.0478830114006996
-0.0459594652056694
-0.0439275093376636
-0.041920032352209
-0.0401011891663074
-0.0386518873274326
-0.0377361997961998
-0.0374602973461151
-0.0378450900316238
-0.0388213321566581
-0.0402383059263229
-0.0418769232928752
-0.0434694699943065
-0.0447319447994232
-0.0454043224453926
-0.0452844239771366
-0.0442458502948284
-0.0422398895025253
-0.0392846688628196
-0.0354470387101173
-0.0308283027261495
-0.0255594737827777
-0.0197996944189071
-0.0137346610426902
-0.0075736790895462
-0.0015388913452625
0.0041530020534992
0.0093117468059062
0.0137937702238559
0.017514444887638
0.0204491317272186
0.0226295515894889
0.0241389758884906
0.0251011587679386
0.0256615318357944
0.025966715067625
0.0261475443840026
0.026307575404644
0.0265186354517936
0.0268190391361713
0.0272091962397098
0.0276518799364566
0.0280841961503028
0.0284360982477664
0.0286489613354206
0.0286893360316753
0.028551310300827
0.0282457470893859
0.0277820900082588
0.0271530449390411
0.0263322070240974
0.0252816751599311
0.0239604003727436
0.0223367139697074
0.0204095877707004
0.0182282105088233
0.015902891755104
0.0136138796806335
0.0116195380687713
0.0102538168430328
0.0099026262760162
0.0109552592039108
0.0137363523244857
0.0184372514486312
0.0250733196735382
0.0334784798324108
0.0433292090892791
0.0541874356567859
0.0655516684055328
0.0769044831395149
0.0877507254481315
0.0976460948586463
0.1062157526612281
0.1131665632128715
0.1182978898286819
0.1215070039033889
0.122780829668045
0.1221744567155838
0.1197889074683189
0.1157619580626487
0.1102717369794845
0.1035417467355728
0.095840111374855
0.0874704271554946
0.0787535458803176
0.0700052678585052
0.0615159124135971
0.0535303615033626
0.0462278425693511
0.0397114008665084
0.0340160615742206
0.0291284583508968
0.0250028446316719
0.0215650834143161
0.018708111718297
0.0162894949316978
0.0141379833221435
0.0120681058615446
0.0099010057747364
0.0074895732104778
0.0047409683465957
0.0016305334866046
-0.0017955126240849
-0.0054328963160514
-0.0091465739533305
-0.0128017300739884
-0.0162872709333896
-0.0195279046893119
-0.0224909372627735
-0.0251942221075296
-0.027709737420082
-0.0301524698734283
-0.0326555930078029
-0.0353418476879596
-0.0382975451648235
-0.0415539592504501
-0.0450813472270965
-0.0487934648990631
-0.0525568313896656
-0.0562069118022918
-0.0595727711915969
-0.0624995827674865
-0.06486077606678
-0.0665646269917488
-0.0675591900944709
-0.0678323581814765
-0.0674071982502937
-0.0663366839289665
-0.0646963343024253
-0.062572106719017
-0.0600476190447807
-0.0571939945220947
-0.0540625303983688
-0.0506820380687713
-0.0470629520714283
-0.043210107833147
-0.039139986038208
-0.0348906815052032
-0.0305223781615495
-0.0261170566082
-0.0217813663184642
-0.0176494661718606
-0.0138799790292978
-0.0106412824243307
-0.0080851204693317
-0.0063176099210977
-0.0053806118667125
-0.0052494276314973
-0.005842238664627
-0.0070325508713722
-0.0086583588272333
-0.010532684624195
-0.0124653028324246
-0.0142907556146383
-0.0158898048102855
-0.0172004140913486
-0.0182166136801242
-0.0189735386520624
-0.0195254776626825
-0.019926831126213
-0.0202206205576658
-0.0204360373318195
-0.0205909609794616
-0.0206911880522966
-0.0207258630543947
-0.0206644926220178
-0.02045788615942
-0.0200455691665411
-0.0193678550422191
-0.0183746106922626
-0.017033252865076
-0.0153487753123044
-0.0134009942412376
-0.0113896587863564
-0.0096621885895729
-0.0086913704872131
-0.0089857289567589
-0.0109451916068792
-0.014709735289216
-0.0200715735554695
-0.0264955256134271
-0.0332317017018795
-0.0394683182239532
-0.0444798171520233
-0.047744907438755
-0.049016959965229
-0.0483396127820014
-0.0460175946354866
-0.0425594039261341
-0.0386030301451683
-0.0348313897848129
-0.0318856164813041
-0.0302831511944532
-0.0303476024419069
-0.0321626886725425
-0.0355631075799465
-0.040164515376091
-0.0454227067530155
-0.0507113076746463
-0.0554103441536426
-0.0589885115623474
-0.0610572285950183
-0.0613921470940113
-0.0599322170019149
-0.0567624121904373
-0.0520816966891288
-0.0461627691984176
-0.0393137633800506
-0.0318480804562568
-0.024061307311058
-0.0162116959691047
-0.0085032507777214
-0.0010732263326644
0.0060141086578369
0.0127644017338752
0.0192364752292633
0.025518499314785
0.0317187905311584
0.0379851907491683
0.0445431470870971
0.0517248697578907
0.0599589087069034
0.0697079077363014
0.0813738107681274
0.0952049121260643
0.1112291365861892
0.1292210519313812
0.1487031579017639
0.168983519077301
0.1892334073781967
0.2085939198732376
0.2262746691703796
0.2416129857301712
0.2540947198867798
0.2633525729179382
0.2691536545753479
0.2713814079761505
0.2700123190879822
0.2650932967662811
0.2567255795001983
0.2450536042451858
0.2302605807781219
0.2125794142484665
0.1923169940710067
0.1698782593011856
0.1457768827676773
0.120623230934143
0.0950821042060852
0.0698088183999061
0.045386753976345
0.0222803428769111
0.0008086040616035
-0.018854197114706
-0.0366574078798294
-0.0526491701602935
-0.0669556185603141
-0.0797620415687561
-0.0912920832633972
-0.1017855629324913
-0.1114784404635429
-0.1205833926796913
-0.1292673349380493
-0.1376288086175918
-0.145684152841568
-0.1533679068088531
-0.1605464667081833
-0.1670404374599456
-0.1726519018411636
-0.1771926432847976
-0.1805033385753631
-0.1824623644351959
-0.1829964220523834
-0.1820951402187347
-0.1798197031021118
-0.1763015836477279
-0.1717298030853271
-0.1663245409727096
-0.1603029817342758
-0.1538491547107696
-0.1470996737480163
-0.1401494741439819
-0.1330693960189819
-0.125924751162529
-0.1187910288572311
-0.1117627546191215
-0.104949302971363
-0.0984564423561096
-0.0923611745238304
-0.0866916254162788
-0.0814195275306701
-0.0764633044600486
-0.0716985464096069
-0.0669746696949005
-0.0621323883533477
-0.0570182316005229
-0.0514999032020568
-0.0454799383878707
-0.0389006659388542
-0.0317432358860969
-0.0240278672426939
-0.0158159956336021
-0.007211297750473
0.0016434527933597
0.0105780195444822
0.0194139704108238
0.0279764607548713
0.0360916256904602
0.0435975082218647
0.0503963865339756
0.0565362721681594
0.0622789412736892
0.0680935829877853
0.0745495408773422
0.082172192633152
0.0913434773683548
0.1022620946168899
0.1149364709854126
0.1291799992322921
0.1446007192134857
0.1606132835149765
0.1764975190162658
0.1914860755205154
0.2048408836126327
0.2159000486135482
0.2241015583276748
0.22899229824543
0.2302334308624267
0.2276100218296051
0.2210378944873809
0.2105597704648971
0.1963241696357727
0.1785413026809692
0.1574332267045974
0.1332222670316696
0.106181725859642
0.076717585325241
0.0454279817640781
0.0131068043410778
-0.019310425966978
-0.0508353896439075
-0.0805228054523468
-0.1075525134801864
-0.131285935640335
-0.1512988060712814
-0.1673962920904159
-0.1796061992645263
-0.1881478726863861
-0.1933865249156952
-0.1957829296588897
-0.1958417892456054
-0.1940627098083496
-0.1908992826938629
-0.1867298781871795
-0.1818428039550781
-0.1764349192380905
-0.1706199944019317
-0.1644417494535446
-0.157887578010559
-0.1509066522121429
-0.1434379070997238
-0.1354417949914932
-0.1269204318523407
-0.1179181784391403
-0.108509361743927
-0.0987842679023742
-0.0888356938958168
-0.0787454918026924
-0.0685749799013137
-0.0583643689751625
-0.0481391064822673
-0.0379177890717983
-0.0277217999100685
-0.0175843946635723
-0.0075507648289203
0.0023296326398849
0.0120024494826793
0.0213918015360832
0.030380330979824
0.0388038791716098
0.0464678294956684
0.0531775206327438
0.0587698146700859
0.0631387680768966
0.0662550777196884
0.0681807398796081
0.0690797641873359
0.0692296177148819
0.0690399631857872
0.0690657347440719
0.0699809119105339
0.0724930316209793
0.0772138684988021
0.0845238715410232
0.0944666415452957
0.1066969037055969
0.1204974651336669
0.1348731964826584
0.1487056910991668
0.1609269678592682
0.1706706285476684
0.1773786842823028
0.1808547973632812
0.1812559366226196
0.1790206432342529
0.1747535467147827
0.1691050082445144
0.1626800447702407
0.1559799462556839
0.1493616998195648
0.1430150121450424
0.1369704157114029
0.1311427354812622
0.1253927052021026
0.1195796057581901
0.113591730594635
0.1073600798845291
0.1008625328540802
0.0941137075424194
0.0871360152959823
0.0799260735511779
0.0724380686879158
0.0645917952060699
0.0562965273857116
0.0474758446216583
0.0380863323807716
0.0281314179301261
0.0176648050546646
0.0067736953496932
-0.0044518038630485
-0.0159397795796394
-0.0276307687163352
-0.0394511520862579
-0.05128925293684
-0.0629921853542327
-0.0743808820843696
-0.0852679014205932
-0.0954716056585311
-0.1048310026526451
-0.1132205128669738
-0.1205601021647453
-0.1268209964036941
-0.1320274621248245
-0.1362511813640594
-0.1395944505929947
-0.1421665698289871
-0.1440642774105072
-0.1453636884689331
-0.1461231410503387
-0.1463915407657623
-0.146215870976448
-0.1456450521945953
-0.144728198647499
-0.1435007750988006
-0.1419561356306076
-0.140018805861473
-0.1375493705272674
-0.1343872845172882
-0.1304021477699279
-0.1255265772342682
-0.1197698712348938
-0.1132196262478828
-0.1060379222035408
-0.0984620004892349
-0.0908094495534896
-0.0834736749529838
-0.0768957436084747
-0.0715096816420555
-0.0676717832684516
-0.0655976608395576
-0.0653364807367324
-0.06679168343544
-0.0697555840015411
-0.0739246159791946
-0.078905388712883
-0.0842313319444656
-0.0893885791301727
-0.0938481017947197
-0.0971002727746963
-0.0986760109663009
-0.0981509760022163
-0.0951547920703888
-0.0894028693437576
-0.0807423889636993
-0.0691913664340972
-0.0549596548080444
-0.0384512469172477
-0.0202492773532867
-0.0010900385677814
0.0181713048368692
0.0366104654967784
0.0533000789582729
0.0673818737268447
0.0781390070915222
0.085068330168724
0.087944708764553
0.0868594795465469
0.0822170972824096
0.0746868103742599
0.0651213750243187
0.0544615946710109
0.0436414927244186
0.0335047878324985
0.0247421786189079
0.0178525149822235
0.0131252408027648
0.0106446668505668
0.0103178173303604
0.0119234770536422
0.0151747241616249
0.0197795331478118
0.0254843160510063
0.0321017801761627
0.039533857256174
0.0477862507104873
0.0569556765258312
0.067180648446083
0.0785711035132408
0.0911431387066841
0.1047718375921249
0.1191596686840057
0.1338236331939697
0.1481157839298248
0.1612826585769653
0.172551080584526
0.1812184751033783
0.1867271959781646
0.1887121349573135
0.1870284527540207
0.1817700862884521
0.1732696592807769
0.1620697230100631
0.1488788425922393
0.1345233768224716
0.1198887526988983
0.1058512926101684
0.093208722770214
0.0826091468334198
0.0744810476899147
0.0689783692359924
0.0659569278359413
0.0649892315268516
0.0654124617576599
0.0664030760526657
0.0670776516199112
0.0666149258613586
0.0643778443336486
0.0600084885954856
0.053475335240364
0.0450626425445079
0.0353103466331958
0.0249299928545951
0.0147159807384014
0.0054544918239116
-0.0021698251366615
-0.0076538026332855
-0.0107236839830875
-0.0113500244915485
-0.0097354874014854
-0.0062780976295471
-0.0015157908201217
0.0039374753832817
0.0094541534781456
0.0144477039575576
0.0184143930673599
0.0209593176841735
0.0218071788549423
0.0207970961928367
0.0178598389029502
0.0129859149456024
0.0062026306986808
-0.0024368464946746
-0.0128649100661277
-0.0250021740794181
-0.0387240573763847
-0.0537983551621437
-0.0698393657803535
-0.0863126963376998
-0.1025931239128112
-0.1180578619241714
-0.1321846544742584
-0.1446211487054824
-0.1552105247974395
-0.1639796197414398
-0.1711003184318542
-0.1768329739570617
-0.1814661771059036
-0.1852704584598541
-0.1884761303663253
-0.1912697553634643
-0.1937988698482513
-0.1961798220872879
-0.1985052973031997
-0.2008422017097473
-0.2032103836536407
-0.2055532932281494
-0.2077247500419616
-0.2094995379447937
-0.2105996906757354
-0.2107307910919189
-0.209622636437416
-0.2070610672235489
-0.2028924524784088
-0.1970025897026062
-0.1893019527196884
-0.1797402054071426
-0.1683370769023895
-0.1552028805017471
-0.1405337005853653
-0.124585673213005
-0.1076432690024375
-0.0899903401732444
-0.0718834102153778
-0.0535264313220977
-0.035051941871643
-0.0165215730667114
0.0020380988717079
0.020570583641529
0.0389327444136142
0.0568821169435977
0.0741088539361953
0.0902853161096572
0.1051105335354805
0.11833968013525
0.1297976076602935
0.1393832862377166
0.1470686495304107
0.1528895646333694
0.156931534409523
0.1593169867992401
0.1602013260126114
0.1597811728715896
0.1583051830530166
0.1560684144496917
0.1533833146095276
0.1505382657051086
0.1477552205324173
0.1451534032821655
0.1427313685417175
0.1403778493404388
0.1379070729017257
0.1351071298122406
0.1317893862724304
0.1278267800807953
0.1231784373521804
0.1179064214229583
0.1121824607253074
0.1062759757041931
0.1005198583006858
0.0952605530619621
0.0908065885305404
0.0873876512050628
0.0851338133215904
0.0840807780623436
0.0841898247599601
0.0853637307882309
0.0874547958374023
0.0902715623378753
0.093588039278984
0.097155250608921
0.1007152795791626
0.1040190011262893
0.1068464145064354
0.1090225577354431
0.1104184836149215
0.1109359338879585
0.1104854121804237
0.108966588973999
0.1062573790550232
0.1022189185023307
0.09671650826931
0.0896469429135322
0.0809646472334861
0.070703886449337
0.0589937344193458
0.0460611879825592
0.0322175472974777
0.017830740660429
0.0032946020364761
-0.0109985955059528
-0.0246847569942474
-0.0374541580677032
-0.049069344997406
-0.0593672357499599
-0.0682490244507789
-0.0756668299436569
-0.081610657274723
-0.0860972627997398
-0.089166447520256
-0.0908873826265335
-0.0913700982928276
-0.0907724872231483
-0.0892979279160499
-0.087186649441719
-0.08470169454813
-0.0821074545383453
-0.0796470567584037
-0.0775269195437431
-0.0759051665663719
-0.0748771801590919
-0.0744612962007522
-0.0745951235294342
-0.0751478895545005
-0.0759428143501281
-0.0767810717225074
-0.0774667784571647
-0.0778336450457573
-0.0777672678232193
-0.0772163569927215
-0.0761918872594833
-0.0747553184628486
-0.0729997679591178
-0.0710334107279777
-0.0689702183008194
-0.0669236853718757
-0.0650001838803291
-0.0632951483130455
-0.0618932247161865
-0.0608660504221916
-0.0602644272148609
-0.0601114071905612
-0.0603990331292152
-0.0610833168029785
-0.0620771422982215
-0.0632489621639251
-0.0644334852695465
-0.0654515996575355
-0.0661331936717033
-0.0663414150476455
-0.0659961774945259
-0.065085545182228
-0.0636573731899261
-0.0617976784706115
-0.0596076287329196
-0.0571880117058754
-0.0546313859522342
-0.0520131923258304
-0.0493789874017238
-0.0467358268797397
-0.0440540425479412
-0.0412776879966259
-0.0383369177579879
-0.035154078155756
-0.0316448099911212
-0.027730293571949
-0.0233657024800777
-0.0185640603303909
-0.0134000889956951
-0.0079990364611148
-0.0025182105600833
0.002873707562685
0.0080163553357124
0.0127742476761341
0.0170467812567949
0.0207718387246131
0.0239275116473436
0.02653319388628
0.0286489650607109
0.0303744375705719
0.0318452306091785
0.0332208722829818
0.0346708670258522
0.0363740995526313
0.0385210439562797
0.0412912964820861
0.0448041707277298
0.0490689985454082
0.0539640262722969
0.059254452586174
0.0646382719278335
0.0698007494211196
0.074464164674282
0.0784244239330291
0.0815690755844116
0.0838775336742401
0.0854076370596885
0.0862702429294586
0.0865984335541725
0.0865242481231689
0.086167961359024
0.0856342613697052
0.0850087702274322
0.0843505412340164
0.0836805179715156
0.0829729884862899
0.082157477736473
0.0811297297477722
0.0797669738531112
0.0779482871294021
0.0755787044763565
0.0726095214486122
0.0690496116876602
0.0649638473987579
0.0604587867856025
0.055666297674179
0.0507314056158065
0.0458005852997303
0.0410077683627605
0.0364599116146564
0.0322271138429641
0.0283410083502531
0.024799982085824
0.0215771403163671
0.0186276379972696
0.0158961117267608
0.0133265489712357
0.0108723621815443
0.0085032396018505
0.006204173900187
0.0039610946550965
0.0017404668033123
-0.0005206894129514
-0.0029103942215442
-0.0055300444364547
-0.0084760403260588
-0.0118137067183852
-0.0155535135418176
-0.019640764221549
-0.0239602494984865
-0.0283510759472847
-0.0326265841722488
-0.0365976355969905
-0.0400975048542022
-0.0430020913481712
-0.0452424734830856
-0.0468097031116485
-0.0477473884820938
-0.0481345355510711
-0.0480700246989727
-0.04766246676445
-0.047022171318531
-0.0462545678019523
-0.0454550124704837
-0.0447036437690258
-0.0440605916082859
-0.0435640439391136
-0.0432342886924743
-0.0430840477347373
-0.0431273207068443
-0.0433773547410965
-0.0438376143574714
-0.0444953925907611
-0.0453191474080085
-0.0462588518857955
-0.0472516007721424
-0.0482301227748394
-0.0491287261247634
-0.0498864874243736
-0.050451286137104
-0.0507846698164939
-0.0508630126714706
-0.0506738536059856
-0.0502105019986629
-0.0494674444198608
-0.0484381392598152
-0.0471171289682388
-0.0455114468932151
-0.0436605364084243
-0.0416496023535728
-0.0396058037877082
-0.0376786440610885
-0.0360096842050552
-0.0347013287246227
-0.0337953269481658
-0.0332660302519798
-0.0330287292599678
-0.0329561792314052
-0.0328943654894828
-0.0326758883893489
-0.0321345627307891
-0.031121714040637
-0.0295213777571916
-0.0272631421685218
-0.0243315156549215
-0.0207684263586998
-0.016667116433382
-0.0121601484715938
-0.0074060261249542
-0.0025754608213901
0.002165999263525
0.0066780149936676
0.0108606144785881
0.0146601162850856
0.018067242577672
0.0211092140525579
0.0238376855850219
0.026314977556467
0.0286004431545734
0.0307359956204891
0.0327315255999565
0.0345604047179222
0.0361724570393562
0.0375156961381435
0.0385524071753025
0.0392654463648796
0.0396599769592285
0.0397631153464317
0.0396211631596088
0.0392956361174583
0.0388578213751316
0.0383807271718978
0.0379286780953407
0.0375455617904663
0.0372421294450759
0.0369805470108985
0.0366587862372398
0.0361084192991256
0.0351177230477333
0.0334733091294765
0.031005535274744
0.0276305265724658
0.0233773551881313
0.0183852352201938
0.0128765106201171
0.0071259140968322
0.0014341808855533
-0.0038962960243225
-0.0085845813155174
-0.012391272932291
-0.0151319876313209
-0.016685239970684
-0.0169983245432376
-0.016088917851448
-0.0140404477715492
-0.0109951421618461
-0.007148589938879
-0.0027416013181209
0.0019573755562305
0.0066800639033317
0.0111915208399295
0.0153174176812171
0.0189540982246398
0.0220615081489086
0.0246471390128135
0.0267517790198326
0.0284445211291313
0.0298197697848081
0.0309871491044759
0.0320597067475318
0.0331452712416648
0.0343380905687809
0.0357130616903305
0.0373251885175704
0.0392092242836952
0.0413766987621784
0.0438133962452411
0.0464796349406242
0.0493123345077037
0.0522268451750278
0.0551177971065044
0.0578613393008708
0.0603201761841774
0.0623480081558227
0.063791885972023
0.0644966810941696
0.0643168091773986
0.0631372854113578
0.0609008073806762
0.0576341077685356
0.0534650161862373
0.0486181639134883
0.0433853045105934
0.0380829125642776
0.0330165140330791
0.0284612625837326
0.0246515311300754
0.0217712894082069
0.0199455134570598
0.0192295759916305
0.0195975303649902
0.0209419894963502
0.0230882726609706
0.0258095674216747
0.0288339648395776
0.0318490415811538
0.034515768289566
0.0364934429526329
0.037471130490303
0.0372065007686615
0.0355657078325748
0.0325446054339408
0.0282578654587268
0.0229020118713378
0.0167099684476852
0.0099133551120758
0.0027226991951465
-0.0046726018190383
-0.01209507137537
-0.0193780325353145
-0.0263780169188976
-0.0329890474677085
-0.0391473546624183
-0.0448257401585578
-0.0500204786658287
-0.0547319874167442
-0.0589493066072464
-0.0626552253961563
-0.0658512786030769
-0.0685817822813987
-0.0709410533308982
-0.0730674862861633
-0.0751301199197769
-0.0773047655820846
-0.0797423347830772
-0.0825405865907669
-0.0857283994555473
-0.0892637073993682
-0.0930385664105415
-0.0968841314315795
-0.100575290620327
-0.1038425415754318
-0.106397695839405
-0.107970543205738
-0.1083473414182663
-0.1074004769325256
-0.1050995960831642
-0.1015067398548126
-0.0967650935053825
-0.0910802334547042
-0.0846898257732391
-0.0778302475810051
-0.0707088559865951
-0.0634800940752029
-0.0562295019626617
-0.0489784255623817
-0.0417144149541854
-0.0344352424144744
-0.0271770544350147
-0.0200126953423023
-0.0130431987345218
-0.006390388123691
-0.0001764567568898
0.0054977238178253
0.0105630364269018
0.0149972112849354
0.0188486687839031
0.0222441777586936
0.0253665354102849
0.0284166112542152
0.0315739065408706
0.0349579602479934
0.0385939739644527
0.0423883870244026
0.046118214726448
0.0494398400187492
0.0519208721816539
0.0530893318355083
0.0524900183081626
0.0497372634708881
0.0445578731596469
0.0368298217654228
0.0266220793128013
0.0142270987853407
0.0001653568760957
-0.0148561848327517
-0.0300308596342802
-0.0445629358291626
-0.0577697157859802
-0.0691464245319366
-0.0783850401639938
-0.0853594541549682
-0.0900938957929611
-0.0927229821681976
-0.0934481471776962
-0.0925009399652481
-0.0901202708482742
-0.0865359604358673
-0.0819516330957412
-0.0765321254730224
-0.070400059223175
-0.0636379495263099
-0.0562921911478042
-0.0483798906207084
-0.0399018228054046
-0.0308603048324584
-0.021273523569107
-0.0111765563488006
-0.000608243048191
0.0104048550128936
0.0218525230884552
0.0337261632084846
0.0459928251802921
0.0585731603205204
0.0713305324316024
0.0840702652931213
0.0965481624007225
0.1084886938333511
0.1196119710803031
0.1296622455120086
0.1384224891662597
0.1457117199897766
0.1513879150152206
0.1553710997104644
0.1576705276966095
0.1584010124206543
0.1577832996845245
0.1561156213283538
0.1537133753299713
0.1508424580097198
0.1476765125989914
0.1442838311195373
0.1406318247318267
0.1365923285484314
0.1319368183612823
0.1263346970081329
0.1193868890404701
0.1107077598571777
0.1000303924083709
0.0872906297445297
0.0726588889956474
0.0565195605158805
0.0394134670495986
0.0219574067741632
0.0047590769827365
-0.0116489427164196
-0.0268458798527717
-0.0405345410108566
-0.0525331795215606
-0.0627549067139625
-0.0711885914206504
-0.0778877288103103
-0.0829594656825065
-0.0865462571382522
-0.0888013616204261
-0.0898636281490325
-0.0898413658142089
-0.0888138264417648
-0.0868459045886993
-0.0840036123991012
-0.080360472202301
-0.075991503894329
-0.0709615871310234
-0.0653224140405654
-0.0591251105070114
-0.0524393841624259
-0.0453626662492752
-0.0380136147141456
-0.0305192004889249
-0.0230039171874523
-0.0155789963901042
-0.0083313668146729
-0.0013220170512795
0.0054040094837546
0.0118060633540153
0.0178361926227808
0.0234238784760236
0.0284623391926288
0.032797485589981
0.0362190157175064
0.0384687334299087
0.0392789915204048
0.0384302362799644
0.0358091928064823
0.0314588360488414
0.0256129130721092
0.0187005791813135
0.0113053098320961
0.0040797814726829
-0.0023560374975204
-0.0075024105608463
-0.0110398437827825
-0.0128569994121789
-0.0130378287285566
-0.0118130408227443
-0.0095024295151233
-0.0064710825681686
-0.003104668110609
0.0002027228474617
0.0030603297054767
0.0051036551594734
0.0060300417244434
0.0056344345211982
0.0038303583860397
0.0006501860916614
-0.0037733167409896
-0.0092349387705326
-0.0154851339757442
-0.0222551487386226
-0.0292747355997562
-0.0362799391150474
-0.0430164523422718
-0.0492441058158874
-0.0547457635402679
-0.0593402199447155
-0.0628953352570533
-0.0653384551405906
-0.0666572004556655
-0.0668826028704643
-0.0660590827465057
-0.0642188936471939
-0.061375543475151
-0.0575333014130592
-0.052698440849781
-0.0468825101852417
-0.0400937125086784
-0.0323229059576988
-0.0235449187457561
-0.0137444948777556
-0.0029492545872926
0.0087525937706232
0.0212138667702674
0.0342349782586097
0.0475614480674266
0.0608767941594123
0.073804073035717
0.0859226435422897
0.096801608800888
0.1060459166765213
0.1133419573307037
0.118491381406784
0.1214283257722854
0.12221559882164
0.12101711332798
0.1180554255843162
0.1135705560445785
0.1077902168035507
0.1009223610162735
0.0931824892759323
0.0848390609025955
0.0762345418334007
0.0677603632211685
0.0598002225160598
0.0526675730943679
0.0465533584356308
0.0414870679378509
0.0373146310448646
0.0337016955018043
0.0301638320088386
0.0261190310120582
0.0209617093205451
0.0141577646136283
0.0053476467728614
-0.0055709183216094
-0.0184082463383674
-0.0327056124806404
-0.0478056445717811
-0.0629530847072601
-0.0774059146642685
-0.0905341282486915
-0.101891852915287
-0.1112629622220993
-0.1186770051717758
-0.1243836134672164
-0.1287875324487686
-0.1323644965887069
-0.135576918721199
-0.1387982815504074
-0.1422583609819412
-0.1460267454385757
-0.1500299274921417
-0.1540729999542236
-0.1578519940376281
-0.1609714180231094
-0.1629845798015594
-0.1634572446346283
-0.162039428949356
-0.15853151679039
-0.1529347002506256
-0.1454682052135467
-0.136541873216629
-0.1266973465681076
-0.1165424436330795
-0.1066896319389343
-0.0976919084787368
-0.0899760276079177
-0.0837908238172531
-0.0791881680488586
-0.0760363712906837
-0.0740483552217483
-0.0728091523051261
-0.0718071311712265
-0.0704835802316665
-0.0683083981275558
-0.0648706257343292
-0.0599540323019027
-0.0535664819180965
-0.0459094196557998
-0.0373033322393894
-0.0281052514910697
-0.018646165728569
-0.0091950446367263
5.681812763214111e-05
0.0089990980923175
0.0175975672900676
0.0258808024227619
0.033916600048542
0.0417845547199249
0.0495565757155418
0.057284690439701
0.0649871677160263
0.0726343244314193
0.0801395997405052
0.0873607844114303
0.0941216871142387
0.100252129137516
0.105627566576004
0.1101997196674346
0.1140175908803939
0.1172284707427024
0.1200508177280426
0.1227222234010696
0.1254355460405349
0.128288596868515
0.1312649697065353
0.1342369318008422
0.1369797885417938
0.13920658826828
0.1406256407499313
0.141001671552658
0.140202060341835
0.1382205635309219
0.1351739764213562
0.1312760263681411
0.1267972737550735
0.1220145672559738
0.1171570867300033
0.1123650297522544
0.1076728254556655
0.1030183434486389
0.0982721820473671
0.0932729691267013
0.0878578945994377
0.0818888023495674
0.0752755850553512
0.0679957270622253
0.0601065494120121
0.0517445690929889
0.0431114956736564
0.0344510152935981
0.0260194279253482
0.018054861575365
0.0107487952336668
0.0042201210744678
-0.0015039877034723
-0.0064921183511614
-0.0108927451074123
-0.0149044431746006
-0.0187430586665868
-0.0226087216287851
-0.0266537871211767
-0.0309568643569946
-0.0355084277689456
-0.0402144268155097
-0.0449172258377075
-0.0494235679507255
-0.0535324215888977
-0.057060919702053
-0.0598663724958896
-0.061862651258707
-0.0630286633968353
-0.0634044334292411
-0.0630770623683929
-0.0621688738465309
-0.060829758644104
-0.0592234879732131
-0.0575076416134834
-0.0558149442076683
-0.0542416013777256
-0.0528472773730754
-0.0516633093357086
-0.0507005415856838
-0.0499560311436653
-0.0494177900254726
-0.0490585230290889
-0.0488200411200523
-0.0486052110791206
-0.0482854321599006
-0.0477168522775173
-0.0467608459293842
-0.045307207852602
-0.0432923100888729
-0.0407049804925918
-0.0375820212066173
-0.0339982844889164
-0.030053524300456
-0.0258587468415498
-0.0215271674096584
-0.0171727482229471
-0.0129151027649641
-0.0088857635855674
-0.0052275825291872
-0.0020841946825385
0.0004170271568
0.0021886117756366
0.003207400906831
0.0035240012221038
0.0032549439929425
0.0025623301044106
0.0016152532771229
0.000549092888832
-0.0005351500585675
-0.0015302095562219
-0.0022892327979207
-0.0026289634406566
-0.0023612668737769
-0.0013384670019149
0.0005003754049539
0.0030934633687138
0.0062381234019994
0.0095974439755082
0.0127321342006325
0.0151534210890531
0.0163955595344305
0.0160924829542636
0.0140312165021896
0.0101751033216714
0.004665620625019
-0.0021976139396429
-0.0100005101412534
-0.0182729251682758
-0.0265460312366485
-0.0343932509422302
-0.0414516851305961
-0.0474309511482715
-0.0521118119359016
-0.0553383566439151
-0.0570156760513782
-0.057117074728012
-0.0556891374289989
-0.0528475902974605
-0.0487689487636089
-0.0436803512275218
-0.0378445424139499
-0.0315395072102546
-0.025037981569767
-0.0185950323939323
-0.012443296611309
-0.0067878104746341
-0.0017982386052608
0.0023998171091079
0.0057364478707313
0.0082110650837421
0.0098956413567066
0.0109193064272403
0.011447537690401
0.0116687566041946
0.0117823593318462
0.0119827762246131
0.0124440044164657
0.0133052542805671
0.0146575719118118
0.0165384747087955
0.0189375504851341
0.021804790943861
0.0250564403831958
0.0285840258002281
0.0322715118527412
0.0360156260430812
0.039735946804285
0.0433678105473518
0.046850562095642
0.0501255430281162
0.0531419366598129
0.0558635145425796
0.0582759454846382
0.0603947043418884
0.0622663274407386
0.0639570653438568
0.0655336007475853
0.0670449361205101
0.068510502576828
0.069914698600769
0.0712081715464592
0.0723194107413292
0.073177233338356
0.0737349838018417
0.0739847645163536
0.0739549994468689
0.0736919343471527
0.0732341706752777
0.0725925117731094
0.0717411935329437
0.070617988705635
0.0691310912370681
0.0671725422143936
0.0646330565214157
0.0614126995205879
0.0574312657117843
0.0526454634964466
0.0470681712031364
0.0407755225896835
0.0338975712656974
0.0266008973121643
0.019069205969572
0.0114842895418405
0.0040109995752573
-0.003210503142327
-0.0100639667361974
-0.016450272873044
-0.0222800336778163
-0.0274699460715055
-0.0319443345069885
-0.0356400832533836
-0.0385129079222679
-0.0405420176684856
-0.0417282432317733
-0.042089357972145
-0.0416622310876846
-0.0405103713274002
-0.0387296564877033
-0.0364502668380737
-0.0338332541286945
-0.0310620851814746
-0.0283322148025035
-0.0258398260921239
-0.0237687211483716
-0.0222751200199127
-0.0214713010936975
-0.021409748122096
-0.0220729503780603
-0.0233732815831899
-0.0251639522612094
-0.0272651109844446
-0.0295044090598821
-0.0317552462220191
-0.0339532643556594
-0.0360886082053184
-0.0381874404847621
-0.040292739868164
-0.0424436703324317
-0.0446568354964256
-0.0469187870621681
-0.0491921231150627
-0.0514284074306488
-0.0535813719034194
-0.0556165426969528
-0.0575105398893356
-0.0592379942536354
-0.0607577189803123
-0.0620101243257522
-0.0629224553704261
-0.0634122267365455
-0.0633909329771995
-0.062777355313301
-0.0615164488554
-0.0595891736447811
-0.0570099242031574
-0.0538180284202098
-0.0500660724937915
-0.0458070561289787
-0.0410877093672752
-0.035955112427473
-0.03047133423388
-0.0247243326157331
-0.0188324972987175
-0.012942710891366
-0.0072150733321905
-0.0017937663942575
0.0032239239662885
0.007807407528162
0.0119935031980276
0.0158668681979179
0.0195293314754962
0.0230719037353992
0.026558106765151
0.0300226788967847
0.0334858372807502
0.0369755662977695
0.0405474454164505
0.0442960858345031
0.0483571253716945
0.0528999902307987
0.0581089705228805
0.0641521662473678
0.0711437761783599
0.0791056007146835
0.0879349559545517
0.0973905771970748
0.1071053743362426
0.1166252568364143
0.1254669427871704
0.1331836432218551
0.1394262313842773
0.1439891457557678
0.146831527352333
0.1480649411678314
0.147908329963684
0.1466254144906997
0.1444655507802963
0.1416203826665878
0.1382004618644714
0.1342340558767318
0.1296827942132949
0.1244711354374885
0.1185362935066223
0.1118826866149902
0.1046037375926971
0.0968638584017753
0.088867612183094
0.0808333531022071
0.0729698538780212
0.0654515698552131
0.0583908930420875
0.0518097579479217
0.0456237718462944
0.0396518111228942
0.0336491614580154
0.0273521393537521
0.0205238312482833
0.0129930675029754
0.0046776682138442
-0.0044130533933639
-0.0141905397176742
-0.0245017856359481
-0.0351405590772628
-0.0458589494228363
-0.0563870370388031
-0.0664630308747291
-0.0758711546659469
-0.0844764336943626
-0.0922423973679542
-0.0992279350757598
-0.1055691093206405
-0.1114541888236999
-0.1170944646000862
-0.122688852250576
-0.128389686346054
-0.1342774927616119
-0.1403431743383407
-0.1464796364307403
-0.1524924635887146
-0.1581295132637024
-0.1631187945604324
-0.1672049760818481
-0.1701839715242386
-0.171937495470047
-0.1724544167518615
-0.1718234866857528
-0.1702063083648681
-0.1678080707788467
-0.1648516207933426
-0.1615552604198455
-0.1581173837184906
-0.1547076106071472
-0.151458203792572
-0.1484546065330505
-0.1457312852144241
-0.1432725936174392
-0.1410146951675415
-0.1388500332832336
-0.136640265583992
-0.1342376172542572
-0.1315047889947891
-0.1283255517482757
-0.1246080994606018
-0.1202860549092292
-0.1153218001127243
-0.109712079167366
-0.1034906506538391
-0.0967269837856292
-0.0895215421915054
-0.0819950550794601
-0.0742745697498321
-0.0664818435907363
-0.0587221458554267
-0.0510722771286964
-0.0435764379799366
-0.0362577587366104
-0.0291379485279321
-0.0222530402243137
-0.015661384910345
-0.0094441547989845
-0.0036973133683204
0.0014865137636661
0.006043154746294
0.0099615417420864
0.0132999382913112
0.016185101121664
0.0187916234135627
0.0213105306029319
0.0239207968115806
0.0267703160643577
0.0299629569053649
0.0335493721067905
0.0375269874930381
0.0418501421809196
0.0464395806193351
0.0511863976716995
0.055960938334465
0.0606323666870594
0.0650910958647728
0.0692657977342605
0.0731298848986625
0.0766953378915786
0.0799983665347099
0.0830839201807975
0.0859954059123992
0.0887726619839668
0.0914502590894699
0.0940490514039993
0.0965685099363327
0.0989859774708747
0.1012596786022186
0.1033355221152305
0.1051572188735008
0.1066752895712852
0.1078536063432693
0.1086773201823234
0.1091618686914444
0.1093548685312271
0.1093261539936065
0.109152503311634
0.1089074462652206
0.1086551398038864
0.1084354668855667
0.1082383021712303
0.1079873517155647
0.1075514629483223
0.106777511537075
0.1055280417203903
0.1037122458219528
0.1013045981526374
0.0983492732048034
0.0949523746967315
0.0912654921412468
0.0874609351158142
0.0837020054459571
0.080119103193283
0.0767999663949012
0.0737917497754097
0.0711070075631141
0.0687309056520462
0.0666314288973808
0.0647679045796394
0.0630928054451942
0.0615507140755653
0.0600779317319393
0.0586033761501312
0.0570540279150009
0.055365864187479
0.0534949973225593
0.0514246635138988
0.0491665638983249
0.0467556565999984
0.0442414134740829
0.0416755378246307
0.0390906035900116
