bvp
0.0650258958339691
0.0732180178165435
0.080468900501728
0.0864159166812896
0.0908334627747535
0.0936640277504921
0.0950213223695755
0.0951632857322692
0.0944427847862243
0.0932467430830001
0.0919337645173072
0.0907813012599945
0.0899540185928344
0.0894975513219833
0.0893480032682418
0.0893467366695404
0.0892643257975578
0.0888398438692092
0.0878277868032455
0.0860369727015495
0.0833522006869316
0.079738825559616
0.0752309113740921
0.069903627038002
0.0638396963477134
0.0571049153804779
0.0497405789792537
0.0417719073593616
0.0332286991178989
0.0241713523864746
0.0147079583257436
0.0049939211457967
-0.0047753471881151
-0.0143695110455155
-0.0235340669751167
-0.0320129320025444
-0.0395759865641593
-0.0460442826151847
-0.0513096824288368
-0.0553450807929039
-0.0582041889429092
-0.0600125454366207
-0.0609505251049995
-0.0612337440252304
-0.0610946603119373
-0.0607591271400451
-0.0604206398129463
-0.0602222010493278
-0.0602446645498275
-0.0605019330978393
-0.0609443187713623
-0.0614595748484134
-0.0618681237101554
-0.0619262158870697
-0.06134594976902
-0.0598269924521446
-0.0570947676897048
-0.0529441386461257
-0.0472827404737472
-0.0401598997414112
-0.0317692272365093
-0.0224256627261638
-0.012530212290585
-0.002536280080676
0.0070813130587339
0.0158607587218284
0.0233914293348789
0.0293509792536497
0.0335356444120407
0.0358769781887531
0.0364404171705246
0.0354104712605476
0.0330673605203628
0.0297505427151918
0.0258117746561765
0.0215725842863321
0.0172966700047254
0.0131766367703676
0.0093300212174654
0.0058070737868547
0.0026176087558269
-0.0002302136272192
-0.0026953518390655
-0.004674520343542
-0.0059722736477851
-0.0062878150492906
-0.0052501037716865
-0.0025047268718481
0.002181289717555
0.0088342018425464
0.0172295719385147
0.0268982574343681
0.037179484963417
0.0473084524273872
0.056516271084547
0.0641221851110458
0.0696140155196189
0.0727095529437065
0.0733794420957565
0.0718215405941009
0.0683939754962921
0.0635325238108635
0.0576844550669193
0.0512675642967224
0.0446408540010452
0.038076177239418
0.0317309126257896
0.0256326720118522
0.0196883678436279
0.0137167274951934
0.0074938610196113
0.0008058100938796
-0.0065001621842384
-0.014480248093605
-0.023081324994564
-0.0321484245359897
-0.0414494983851909
-0.0507099814713001
-0.0596437528729438
-0.0679735764861106
-0.0754493176937103
-0.0818712934851646
-0.087110161781311
-0.0911134108901023
-0.0938958972692489
-0.0955136865377426
-0.0960298553109169
-0.0954901874065399
-0.0939165353775024
-0.0913104116916656
-0.0876610353589057
-0.0829612910747528
-0.077230766415596
-0.0705349072813987
-0.0629954785108566
-0.0547994785010814
-0.0462064631283283
-0.0375432856380939
-0.0291825979948043
-0.0215066373348236
-0.0148557946085929
-0.0094743072986602
-0.0054774917662143
-0.0028515309095382
-0.0014757923781871
-0.001153789460659
-0.0016471333801746
-0.0027138590812683
-0.0041486993432044
-0.0058163404464721
-0.007669560611248
-0.009745430201292
-0.0121391788125038
-0.0149677880108356
-0.0183360856026411
-0.0223084613680839
-0.026882255449891
-0.031964011490345
-0.0373612642288208
-0.042800772935152
-0.0479680374264717
-0.0525515675544738
-0.0562801510095596
-0.0589513033628463
-0.060451254248619
-0.0607646889984607
-0.0599714964628219
-0.0582299008965492
-0.0557485930621624
-0.0527538396418094
-0.0494607612490654
-0.0460534617304801
-0.0426693856716156
-0.0393873266875743
-0.0362276285886764
-0.0331651419401168
-0.030145063996315
-0.0270971897989511
-0.0239502247422933
-0.0206456203013658
-0.0171474087983369
-0.0134445652365684
-0.0095463283360004
-0.005475714802742
-0.0012646913528442
0.0030489116907119
0.007423136383295
0.011812400072813
0.016166616231203
0.020428292453289
0.0245244298130273
0.0283548813313245
0.0317899361252784
0.0346856452524662
0.0369116738438606
0.0383808836340904
0.0390712097287178
0.0390350967645645
0.0383958742022514
0.0373328104615211
0.0360595062375068
0.0348003357648849
0.033767107874155
0.0331380479037761
0.0330437049269676
0.0335615687072277
0.0347140207886695
0.0364681482315063
0.0387444980442523
0.0414348021149635
0.0444190166890621
0.0475762709975242
0.0507912263274192
0.0539581179618835
0.056984432041645
0.0597957149147987
0.062340248376131
0.0645912736654281
0.0665459483861923
0.0682217925786972
0.0696517676115036
0.0708766430616378
0.0719316080212593
0.0728306770324707
0.0735594928264617
0.0740786716341972
0.0743325129151344
0.0742599368095398
0.0738050788640976
0.0729261934757232
0.0716006979346275
0.0698211714625358
0.0675820484757423
0.0648663789033889
0.0616424269974231
0.0578715875744819
0.0535247437655925
0.0486023612320423
0.0431490391492843
0.0372558198869228
0.0310534108430147
0.0247029401361942
0.0183868613094091
0.0122976060956716
0.0066211139783263
0.0015184711664915
-0.0028891433030366
-0.0065318122506141
-0.0093967299908399
-0.01152422465384
-0.0129961743950843
-0.0139239011332392
-0.0144352680072188
-0.0146581567823886
-0.0147086065262556
-0.0146880745887756
-0.0146787809208035
-0.0147341946139931
-0.0148738753050565
-0.0150838932022452
-0.0153201594948768
-0.0155174173414707
-0.0156045975163578
-0.0155209610238671
-0.015227036550641
-0.0147077571600675
-0.0139688914641737
-0.0130312200635671
-0.0119272507727146
-0.0107002248987555
-0.0094033405184745
-0.0080981543287634
-0.006849218159914
-0.0057192342355847
-0.0047732940874993
-0.0040878970175981
-0.0037544416263699
-0.0038720034062862
-0.0045297658070921
-0.0057867020368576
-0.0076562967151403
-0.010097611695528
-0.0130129996687173
-0.0162546634674072
-0.0196389574557542
-0.0229643955826759
-0.026034440845251
-0.0286835767328739
-0.0307966209948062
-0.0323169827461242
-0.03324506431818
-0.0336269699037075
-0.0335388034582138
-0.0330734886229038
-0.0323297083377838
-0.0314011014997959
-0.0303684920072555
-0.0292957127094268
-0.0282274894416332
-0.027190376073122
-0.0261949505656957
-0.025237388908863
-0.0243053697049617
-0.0233890246599912
-0.0224864687770605
-0.0215989407151937
-0.0207231380045413
-0.0198469385504722
-0.0189473927021026
-0.0179903581738472
-0.0169338192790746
-0.0157351456582546
-0.0143609587103128
-0.0127952825278043
-0.011041878722608
-0.0091240322217345
-0.0070831682533025
-0.0049724983982741
-0.0028519621118903
-0.0007938873022794
0.0011074170470237
0.002735064830631
0.0039599845185875
0.0046567227691411
0.0047219158150255
0.0040960749611258
0.0027836170047521
0.000861553940922
-0.0015268397983163
-0.0041906107217073
-0.0069162687286734
-0.0094933742657303
-0.0117351990193128
-0.0134913241490721
-0.0146578243002295
-0.0151867624372243
-0.01508529484272
-0.0144063355401158
-0.0132399210706353
-0.0117025561630725
-0.0099222995340824
-0.0080241644755005
-0.0061168894171714
-0.004281320143491
-0.0025636348873376
-0.0009732665494084
0.0005139354616403
0.0019448082894086
0.0033743146341294
0.004851465113461
0.0064031346701085
0.0080192368477582
0.0096514895558357
0.0112274214625358
0.0126684047281742
0.0139036700129508
0.0148799400776624
0.0155681390315294
0.0159671399742364
0.0161026827991008
0.0160208791494369
0.0157798379659652
0.0154413972049951
0.0150614222511649
0.0146806389093399
0.0143184512853622
0.0139656020328402
0.0135756004601717
0.0130661223083734
0.0123366359621286
0.0112942913547158
0.0098791560158133
0.0080844266340136
0.0059658144600689
0.0036360209342092
0.001246987376362
-0.0010328325442969
-0.003039707429707
-0.0046326168812811
-0.0057090539485216
-0.006216334644705
-0.0061534317210316
-0.0055669797584414
-0.0045477682724595
-0.0032223323360085
-0.0017343992367386
-0.0002228152006864
0.0011947518214583
0.0024318043142557
0.0034411735832691
0.0042190924286842
0.0047991923056542
0.0052371309138834
0.0055943387560546
0.0059272646903991
0.0062804850749671
0.0066828420385718
0.0071481121703982
0.0076753892935812
0.0082476632669568
0.0088374894112348
0.0094195902347564
0.0099784005433321
0.0105069242417812
0.0110028544440865
0.0114668030291795
0.0119011029601097
0.0123030059039592
0.012652650475502
0.0129036698490381
0.0129805179312825
0.0127836996689438
0.0122067760676145
0.0111645553261041
0.0096181156113743
0.0075822290964424
0.0051214732229709
0.0023466383572667
-0.0005924096331
-0.0035225544124841
-0.0062678707763552
-0.0086705209687352
-0.0106081832200288
-0.012002844363451
-0.0128223802894353
-0.0130796451121568
-0.0128274643793702
-0.0121480152010917
-0.0111407386139035
-0.0099116712808609
-0.0085650747641921
-0.007198772393167
-0.0059004640206694
-0.0047385520301759
-0.0037476299330592
-0.0029187982436269
-0.0022024188656359
-0.0015200023772194
-0.0007793398108333
0.0001086655538529
0.0012123314663767
0.0025652905460447
0.0041615883819758
0.0059588346630334
0.0078850537538528
0.0098492391407489
0.0117548257112503
0.0135108726099133
0.0150400549173355
0.0162871479988098
0.0172267667949199
0.0178628806024789
0.0182184409350156
0.0183218568563461
0.0181919503957033
0.0178217180073261
0.0171712785959243
0.0161764100193977
0.0147656435146927
0.0128809260204434
0.0105002438649535
0.0076539423316717
0.0044243447482585
0.0009292475879192
-0.0026961918920278
-0.0063090492039918
-0.0097662257030606
-0.0129378512501716
-0.0157216489315032
-0.018049431964755
-0.0198861416429281
-0.0212273243814706
-0.0220952630043029
-0.0225335638970136
-0.0226042717695236
-0.0223842710256576
-0.0219537876546382
-0.0213816314935684
-0.0207199435681104
-0.0200105719268322
-0.0192908570170402
-0.0185922253876924
-0.0179376378655433
-0.0173404775559902
-0.0168013349175453
-0.0163050796836614
-0.0158242788165807
-0.0153273474425077
-0.0147847486659884
-0.0141707528382539
-0.0134637970477342
-0.0126484623178839
-0.0117156635969877
-0.0106589766219258
-0.0094754975289106
-0.0081741688773036
-0.006780260708183
-0.0053320862352848
-0.0038782756309956
-0.0024768700823187
-0.0011915885843336
-8.890917524695396e-05
0.0007595703937113
0.0012760702520608
0.0013836505822837
0.0010190797038376
0.0001473003067076
-0.0012267504353076
-0.0030523408204317
-0.0052322358824312
-0.0076288883574306
-0.0100809726864099
-0.012425173074007
-0.0145157845690846
-0.0162376388907432
-0.01751016266644
-0.0182876344770193
-0.0185604076832532
-0.0183546412736177
-0.0177285056561231
-0.0167635176330804
-0.01554961130023
-0.0141688538715243
-0.0126849263906478
-0.0111392615363001
-0.009552807547152
-0.0079353591427207
-0.0062983417883515
-0.0046599488705396
-0.0030397148802876
-0.0014489023014903
0.0001163939014077
0.0016756393015384
0.0032582748681306
0.0048957886174321
0.0066191675141453
0.0084681771695613
0.010503739118576
0.0128055084496736
0.0154504990205168
0.0184872280806303
0.0219199955463409
0.025703715160489
0.0297459363937377
0.0339177064597606
0.0380669794976711
0.0420227125287056
0.0455915927886962
0.0485609024763107
0.0507135316729545
0.0518496036529541
0.0518105551600456
0.0505052544176578
0.0479322373867034
0.0441891774535179
0.0394669771194458
0.0340316519141197
0.0281969923526048
0.0222889967262744
0.0166073180735111
0.0113951722159981
0.0068237483501434
0.0029867473058402
-0.0001006482634693
-0.0024967887438833
-0.0043176398612558
-0.0057122060097754
-0.0068381214514374
-0.007844379171729
-0.00886139459908
-0.0099930055439472
-0.0113087641075253
-0.0128395808860659
-0.0145769417285919
-0.0164777971804142
-0.0184750948101282
-0.020486794412136
-0.0224217772483825
-0.0241860635578632
-0.0256906189024448
-0.0268606804311275
-0.0276441220194101
-0.0280164610594511
-0.0279818028211593
-0.0275695398449897
-0.0268275495618581
-0.0258132442831993
-0.0245845168828964
-0.0231932085007429
-0.0216833408921957
-0.0200981236994266
-0.0184945464134216
-0.0169525723904371
-0.0155712459236383
-0.0144572965800762
-0.0137105360627174
-0.0134056517854332
-0.0135744549334049
-0.0141974966973066
-0.0152095258235931
-0.0165161658078432
-0.0180169735103845
-0.0196283943951129
-0.0212959386408329
-0.0229848735034465
-0.0246531628072261
-0.0262269414961338
-0.0275923945009708
-0.0286027230322361
-0.0290965735912323
-0.0289246197789907
-0.0279760751873254
-0.0261966586112976
-0.0235961265861988
-0.0202463846653699
-0.0162707660347223
-0.0118290577083826
-0.0071026161313056
-0.0022783242166042
0.0024689268320798
0.0069923251867294
0.0111831836402416
0.0149698294699192
0.0183080602437257
0.0211749449372291
0.023568507283926
0.025505606085062
0.0270183179527521
0.0281535144895315
0.0289737731218338
0.0295579731464386
0.0300005972385406
0.0304060615599155
0.0308780595660209
0.0315078422427177
0.0323646441102027
0.0334890000522136
0.0348856300115585
0.0365103483200073
0.0382550172507762
0.0399453118443489
0.0413590334355831
0.0422601252794265
0.0424382090568542
0.0417437776923179
0.0401132740080356
0.037581481039524
0.0342803448438644
0.0304228365421295
0.0262724012136459
0.022106884047389
0.0181855596601963
0.0147227980196475
0.0118723455816507
0.0097190020605921
0.0082722352817654
0.0074687264859676
0.0071902694180607
0.0072900475934147
0.0076177157461643
0.0080392099916934
0.0084492098540067
0.0087759904563426
0.0089821387082338
0.0090635307133197
0.0090452441945672
0.0089727798476815
0.0088991168886423
0.0088735185563564
0.0089379381388425
0.0091235833242535
0.0094400839880108
0.0098674353212118
0.0103607950732111
0.0108634009957313
0.0113204391673207
0.0116904228925704
0.0119496099650859
0.012089679017663
0.0121144847944378
0.0120374392718076
0.0118774902075529
0.0116520328447222
0.0113655962049961
0.0109975626692175
0.0104926517233252
0.0097518805414438
0.0086305392906069
0.0069597288966178
0.0045892801135778
0.0014300066977739
-0.0025221053510904
-0.0071817012503743
-0.0123846884816885
-0.0179098062217235
-0.0235055442899465
-0.0289179123938083
-0.0339192375540733
-0.0383350886404514
-0.0420614518225193
-0.0450651049613952
-0.0473665855824947
-0.0490173324942588
-0.0500844754278659
-0.0506418645381927
-0.0507598221302032
-0.0504967272281646
-0.049899511039257
-0.0490099266171455
-0.0478687286376953
-0.0465164259076118
-0.0449929423630237
-0.0433365516364574
-0.0415792539715766
-0.0397354215383529
-0.0377880446612834
-0.0356850288808345
-0.0333549939095974
-0.0307370945811271
-0.0278031174093484
-0.0245569199323654
-0.0210211016237735
-0.0172234047204256
-0.0131842922419309
-0.0089076114818453
-0.0043793078511953
0.0004202397540211
0.0054931808263063
0.0108028417453169
0.0162577033042907
0.0216978825628757
0.0268918611109256
0.0315576642751693
0.035407043993473
0.0381867662072181
0.0396993793547153
0.0398186407983303
0.038511537015438
0.0358552671968936
0.0320407114923
0.0273611266165971
0.0221856478601694
0.0169246476143598
0.0119928140193223
0.0077661909162998
0.0045344829559326
0.0024618860334157
0.0015673835296183
0.0017299727769568
0.0027221031486988
0.0042612915858626
0.0060609709471464
0.0078729148954153
0.0095198983326554
0.010912369005382
0.0120469629764556
0.0129893822595477
0.0138450423255562
0.014729157090187
0.0157472025603055
0.0169806461781263
0.0184675194323062
0.0201799031347036
0.0220107790082693
0.0237802602350711
0.0252610575407743
0.0262120570987463
0.0264115110039711
0.0256929993629455
0.0239795874804258
0.0213005896657705
0.0177858099341392
0.0136421602219343
0.0091188587248325
0.0044674649834632
-9.887572377920152e-05
-0.0044407062232494
-0.0085130259394645
-0.0123645337298512
-0.0161118600517511
-0.0198947638273239
-0.0238286815583705
-0.0279709585011005
-0.0323097519576549
-0.0367724522948265
-0.0412434861063957
-0.0455875322222709
-0.0496727339923381
-0.0533826872706413
-0.0566193535923957
-0.0593066811561584
-0.0613920949399471
-0.0628433153033256
-0.0636456310749054
-0.0637989789247512
-0.0633130893111229
-0.0622026659548282
-0.0604821406304836
-0.0581635348498821
-0.0552636086940765
-0.0518144145607948
-0.0478684455156326
-0.0434991084039211
-0.038796879351139
-0.0338595062494277
-0.0287800468504428
-0.0236382875591516
-0.0184985343366861
-0.0134123489260673
-0.0084186345338821
-0.0035360120236873
0.0012489184737205
0.0059911496937274
0.0107876416295766
0.0157592166215181
0.021016227081418
0.0266297981142997
0.032624177634716
0.0389812514185905
0.0456412173807621
0.052492868155241
0.0593598186969757
0.0659986585378646
0.0721200555562973
0.077427938580513
0.0816629528999328
0.0846357718110084
0.0862419754266738
0.0864645987749099
0.0853762030601501
0.0831403136253357
0.0800014287233352
0.0762596577405929
0.0722368583083152
0.0682407766580581
0.0645287334918975
0.061274841427803
0.0585503987967968
0.0563238710165023
0.0544751174747943
0.0528156273066997
0.0511152707040309
0.0491333603858947
0.0466450825333595
0.0434616096317768
0.0394474752247333
0.0345349758863449
0.0287344083189964
0.0221394039690494
0.0149216763675212
0.0073081143200397
-0.0004570838063955
-0.0081529784947633
-0.0156115274876356
-0.0227273553609848
-0.029448602348566
-0.0357584282755851
-0.0416539162397384
-0.047124445438385
-0.0521347783505916
-0.0566167533397674
-0.0604699626564979
-0.0635775178670883
-0.0658377707004547
-0.0671974271535873
-0.067672848701477
-0.0673537477850914
-0.0663896575570106
-0.0649697929620742
-0.0633057951927185
-0.0616150125861167
-0.060099184513092
-0.0589196123182773
-0.0581727176904678
-0.0578700266778469
-0.0579299964010715
-0.0581862218677997
-0.0584074482321739
-0.0583277381956577
-0.057686373591423
-0.0562603920698165
-0.0538727007806301
-0.050382275134325
-0.0456778034567832
-0.0396908596158027
-0.0324218906462192
-0.0239571034908294
-0.014468315988779
-0.0042042788118124
0.0065208170562982
0.017343895509839
0.0278769508004188
0.0377375222742557
0.0465830415487289
0.0541373565793037
0.0601982660591602
0.0646394789218902
0.0674211829900741
0.0685979127883911
0.0683129355311393
0.066782146692276
0.0642675161361694
0.0610412843525409
0.0573535598814487
0.0534190572798252
0.0494225174188613
0.0455238670110702
0.0418539308011531
0.0385113582015037
0.0355667993426322
0.0330669023096561
0.0310289748013019
0.0294270347803831
0.0281816441565752
0.0271635130047798
0.026210144162178
0.0251493789255619
0.0238213315606117
0.0220947582274675
0.0198796428740024
0.0171353016048669
0.0138725070282816
0.0101515315473079
0.0060768900439143
0.0017888378351926
-0.0025462014600634
-0.0067500052973628
-0.0106560410931706
-0.0141330678015947
-0.0170987006276845
-0.0195233412086963
-0.0214272141456604
-0.0228715986013412
-0.0239460691809654
-0.0247542485594749
-0.0254003349691629
-0.0259779430925846
-0.0265614427626132
-0.0271979812532663
-0.0279007591307163
-0.0286477878689765
-0.0293870829045772
-0.0300485007464885
-0.0305604934692382
-0.0308615639805793
-0.0309000369161367
-0.0306275449693202
-0.0299941226840019
-0.0289492513984441
-0.0274479892104864
-0.0254577659070491
-0.0229623410850763
-0.0199627541005611
-0.0164784453809261
-0.012551742605865
-0.0082552572712302
-0.003698771353811
0.0009648706763982
0.0055306265130639
0.0097337961196899
0.0132608227431774
0.0157844480127096
0.0170114543288946
0.0167254768311977
0.0148137882351875
0.0112786898389458
0.0062392260879278
-7.377471774816513e-05
-0.0073300781659781
-0.015123444609344
-0.0230079554021358
-0.0305398590862751
-0.0373133346438407
-0.0429896563291549
-0.0473263412714004
-0.0502012073993682
-0.0516179352998733
-0.0516907796263694
-0.0506159551441669
-0.0486367866396904
-0.0460078343749046
-0.0429632328450679
-0.0396945774555206
-0.0363392606377601
-0.0329788476228714
-0.0296486653387546
-0.0263527818024158
-0.0230773761868476
-0.0198013763874769
-0.0165018495172262
-0.0131577402353286
-0.0097595229744911
-0.0063197799026966
-0.0028765369206666
0.0005119182169437
0.0037793330848217
0.00686502084136
0.0097227711230516
0.0123268608003854
0.0146784149110317
0.0168092418462038
0.0187814645469188
0.0206849761307239
0.0226285047829151
0.0247181039303541
0.027024507522583
0.0295460168272256
0.0321812108159065
0.0347301587462425
0.0369284749031066
0.038498293608427
0.0391957685351371
0.0388475321233272
0.0373797751963138
0.0348380841314792
0.0313904099166393
0.0273107159882783
0.0229447111487388
0.0186625644564628
0.0148121397942304
0.0116872321814298
0.0095116328448057
0.0084265563637018
0.0084770992398262
0.0096114575862884
0.0116989482194185
0.0145558025687932
0.0179719440639019
0.0217381492257118
0.0256703030318021
0.0296266879886388
0.0335151329636573
0.0372880324721336
0.0409286767244339
0.0444359704852104
0.047811172902584
0.0510483011603355
0.0541280023753643
0.0570095628499984
0.0596209168434143
0.0618575140833854
0.0635964199900627
0.0647176802158355
0.0651217252016067
0.0647390261292457
0.0635358914732933
0.0615197010338306
0.0587409548461437
0.0552911460399627
0.0512990169227123
0.0469207130372524
0.0423163399100303
0.037618800997734
0.0329093113541603
0.0282042529433965
0.0234534684568643
0.0185533445328474
0.0133739616721868
0.0077958311885595
0.0017503462731838
-0.004749197512865
-0.0115996357053518
-0.0186200253665447
-0.0255726687610149
-0.0321915782988071
-0.0382167510688304
-0.0434259511530399
-0.0476578846573829
-0.0508235692977905
-0.0529067926108837
-0.0539620593190193
-0.0541114434599876
-0.0535288453102111
-0.0524092353880405
-0.050936721265316
-0.0492640882730484
-0.0475049503147602
-0.0457339957356452
-0.0439922548830509
-0.0422944948077201
-0.0406358167529106
-0.038997933268547
-0.0373563095927238
-0.0356877967715263
-0.0339770689606666
-0.032217588275671
-0.0304094981402158
-0.028561994433403
-0.0266957022249698
-0.0248380489647388
-0.0230166502296924
-0.0212560277432203
-0.0195756517350673
-0.0179866384714841
-0.0164887811988592
-0.015072476118803
-0.0137299876660108
-0.0124753098934888
-0.011361701413989
-0.0104829482734203
-0.0099549945443868
-0.0098872855305671
-0.0103590134531259
-0.0114064961671829
-0.0130147524178028
-0.0151111129671335
-0.0175665020942688
-0.0202053245157003
-0.0228221341967582
-0.0252041891217231
-0.0271543264389038
-0.028507936745882
-0.0291442237794399
-0.0289943069219589
-0.0280445218086242
-0.0263325255364179
-0.023938687518239
-0.0209756661206483
-0.0175796970725059
-0.0139069752767682
-0.0101300813257694
-0.0064271595329046
-0.0029634851962327
0.0001295553520321
0.002771264873445
0.0049387523904442
0.0066628186032176
0.008015614002943
0.0090931868180632
0.0099948979914188
0.0108056347817182
0.0115862265229225
0.012372656725347
0.0131813306361436
0.0140118822455406
0.0148441204801201
0.0156393274664878
0.0163504332304
0.0169333964586257
0.0173552669584751
0.0175983738154172
0.0176590718328952
0.0175403393805027
0.0172387715429067
0.0167300198227167
0.0159626640379428
0.0148672154173254
0.0133748045191168
0.0114369494840502
0.009042952209711
0.0062285028398036
0.0030711703002452
-0.0003173509612679
-0.0037954282015562
-0.0072010997682809
-0.0103710917755961
-0.0131605435162782
-0.0154575360938906
-0.0171914361417293
-0.0183352287858724
-0.0189060606062412
-0.0189656056463718
-0.0186129733920097
-0.0179663300514221
-0.0171402599662542
-0.0162290222942829
-0.0153011530637741
-0.0144005417823791
-0.0135462703183293
-0.0127326026558876
-0.0119325695559382
-0.0111044682562351
-0.0101997517049312
-0.0091714672744274
-0.0079837348312139
-0.0066190678626298
-0.0050776973366737
-0.0033721448853611
-0.0015262318775057
0.0004218341782689
0.0024224296212196
0.0044264364987611
0.0063935606740415
0.0082901008427143
0.0100869759917259
0.0117639508098363
0.0133134480565786
0.0147402612492442
0.0160577166825532
0.0172796435654163
0.0184075608849525
0.0194159150123596
0.0202433280646801
0.0207967665046453
0.0209670830518007
0.0206496492028236
0.0197669602930545
0.0182915423065423
0.0162600334733724
0.0137701500207185
0.0109661594033241
0.0080200796946883
0.0051095569506287
0.0023981891572475
2.321973443031311e-05
-0.0019143717363476
-0.0033574495464563
-0.0042911861091852
-0.0047349007800221
-0.0047325110062956
-0.0043423362076282
-0.0036299396306276
-0.0026656575500965
-0.0015226304531097
-0.0002751909196376
0.0010026544332504
0.0022454671561717
0.0034104045480489
0.0044870674610137
0.0054981745779514
0.0064915856346488
0.0075274342671036
0.008666100911796
0.0099597228690981
0.0114459842443466
0.0131420791149139
0.0150397010147571
0.0171030145138502
0.019271045923233
0.0214649811387062
0.0235937610268592
0.0255516078323125
0.0272165741771459
0.0284621603786945
0.0291786380112171
0.0292925313115119
0.0287743136286735
0.027631502598524
0.0258946772664785
0.0236022360622882
0.0207868535071611
0.0174712836742401
0.013673928566277
0.0094157885760068
0.0047264844179153
-0.0003469185903668
-0.0057295402511954
-0.011311687529087
-0.0169472564011812
-0.0224569998681545
-0.0276345815509557
-0.032255258411169
-0.0360899940133094
-0.0389263667166233
-0.0405946150422096
-0.0409918278455734
-0.0400942936539649
-0.0379574708640575
-0.0347118638455867
-0.0305562764406204
-0.025740060955286
-0.0205294396728277
-0.0151692796498537
-0.0098570324480533
-0.0047323293983936
0.0001218169927597
0.0046689268201589
0.0089049227535724
0.0128445588052272
0.016508063301444
0.0199080407619476
0.0230412818491458
0.0258880518376827
0.0284170992672443
0.0305940806865692
0.0323899425566196
0.0337867401540279
0.0347812958061695
0.0353836715221405
0.0356097817420959
0.0354779213666915
0.0350138470530509
0.0342564806342124
0.0332545563578605
0.0320524647831916
0.0306747257709503
0.0291196163743734
0.0273617655038833
0.0253575667738914
0.0230513401329517
0.0203849263489246
0.0173132307827472
0.0138253364711999
0.0099623519927263
0.0058186687529087
0.001525904983282
-0.0027670376002788
-0.0069099124521017
-0.0107648037374019
-0.0142168095335364
-0.0171807818114757
-0.0196065083146095
-0.021483901888132
-0.0228467173874378
-0.0237692054361104
-0.0243529230356216
-0.0247069709002971
-0.024926459416747
-0.02507334202528
-0.0251630973070859
-0.0251649525016546
-0.025020157918334
-0.0246673300862312
-0.0240610931068658
-0.023181403055787
-0.0220375563949346
-0.0206690467894077
-0.0191431920975446
-0.0175514593720436
-0.0160019136965274
-0.0145993288606405
-0.0134142860770225
-0.012455204501748
-0.0116568114608526
-0.0108891669660806
-0.0099825970828533
-0.0087618818506598
-0.007080340757966
-0.0048430152237415
-0.0020217848941683
0.0013236235827207
0.0050174407660961
0.0087512144818902
0.012099283747375
0.014571176841855
0.0156895518302917
0.0150741040706634
0.0125080440193414
0.0079675931483507
0.0016148965805768
-0.0062290569767355
-0.0151217607781291
-0.0245479885488748
-0.033976174890995
-0.0429106801748275
-0.0509332306683063
-0.0577303990721702
-0.0631050914525985
-0.0669753104448318
-0.0693629309535026
-0.0703740045428276
-0.0701746791601181
-0.0689675435423851
-0.0669702365994453
-0.0643928349018096
-0.0614133700728416
-0.0581595376133918
-0.0547019727528095
-0.0510602258145809
-0.0472187437117099
-0.0431433096528053
-0.0387932248413562
-0.034133706241846
-0.0291469767689704
-0.0238376148045063
-0.018235970288515
-0.0124013870954513
-0.0064194835722446
-0.0003917291760444
0.0055778324604034
0.0113891176879405
0.0169406253844499
0.0221282597631216
0.0268651135265827
0.0311015341430902
0.0348202101886272
0.0380226075649261
0.0407324209809303
0.0430110469460487
0.0449586510658264
0.0466841645538806
0.0482606664299964
0.0496972613036632
0.0509371496737003
0.0518723018467426
0.0523659884929657
0.052278071641922
0.0514924712479114
0.0499488897621631
0.0476715452969074
0.0447758175432682
0.0414452701807022
0.0378974489867687
0.0343571156263351
0.0310371164232492
0.0281207486987113
0.0257442835718393
0.0239846277981996
0.0228581391274929
0.0223316475749015
0.0223417393863201
0.0228151027113199
0.0236839987337589
0.0248936731368303
0.0264012701809406
0.0281706154346466
0.0301631614565849
0.0323236100375652
0.0345706976950168
0.0368009991943836
0.0389005951583385
0.0407595410943031
0.0422848090529441
0.0434072837233543
0.0440858416259288
0.0443133637309074
0.0441229082643985
0.0435886532068252
0.042817048728466
0.0419256761670112
0.0410164520144462
0.0401542447507381
0.0393504276871681
0.0385503321886062
0.0376354530453681
0.0364442504942417
0.0348015502095222
0.0325480997562408
0.0295698065310716
0.02582348883152
0.0213510394096374
0.0162791237235069
0.0108065819367766
0.0051808627322316
-0.0003323052078485
-0.0054792584851384
-0.0100423954427242
-0.0138539839535951
-0.0168058034032583
-0.0188607685267925
-0.020057076588273
-0.020495293661952
-0.0203151442110538
-0.0196733623743057
-0.0187259688973426
-0.0176134053617715
-0.0164486933499574
-0.0153118837624788
-0.0142509136348962
-0.0132849738001823
-0.0124121736735105
-0.0116225406527519
-0.0109085533767938
-0.0102706979960203
-0.0097261182963848
-0.0093189496546983
-0.0091161001473665
-0.0091832149773836
-0.0095559805631637
-0.0102185532450675
-0.0110882055014371
-0.0120104365050792
-0.0127792861312627
-0.0131841208785772
-0.0130626671016216
-0.0123420432209968
-0.0110619291663169
-0.0093754269182682
-0.007525447756052
-0.0058068931102752
-0.0045303963124752
-0.0039894878864288
-0.0044207088649272
-0.0059592276811599
-0.0086070895195007
-0.0122253224253654
-0.0165513157844543
-0.021239336580038
-0.0259165465831756
-0.0302369445562362
-0.0339186713099479
-0.0367665700614452
-0.0386832207441329
-0.0396634936332702
-0.0397738255560398
-0.0391270779073238
-0.0378631055355072
-0.0361377522349357
-0.0341145992279052
-0.0319533050060272
-0.029795927926898
-0.0277560241520404
-0.0259116943925619
-0.0243009477853775
-0.0229208618402481
-0.0217333696782588
-0.0206767916679382
-0.0196812804788351
-0.0186851099133491
-0.0176464170217514
-0.0165478382259607
-0.015395238995552
-0.01421501301229
-0.0130524430423974
-0.0119662303477525
-0.0110175367444753
-0.0102574098855257
-0.0097159910947084
-0.0093974824994802
-0.0092804282903671
-0.0093206614255905
-0.0094588603824377
-0.0096363611519336
-0.0098197888582944
-0.0100270137190818
-0.0103418789803981
-0.0109064783900976
-0.0118900220841169
-0.0134514346718788
-0.0157099068164825
-0.018720056861639
-0.0224511660635471
-0.0267769452184438
-0.0314790681004524
-0.0362684540450573
-0.0408243872225284
-0.0448409169912338
-0.0480678454041481
-0.0503388717770576
-0.0515841655433177
-0.0518266260623931
-0.0511640906333923
-0.0497428961098194
-0.0477312020957469
-0.0453008487820625
-0.042615920305252
-0.0398158617317676
-0.0369899198412895
-0.0341525487601757
-0.0312326401472091
-0.0280864275991916
-0.0245324149727821
-0.0203970521688461
-0.0155599266290664
-0.0099885985255241
-0.0037539117038249
0.0029779896140098
0.0099715590476989
0.0169553626328706
0.0236523877829313
0.0297970827668905
0.0351419821381568
0.0394699238240718
0.0426178127527236
0.0445036068558692
0.0451460033655166
0.0446689054369926
0.0432879216969013
0.0412810444831848
0.0389475710690021
0.0365599766373634
0.0343149304389953
0.0322960875928401
0.0304620638489723
0.0286639332771301
0.0266880169510841
0.0243098735809326
0.0213436987251043
0.0176828354597091
0.0133290980011224
0.0084009692072868
0.003114890307188
-0.0022523030638694
-0.0074060074985027
-0.0120705813169479
-0.0160140357911586
-0.0190628282725811
-0.0211122445762157
-0.0221297442913055
-0.0221458822488784
-0.0212368257343769
-0.0195080116391181
-0.017087522894144
-0.0141289085149765
-0.0108089819550514
-0.0073123462498188
-0.0038101710379123
-0.0004381202161312
0.0027255415916442
0.005673561245203
0.0084649361670017
0.0112004615366458
0.0139904879033565
0.0169288553297519
0.0200778692960739
0.0234600789844989
0.0270526222884655
0.0307878032326698
0.0345595031976699
0.0382294282317161
0.0416367202997207
0.0446156859397888
0.0470163412392139
0.0487219020724296
0.0496612265706062
0.0498134270310401
0.0492008179426193
0.0478682331740856
0.0458556041121482
0.0431840792298316
0.0398713089525699
0.0359669923782348
0.0315843597054481
0.0269120223820209
0.0222045555710792
0.0177552103996276
0.0138586908578872
0.0107726491987705
0.0086817070841789
0.007672231644392
0.0077297613024711
0.0087578333914279
0.0106048621237277
0.0130881927907466
0.0160106979310512
0.019170593470335
0.0223679840564727
0.0254117250442504
0.0281303916126489
0.0303879920393228
0.0320967882871627
0.0332207232713699
0.0337742380797863
0.0338196121156215
0.0334582887589931
0.0328149795532226
0.0320201516151428
0.0311979688704013
0.0304595082998275
0.0298953223973512
0.029568362981081
0.0295122489333152
0.0297322012484073
0.0302061401307582
0.0308909602463245
0.0317337736487388
0.0326760411262512
0.0336480587720871
0.0345695987343788
0.0353618077933788
0.0359581969678401
0.0363063849508762
0.0363598465919494
0.0360633097589015
0.0353398881852626
0.0340868309140205
0.0321832597255706
0.0295103322714567
0.0259792581200599
0.0215591471642255
0.0162978861480951
0.0103303454816341
0.0038677155971527
-0.0028305668383836
-0.0094894245266914
-0.0158458147197961
-0.0216706730425357
-0.0267837569117546
-0.0310583971440792
-0.0344188585877418
-0.0368368104100227
-0.0383270271122455
-0.0389406532049179
-0.0387583635747432
-0.0378819592297077
-0.0364216975867748
-0.0344803668558597
-0.0321377217769622
-0.0294462274760007
-0.0264435354620218
-0.0231694057583808
-0.0196794662624597
-0.0160576812922954
-0.0124231614172458
-0.008925188332796
-0.0057258680462837
-0.0029754154384136
-0.0007882118225097
0.000771302729845
0.0016861669719219
0.0019741803407669
0.0016786344349384
0.0008669942617416
-0.0003675743937492
-0.0019126795232295
-0.0036560930311679
-0.0055036731064319
-0.0073804408311843
-0.0092229470610618
-0.0109804607927799
-0.0126276686787605
-0.0141803883016109
-0.0157051868736743
-0.0173145048320293
-0.0191458687186241
-0.0213329419493675
-0.0239795558154582
-0.0271425358951091
-0.0308185219764709
-0.034932617098093
-0.0393418557941913
-0.0438594222068786
-0.0482818484306335
-0.0524056740105152
-0.0560400113463401
-0.0590204894542694
-0.0612215138971805
-0.0625661611557006
-0.0630343332886695
-0.0626647695899009
-0.0615490674972534
-0.0598203390836715
-0.0576369427144527
-0.0551627725362777
-0.0525468960404396
-0.0499041303992271
-0.0473044067621231
-0.0447778180241584
-0.0423287265002727
-0.0399493463337421
-0.0376277565956115
-0.0353504158556461
-0.0331046096980571
-0.0308803543448448
-0.0286673046648502
-0.0264504421502351
-0.0242087449878454
-0.0219155140221118
-0.0195424556732177
-0.0170687809586524
-0.014486962929368
-0.0118014998733997
-0.0090312650427222
-0.0062187369912862
-0.003432186320424
-0.0007534250617027
0.0017388891428709
0.0039795283228158
0.0059160627424716
0.0074985949322581
0.0086681451648473
0.0093510672450065
0.0094628315418958
0.0089245503768324
0.0076882848516106
0.0057587577030062
0.0032061170786619
0.0001702797599136
-0.0031492891721427
-0.0065199779346585
-0.0097062075510621
-0.0124938301742076
-0.0147081334143877
-0.0162243284285068
-0.0169713981449604
-0.0169337280094623
-0.0161497648805379
-0.0147025110200047
-0.0127047849819064
-0.010287893936038
-0.0075931325554847
-0.0047597810626029
-0.0019081830978393
0.0008753575384616
0.0035395622253417
0.0060567688196897
0.0084147863090038
0.010616042651236
0.0126791996881365
0.0146384704858064
0.0165360681712627
0.0184120908379554
0.0202986188232898
0.0222156383097171
0.0241661425679922
0.0261344444006681
0.0280906744301319
0.0299993157386779
0.0318286754190921
0.0335586033761501
0.035180989652872
0.0366904772818088
0.038074567914009
0.0393102653324604
0.0403595827519893
0.041156243532896
0.0415951535105705
0.0415421649813652
0.0408587343990802
0.0394278764724731
0.0371806323528289
0.0341205187141895
0.0303371027112007
0.0260038375854492
0.0213612951338291
0.0166897550225257
0.0122745754197239
0.0083712246268987
0.0051808003336191
0.0028373394161462
0.0014002155512571
0.0008523780852556
0.0011095572263002
0.0020386297255754
0.0034794621169567
0.0052644424140453
0.0072311367839574
0.0092310234904289
0.0111389514058828
0.012860681861639
0.0143362898379564
0.015542734414339
0.0164929870516061
0.0172263514250516
0.0177952088415622
0.0182533971965312
0.0186463072896003
0.0190054848790168
0.0193481557071208
0.0196781810373067
0.0199875906109809
0.0202600993216037
0.0204767137765884
0.0206195153295993
0.0206706561148166
0.0206118021160364
0.020430389791727
0.0201303884387016
0.0197379346936941
0.0192941054701805
0.0188370160758495
0.0183798670768737
0.0178922601044178
0.0172937605530023
0.0164626017212867
0.0152563713490962
0.013540681451559
0.0112189212813973
0.0082555040717124
0.004687625914812
0.0006234963657334
-0.0037708692252635
-0.0082930857315659
-0.0127311460673809
-0.0168892461806535
-0.0206081625074148
-0.0237783621996641
-0.0263416785746812
-0.0282828267663717
-0.0296176224946975
-0.0303808078169822
-0.0306162051856517
-0.0303738489747047
-0.0297125540673732
-0.0287006702274084
-0.0274120476096868
-0.0259207095950841
-0.0242958776652812
-0.0225947126746177
-0.0208556875586509
-0.0191016774624586
-0.0173512119799852
-0.0156238311901688
-0.0139340935274958
-0.0122839603573083
-0.0106617519631981
-0.0090455152094364
-0.0074068279936909
-0.0057159806601703
-0.0039497395046055
-0.0020986357703804
-0.0001706960611045
0.0018098405562341
0.0038079400546848
0.0057829986326396
0.0076933307573199
0.0094991400837898
0.0111580267548561
0.0126149617135524
0.0137956878170371
0.0146067105233669
0.0149405850097537
0.0146874468773603
0.0137529568746685
0.0120786372572183
0.0096607031300663
0.0065629724413156
0.0029177539981901
-0.0010865088552236
-0.0052262693643569
-0.0092662125825881
-0.0129809640347957
-0.0161759834736585
-0.0187070220708847
-0.0204919595271348
-0.021512646228075
-0.0218103602528572
-0.021472867578268
-0.0206120107322931
-0.0193453207612037
-0.0177903920412063
-0.0160617865622043
-0.0142645984888076
-0.0124894371256232
-0.0108068035915493
-0.0092577757313847
-0.0078469514846801
-0.0065420921891927
-0.0052830073982477
-0.0040012686513364
