bvp
-0.0134482998400926
-0.0172377582639455
-0.0208713635802268
-0.0241978242993354
-0.0270865745842456
-0.0294362772256135
-0.0311802737414836
-0.0322877317667007
-0.0327611491084098
-0.0326266437768936
-0.0319236293435096
-0.0307026877999305
-0.0290257185697555
-0.0269620213657617
-0.0245848465710878
-0.0219713617116212
-0.0192026980221271
-0.016360942274332
-0.013520248234272
-0.0107336658984422
-0.008025711402297
-0.0053963446989655
-0.0028302813880145
-0.0003074556589126
0.0021858843974769
0.0046517248265445
0.0070835035294294
0.0094708399847149
0.0117991464212536
0.0140434075146913
0.0161586683243513
0.01807083748281
0.0196695066988468
0.0208053067326545
0.0213020108640193
0.0209931675344705
0.0197709165513515
0.017620675265789
0.0146330995485186
0.0109979566186666
0.0069786673411726
0.0028709508478641
-0.001040899194777
-0.0045207999646663
-0.0074067451059818
-0.0096207167953252
-0.0111619774252176
-0.0120909232646226
-0.0125110745429992
-0.0125499852001667
-0.0123350974172353
-0.0119692496955394
-0.0115207377821207
-0.011029714718461
-0.0105156935751438
-0.0099779497832059
-0.009393012151122
-0.0087144672870635
-0.0078778956085443
-0.0068124830722808
-0.0054571814835071
-0.0037748757749795
-0.001758974045515
0.0005676001310348
0.0031572915613651
0.0059436783194541
0.0088482797145843
0.0117874760180711
0.0146749932318925
0.017421094700694
0.0199378617107868
0.0221513230353593
0.0240109749138355
0.0254929512739181
0.0265993382781744
0.027352100238204
0.0277787651866674
0.0278961975127458
0.0277021750807762
0.0271759834140539
0.0262866877019405
0.025008425116539
0.0233391746878623
0.0213171150535345
0.0190249979496002
0.0165795683860778
0.014117045328021
0.0117839369922876
0.0097315832972526
0.0081095341593027
0.0070551242679357
0.0066777113825082
0.0070394277572631
0.0081391613930463
0.0099053867161273
0.012200379744172
0.0148374466225504
0.0176096186041831
0.0203234814107418
0.0228286609053611
0.0250311978161335
0.0268859434872865
0.0283799357712268
0.0295195747166872
0.0303200110793113
0.0307938009500503
0.030943876132369
0.0307661294937133
0.0302583798766136
0.0294257290661335
0.0282799042761325
0.0268399454653263
0.0251345708966255
0.0232008285820484
0.0210829153656959
0.0188355203717947
0.0165249854326248
0.0142243653535842
0.0120064355432987
0.0099353259429335
0.0080546354874968
0.0063719246536493
0.0048449952155351
0.0033787416759878
0.0018367008306086
6.824173033237457e-05
-0.0020527429878711
-0.0045931679196655
-0.0075439596548676
-0.010820310562849
-0.0142724066972732
-0.0177046880125999
-0.0209071245044469
-0.0236943140625953
-0.0259321127086877
-0.0275406707078218
-0.0284860655665397
-0.0287743993103504
-0.028448024764657
-0.0275774598121643
-0.0262509994208812
-0.0245662294328212
-0.0226209703832864
-0.0205053128302097
-0.0182990282773971
-0.0160730462521314
-0.0138921216130256
-0.0118156457319855
-0.0098988711833953
-0.0081990286707878
-0.006779006216675
-0.0056995800696313
-0.0050051729194819
-0.0047130612656474
-0.0048092575743794
-0.0052496404387056
-0.0059626325964927
-0.0068517648614943
-0.0078023076057434
-0.0086915716528892
-0.0093975039198994
-0.0098080337047576
-0.0098350215703248
-0.0094289928674697
-0.0085918512195348
-0.0073868199251592
-0.0059379516169428
-0.0044103735126554
-0.0029758540913462
-0.001779687590897
-0.0009188465774059
-0.000432931818068
-0.0003091767430305
-0.0004992103204131
-0.0009405054152011
-0.0015736892819404
-0.0023488858714699
-0.0032223733142018
-0.0041494350880384
-0.0050807083025574
-0.0059712696820497
-0.0067995088174939
-0.0075783957727253
-0.0083518680185079
-0.0091830044984817
-0.0101369777694344
-0.011259832419455
-0.0125614404678344
-0.0140097038820385
-0.0155349466949701
-0.0170422438532114
-0.0184291936457157
-0.0196038410067558
-0.020498277619481
-0.021073805168271
-0.0213149897754192
-0.02122038975358
-0.0207999274134635
-0.0200749933719635
-0.0190750490874052
-0.017834011465311
-0.0163914989680051
-0.0148013085126876
-0.0131444782018661
-0.0115398867055773
-0.0101440623402595
-0.0091353980824351
-0.0086861178278923
-0.0089293159544467
-0.0099302232265472
-0.0116693042218685
-0.0140385832637548
-0.0168548338115215
-0.019890870898962
-0.0229102931916713
-0.0256906636059284
-0.0280354861170053
-0.0297805778682231
-0.0307986661791801
-0.031005447730422
-0.0303652677685022
-0.0288926009088754
-0.0266507007181644
-0.0237483270466327
-0.0203299205750226
-0.0165571607649326
-0.0125869568437337
-0.0085519179701805
-0.0045503303408622
-0.0006478428840637
0.003116950392723
0.006728446111083
0.0101913791149854
0.0135291274636983
0.0167809184640645
0.0199953317642211
0.0232200715690851
0.026490032672882
0.0298166684806346
0.0331813618540763
0.0365340039134025
0.0397980511188507
0.0428836643695831
0.0457052290439605
0.0481914207339286
0.0502818189561367
0.0519180707633495
0.0530368760228157
0.0535681098699569
0.0534448511898517
0.0526259504258632
0.0511187687516212
0.0489893034100532
0.0463581979274749
0.0433863326907157
0.0402555800974369
0.0371500067412853
0.034238651394844
0.0316639579832553
0.0295392479747533
0.0279451049864292
0.0269159898161888
0.0264281164854764
0.0264009833335876
0.0267084501683712
0.0271893069148063
0.0276569686830043
0.0279149152338504
0.0277789868414402
0.0271023511886596
0.025797564536333
0.0238497350364923
0.0213181041181087
0.0183264408260583
0.0150455133989453
0.011670877225697
0.0083928704261779
0.0053616999648511
0.0026655972469598
0.0003335960209369
-0.0016449620015919
-0.0032996053341776
-0.004666194319725
-0.005781945772469
-0.0066840560175478
-0.007411737460643
-0.0080126151442527
-0.0085513396188616
-0.0091167278587818
-0.0098231378942728
-0.0107995606958866
-0.0121673252433538
-0.0140204140916466
-0.0164160262793302
-0.019368102774024
-0.0228403061628341
-0.0267432928085327
-0.0309374555945396
-0.0352402180433273
-0.0394402369856834
-0.0433185771107673
-0.0466728582978248
-0.0493401810526847
-0.051213402301073
-0.0522462800145149
-0.0524485260248184
-0.051876276731491
-0.050623994320631
-0.048819787800312
-0.0466196946799755
-0.0441947728395462
-0.0417099557816982
-0.0392992869019508
-0.037045020610094
-0.0349677056074142
-0.0330308638513088
-0.0311572141945362
-0.0292480215430259
-0.0272001437842845
-0.0249216929078102
-0.0223462264984846
-0.0194405168294906
-0.0162041950970888
-0.0126669341698288
-0.0088903857395052
-0.0049754735082387
-0.0010657599195837
0.0026605622842907
0.006008643656969
0.0087911002337932
0.0108540616929531
0.0120991449803113
0.0124969854950904
0.0120907798409461
0.0109881497919559
0.0093429191038012
0.0073346057906746
0.0051528792828321
0.0029881177470088
0.0010248590260744
-0.0005681253969669
-0.001654852181673
-0.0021474808454513
-0.0020112060010433
-0.0012625772505998
3.431737422943115e-05
0.0017741695046424
0.0038216263055801
0.0060304868966341
0.0082672964781522
0.0104305380955338
0.0124630210921168
0.0143576133996248
0.0161544866859912
0.0179323069751262
0.0197958555072546
0.0218560583889484
0.0242033135145902
0.0268886499106884
0.0299227647483348
0.0332846194505691
0.0369289740920066
0.0407917387783527
0.0447956696152687
0.0488568842411041
0.0528879277408123
0.0567943453788757
0.0604666844010353
0.0637703239917755
0.0665394514799118
0.0685847699642181
0.0697149634361267
0.0697612985968589
0.0685983821749687
0.0661610513925552
0.0624567978084087
0.0575727708637714
0.0516750141978263
0.0449951365590095
0.0378055907785892
0.0303904265165328
0.0230161231011152
0.0159063152968883
0.0092259086668491
0.0030774921178817
-0.0024920832365751
-0.0074776746332645
-0.0118987588211894
-0.0157900266349315
-0.0192053094506263
-0.0222226679325103
-0.0249355696141719
-0.027431346476078
-0.0297699142247438
-0.0319723784923553
-0.0340206325054168
-0.0358654856681823
-0.0374401621520519
-0.0386765971779823
-0.0395232774317264
-0.0399607047438621
-0.0400076508522033
-0.0397141501307487
-0.0391440168023109
-0.0383591204881668
-0.0374153517186641
-0.0363636054098606
-0.0352472402155399
-0.0341008901596069
-0.0329567864537239
-0.0318543054163455
-0.0308465771377086
-0.0300019290298223
-0.0293980557471513
-0.0291094332933425
-0.0291918106377124
-0.0296667069196701
-0.0305107198655605
-0.0316547229886055
-0.0329915545880794
-0.0343889370560646
-0.0357067808508873
-0.0368160605430603
-0.037612959742546
-0.0380239561200141
-0.0380037203431129
-0.0375284403562545
-0.0365878641605377
-0.0351853035390377
-0.0333470404148101
-0.0311275385320186
-0.0286022704094648
-0.0258537661284208
-0.0229568853974342
-0.0199672486633062
-0.0169178042560815
-0.0138270054012537
-0.0107138697057962
-0.0076060518622398
-0.0045377425849437
-0.0015494651161134
0.0013067205436527
0.0039651254191994
0.0063511417247354
0.0083906557410955
0.0100230993703007
0.0112158395349979
0.0119741419330239
0.0123432911932468
0.0124058509245514
0.0122791668400168
0.0121107641607522
0.0120581137016415
0.0122501803562045
0.0127515010535717
0.0135455531999468
0.0145374424755573
0.0155729157850146
0.0164706278592348
0.0170598570257425
0.0172152873128652
0.0168832149356603
0.0160937253385782
0.0149565450847148
0.013642493635416
0.0123538393527269
0.011291341856122
0.0106275714933872
0.0104879699647426
0.0109381526708602
0.0119823049753904
0.0135731063783168
0.0156234893947839
0.018014807254076
0.0206033457070589
0.0232257321476936
0.0257066674530506
0.0278742536902427
0.0295787006616592
0.030707836151123
0.0311996974050998
0.0310523193329572
0.030328195542097
0.0291490405797958
0.0276744551956653
0.0260697938501834
0.0244800224900245
0.0230167545378208
0.0217544771730899
0.0207324344664812
0.0199601277709007
0.0194235444068908
0.0190901234745979
0.0189109686762094
0.0188194438815116
0.0187282711267471
0.0185279585421085
0.0180897712707519
0.0172788854688406
0.015977643430233
0.014107727445662
0.0116418562829494
0.0086085349321365
0.0050946287810802
0.0012403037399053
-0.0027786465361714
-0.0067748771980404
-0.0105714937672019
-0.0140195051208138
-0.01701002381742
-0.0194797627627849
-0.0214091837406158
-0.0228158757090568
-0.0237468071281909
-0.0242667254060506
-0.024440549314022
-0.0243191011250019
-0.0239351447671651
-0.023303847759962
-0.0224237143993377
-0.0212793610990047
-0.0198472440242767
-0.0181056968867778
-0.0160461720079183
-0.0136795761063694
-0.0110355876386165
-0.0081576453521847
-0.0050983112305402
-0.0019169487059116
0.0013234158977866
0.0045627579092979
0.0077509814873337
0.0108492011204361
0.0138257201761007
0.0166533291339874
0.0193100254982709
0.0217807088047266
0.0240593887865543
0.0261516384780406
0.0280756745487451
0.0298571698367595
0.0315140448510646
0.0330377109348773
0.0343797504901886
0.035446461290121
0.0361019857227802
0.0361807234585285
0.0355076715350151
0.0339230187237262
0.0313082262873649
0.027613753452897
0.0228816159069538
0.0172502435743808
0.0109388343989849
0.0042182616889476
-0.002621978521347
-0.0093043502420187
-0.0155898295342922
-0.0212973095476627
-0.026311982423067
-0.0305846519768238
-0.0341254398226738
-0.0369893051683902
-0.0392527729272842
-0.0409968458116054
-0.0423058345913887
-0.0432672128081321
-0.043960977345705
-0.0444466024637222
-0.0447576940059661
-0.0449041947722435
-0.0448771640658378
-0.0446563996374607
-0.0442216955125331
-0.0435627587139606
-0.0426828935742378
-0.0415944643318653
-0.040308877825737
-0.0388269424438476
-0.0371307581663131
-0.0351809971034526
-0.0329280160367488
-0.0303306020796298
-0.0273670237511396
-0.0240353159606456
-0.0203497279435396
-0.0163405463099479
-0.0120602212846279
-0.0075923069380223
-0.0030582305043935
0.0013812193647027
0.0055323699489235
0.0091867968440055
0.0121516017243266
0.0142842289060354
0.015519518405199
0.0158751606941223
0.0154326455667614
0.0143129397183656
0.0126620028167963
0.0106390472501516
0.0084023289382457
0.0060977432876825
0.0038492963649332
0.001745456829667
-0.0001727854833006
-0.0019104024395346
-0.0035038972273468
-0.0050008404068648
-0.0064379200339317
-0.0078232642263174
-0.0091292560100555
-0.0103013105690479
-0.011280033737421
-0.0120206708088517
-0.0124974399805068
-0.0126973614096641
-0.0126135777682065
-0.012242492288351
-0.0115860681980848
-0.0106573216617107
-0.0094836940988898
-0.0081056458875536
-0.0065708514302968
-0.0049262484535574
-0.0032113846391439
-0.0014542657881975
0.0003294525668025
0.0021290127187967
0.0039251707494258
0.0056858034804463
0.0073755122721195
0.0089674908667802
0.0104478653520345
0.0118133891373872
0.0130677632987499
0.0142174642533063
0.0152633860707283
0.0161876585334539
0.0169417411088943
0.0174440182745456
0.0175917390733957
0.0172888487577438
0.0164803005754947
0.0151702482253313
0.0134156793355941
0.0113125424832105
0.0089870560914278
0.0065872445702552
0.0042706616222858
0.0021916832774877
0.0004903431981801
-0.000718543305993
-0.0013568010181188
-0.0013920683413743
-0.0008396934717893
0.000241594389081
0.001754842698574
0.0035733636468648
0.0055584944784641
0.007580092176795
0.009527338668704
0.0113089811056852
0.0128528727218508
0.0141133284196257
0.0150833735242486
0.015801228582859
0.0163456853479146
0.0168208684772253
0.017333997413516
0.0179759878665208
0.0188132375478744
0.0198874156922101
0.0212173629552125
0.022802947089076
0.0246283318847417
0.0266586188226938
0.0288331322371959
0.0310657452791929
0.0332539640367031
0.0352904796600341
0.0370718427002429
0.0385025516152381
0.039497684687376
0.0399876683950424
0.0399236008524894
0.0392793901264667
0.038051925599575
0.0362641923129558
0.0339711122214794
0.0312622487545013
0.0282551124691963
0.0250770878046751
0.0218436196446418
0.0186425428837537
0.0155267808586359
0.0125165479257702
0.0096123609691858
0.0068119559437036
0.004120766185224
0.001552159897983
-0.0008801277726888
-0.0031766155734658
-0.0053688613697886
-0.0075229732319712
-0.0097210342064499
-0.0120290704071521
-0.0144685674458742
-0.0170085467398166
-0.0195821803063154
-0.0221119802445173
-0.0245275944471359
-0.026773702353239
-0.0288085006177425
-0.0305951312184333
-0.0320967026054859
-0.0332816131412982
-0.0341309234499931
-0.0346390046179294
-0.0348112545907497
-0.034664899110794
-0.0342322662472724
-0.0335629321634769
-0.0327201634645462
-0.0317700840532779
-0.0307682156562805
-0.0297490134835243
-0.0287233646959066
-0.0276882275938987
-0.0266438163816928
-0.0256087630987167
-0.0246278494596481
-0.0237696021795272
-0.0231143422424793
-0.0227377153933048
-0.0226928815245628
-0.0229915529489517
-0.0235899314284324
-0.0243875011801719
-0.0252377148717641
-0.0259687714278697
-0.0264116190373897
-0.0264216344803571
-0.0258856415748596
-0.0247227419167757
-0.0228883046656847
-0.0203804541379213
-0.0172448828816413
-0.0135743655264377
-0.0095009664073586
-0.005183489061892
-0.0007945573888719
0.0034905546344816
0.0075041679665446
0.0110977664589881
0.0141542665660381
0.0165961366146802
0.0183850284665823
0.0195147432386875
0.0200053341686725
0.0199041757732629
0.0192893128842115
0.018266100436449
0.0169565584510564
0.0154863186180591
0.0139727964997291
0.0125183686614036
0.0112086590379476
0.0101108402013778
0.0092702321708202
0.0087104635313153
0.0084380218759179
0.0084404069930315
0.0086729023605585
0.009046291001141
0.0094287283718585
0.0096621643751859
0.0095847072079777
0.0090524768456816
0.0079605653882026
0.0062626730650663
0.0039850776083767
0.0012293434701859
-0.0018390854820609
-0.0050149792805314
-0.0080841956660151
-0.0108528546988964
-0.0131686059758067
-0.0149353425949811
-0.016120221465826
-0.0167437568306922
-0.0168569795787334
-0.0165217947214841
-0.0158000588417053
-0.0147489588707685
-0.0134200453758239
-0.0118573773652315
-0.0100920125842094
-0.008135812357068
-0.0059797558933496
-0.0035979617387056
-0.0009553264826536
0.0019835904240608
0.005245266482234
0.008835176937282
0.0127254743129014
0.0168509930372238
0.0211153421550989
0.0254028923809528
0.0295926928520202
0.0335710160434246
0.0372421815991401
0.04053645581007
0.0434110984206199
0.0458434969186782
0.0478188544511795
0.049314297735691
0.0502808317542076
0.0506324991583824
0.0502520501613616
0.0490053668618202
0.0467560291290283
0.0433872640132904
0.0388303808867931
0.0330836586654186
0.0262179002165794
0.0183782801032066
0.0097870295867323
0.000741611700505
-0.0083991214632987
-0.0172429531812667
-0.025402283295989
-0.0325361266732215
-0.0383891612291336
-0.0428181178867816
-0.0457983575761318
-0.0474132858216762
-0.047834038734436
-0.0472919903695583
-0.046045109629631
-0.0443436503410339
-0.0424037910997867
-0.0403942912817001
-0.0384318567812442
-0.0365811251103878
-0.0348596274852752
-0.0332448482513427
-0.0316831246018409
-0.0301032960414886
-0.0284322965890169
-0.0266084745526313
-0.02459098957479
-0.0223668254911899
-0.0199548490345478
-0.0174002088606357
-0.0147578930482268
-0.0120747564360499
-0.009379256516695
-0.0066809337586164
-0.0039800535887479
-0.0012886524200439
0.0013476572930812
0.0038442704826593
0.0060890428721904
0.0079593043774366
0.0093406634405255
0.0101488698273897
0.010350652039051
0.009972246363759
0.0090888459235429
0.0078058997169137
0.0062449499964714
0.0045333784073591
0.0027959756553173
0.001149883493781
-0.0002970714122056
-0.0014478936791419
-0.0022213235497474
-0.0025595556944608
-0.002437250688672
-0.0018689855933189
-0.0009080711752176
0.0003662779927253
0.0018675439059734
0.003516374155879
0.0052464567124843
0.0070064533501863
0.0087622459977865
0.0104978643357753
0.0122124571353197
0.0139152836054563
0.0156224220991134
0.0173541828989982
0.0191321708261966
0.020977284759283
0.0229067429900169
0.0249287374317646
0.0270383991301059
0.0292191468179225
0.0314509943127632
0.0337198749184608
0.0360156670212745
0.0383150205016136
0.0405556559562683
0.0426125228404998
0.0442902222275733
0.0453414320945739
0.0455047115683555
0.0445491671562194
0.0423184372484684
0.038764975965023
0.0339642725884914
0.0281059015542268
0.0214697886258363
0.0143993869423866
0.0072712558321654
0.0004539685323834
-0.0057361186482012
-0.011065324768424
-0.0153929386287927
-0.0186675712466239
-0.0209186896681785
-0.0222448147833347
-0.0227934196591377
-0.0227348431944847
-0.0222399104386568
-0.0214642956852912
-0.0205349028110504
-0.0195374172180891
-0.0185100045055151
-0.0174455940723419
-0.0163013376295566
-0.0150150507688522
-0.0135250333696603
-0.0117842927575111
-0.0097681060433387
-0.0074810469523072
-0.0049631288275122
-0.0022893981076776
0.0004399999743327
0.003115507774055
0.0056328410282731
0.007904190570116
0.0098662339150905
0.0114849349483847
0.0127559443935751
0.0136984772980213
0.0143405618146061
0.0146941933780908
0.0147294225171208
0.0143660064786672
0.0134899215772748
0.0119864139705896
0.0097781913354992
0.0068593919277191
0.003315070644021
-0.0006827525794506
-0.0049013253301382
-0.0090829990804195
-0.0129768531769514
-0.0163607168942689
-0.019057348370552
-0.0209491550922393
-0.0219875909388065
-0.022194180637598
-0.0216572247445583
-0.0205238237977027
-0.0189829505980014
-0.0172415282577276
-0.0154977012425661
-0.0139126311987638
-0.0125872120261192
-0.0115538761019706
-0.0107835112139582
-0.0101993409916758
-0.0096937101334333
-0.009145843796432
-0.0084369853138923
-0.0074607701972126
-0.006129091605544
-0.0043776365928351
-0.0021741953678429
0.0004744743928313
0.0035210493952035
0.0068818060681223
0.0104463510215282
0.0140881352126598
0.0176699422299861
0.0210425872355699
0.0240386426448822
0.0264716614037752
0.0281543917953968
0.0289342924952507
0.0287287086248397
0.027544317767024
0.0254768114537
0.0226883981376886
0.0193667225539684
0.0156861059367656
0.0117876846343278
0.0077760722488164
0.0037279222160577
-0.0002904720604419
-0.0042082276195287
-0.0079471003264188
-0.0114254988729953
-0.0145638985559344
-0.0172928106039762
-0.0195605456829071
-0.0213362146168947
-0.0226060021668672
-0.0233659744262695
-0.0236230157315731
-0.0234067700803279
-0.0227763447910547
-0.0218123234808444
-0.0206024944782257
-0.01922751031816
-0.0177473705261945
-0.0161927994340658
-0.0145639898255467
-0.0128348199650645
-0.0109606701880693
-0.0088896555826067
-0.0065774116665124
-0.004003370180726
-0.0011814776808023
0.00184116512537
0.0049923881888389
0.0081811007112264
0.0113028287887573
0.0142429210245609
0.0168714988976717
0.0190381724387407
0.0205797422677278
0.0213403049856424
0.0211944226175546
0.020068597048521
0.0179579779505729
0.0149326436221599
0.0111315380781888
0.006746569648385
0.0020006727427244
-0.0028718411922454
-0.007640354335308
-0.0120939780026674
-0.0160540863871574
-0.0193763710558414
-0.0219499990344047
-0.0237064845860004
-0.0246376153081655
-0.0248064510524272
-0.0243394318968057
-0.0234044566750526
-0.0221842043101787
-0.0208511911332607
-0.0195510759949684
-0.0183960832655429
-0.0174635536968708
-0.0167925618588924
-0.016378341242671
-0.0161731299012899
-0.0160970650613307
-0.0160538796335458
-0.0159470587968826
-0.0156939346343278
-0.0152335194870829
-0.014526205137372
-0.0135498698800802
-0.0122968843206763
-0.0107728438451886
-0.0089983288198709
-0.0070132655091583
-0.0048805475234985
-0.0026875361800193
-0.0005469592288136
0.0014006542041897
0.0029878299683332
0.0040363520383834
0.0043900841847062
0.0039504608139395
0.002699289470911
0.0007015969604253
-0.0019054492004215
-0.0049289283342659
-0.0081427842378616
-0.011315856128931
-0.0142356725409626
-0.0167233049869537
-0.0186444539576768
-0.0199176892638206
-0.0205158479511737
-0.0204669367522001
-0.0198586173355579
-0.0188312288373708
-0.0175508894026279
-0.0161762293428182
-0.0148318447172641
-0.0135928513482213
-0.0124820210039615
-0.0114759057760238
-0.0105155250057578
-0.0095207691192626
-0.0084082754328846
-0.00711156334728
-0.0055969236418604
-0.0038654236122965
-0.001941567286849
0.0001392178237438
0.0023365095257759
0.0046105552464723
0.00693473033607
0.0093063050881028
0.0117434002459049
0.0142710451036691
0.0169031955301761
0.0196213014423847
0.0223548840731382
0.0249746665358543
0.027304632589221
0.0291521660983562
0.0303453970700502
0.0307645723223686
0.030363667756319
0.029179859906435
0.027326475828886
0.0249744858592748
0.0223303064703941
0.019612543284893
0.0170304179191589
0.014766389504075
0.0129636600613594
0.0117179453372955
0.0110719427466392
0.0110132824629545
0.0114790666848421
0.012367621064186
0.0135543467476964
0.0149093642830848
0.0163158494979143
0.0176819618791341
0.0189405251294374
0.0200444981455802
0.0209662616252899
0.0216958168894052
0.0222327429801225
0.0225747562944889
0.0227099657058715
0.0226205140352249
0.0222967509180307
0.0217491127550601
0.0210071224719285
0.0201068744063377
0.0190758295357227
0.017925227060914
0.0166538581252098
0.0152537850663065
0.0137113984674215
0.01201216224581
0.0101525597274303
0.0081493305042386
0.0060357255861163
0.0038429039996117
0.001577109331265
-0.0007941802032291
-0.0033408710733056
-0.0061510922387242
-0.0093019008636474
-0.012834470719099
-0.0167373158037662
-0.0209342762827873
-0.0252828616648912
-0.0295928306877613
-0.0336603857576847
-0.0372993908822536
-0.0403591357171535
-0.0427324622869491
-0.0443595349788665
-0.0452283732593059
-0.045371763408184
-0.044858667999506
-0.043779470026493
-0.0422295406460762
-0.0402976870536804
-0.0380613356828689
-0.0355861335992813
-0.0329264402389526
-0.0301247909665107
-0.0272131413221359
-0.0242160744965076
-0.021148819476366
-0.0180073585361242
-0.0147594287991523
-0.0113468449562788
-0.0076990760862827
-0.0037505105137825
0.0005431752651929
0.0051901768893003
0.0101499427109956
0.0153265204280614
0.0205742977559566
0.0257176980376243
0.0305793713778257
0.0350080356001853
0.0388935022056102
0.0421633422374725
0.044772170484066
0.0466969795525074
0.0479401350021362
0.0485329702496528
0.0485336929559707
0.0480179339647293
0.0470623709261417
0.0457255616784095
0.0440329313278198
0.0419724024832248
0.0395039208233356
0.0365794897079467
0.033168613910675
0.029284244403243
0.0249966941773891
0.020428117364645
0.0157378707081079
0.0111065935343503
0.0067192586138844
0.0027523497119545
-0.0006344692665152
-0.0033096456900238
-0.0051858192309737
-0.006236707791686
-0.0065091317519545
-0.0061223665252327
-0.0052536716684699
-0.0041154152713716
-0.0029238837305456
-0.0018636612221598
-0.0010640311520546
-0.0005953055806457
-0.00047442689538
-0.0006707650609314
-0.0011131362989544
-0.0016999738290905
-0.0023143631406128
-0.0028423522599041
-0.0031876540742814
-0.0032806526869535
-0.0030824737623333
-0.0025847228243947
-0.0018108692020177
-0.0008214833214879
0.0002871807664632
0.0013989172875881
0.0023974794894456
0.0031800605356693
0.0036686770617961
0.0038212779909372
0.0036337170749902
0.0031293295323848
0.0023404844105243
0.0012868512421846
-4.05777245759964e-05
-0.0016788393259048
-0.0036749485880136
-0.0060632154345512
-0.0088517293334007
-0.0120178340002894
-0.0155030479654669
-0.0192092414945364
-0.0230079647153615
-0.0267607513815164
-0.0303364619612693
-0.0336224883794784
-0.036532811820507
-0.0390093848109245
-0.0410154201090335
-0.0425268113613128
-0.0435278341174125
-0.0440126657485961
-0.0439890138804912
-0.0434790439903736
-0.0425171479582786
-0.04114506021142
-0.0394044555723667
-0.0373313166201114
-0.034958641976118
-0.032326053828001
-0.0294850226491689
-0.0264940876513719
-0.0234102047979831
-0.0202829651534557
-0.0171531233936548
-0.0140543663874268
-0.0110149821266531
-0.0080553404986858
-0.0051825065165758
-0.0023898337967693
0.0003358754329383
0.003006774932146
0.0056303171440958
0.0082059996202588
0.010717898607254
0.0131275784224271
0.0153779946267604
0.0174065865576267
0.0191562362015247
0.0205796584486961
0.0216386448591947
0.0222991779446601
0.0225254110991954
0.022278880700469
0.0215262863785028
0.0202516876161098
0.0184651054441928
0.0162042509764432
0.0135364541783928
0.0105660017579793
0.0074357343837618
0.0043126246891915
0.0013663247227668
-0.0012476239353418
-0.0033966116607189
-0.0049731153994798
-0.005898417904973
-0.0061317011713981
-0.0056755132973194
-0.0045713623985648
-0.0028887605294585
-0.0007127113640308
0.0018651084974408
0.004748118110001
0.0078328270465135
0.0110076870769262
0.0141534972935915
0.0171477627009153
0.0198759790509939
0.0222459677606821
0.0241989120841026
0.0257136523723602
0.0268027819693088
0.0275031588971614
0.0278669036924839
0.0279571618884801
0.0278485789895057
0.0276266299188137
0.0273796916007995
0.0271866843104362
0.027110032737255
0.0271952003240585
0.0274658314883708
0.0279142688959836
0.0285043437033891
0.0291899759322404
0.0299319289624691
0.0306990928947925
0.0314547680318355
0.0321402139961719
0.0326706282794475
0.0329466685652732
0.0328739807009696
0.0323814041912555
0.0314317680895328
0.0300247520208358
0.0281929764896631
0.0259936191141605
0.0234972611069679
0.020772285759449
0.017868984490633
0.0148133635520935
0.0116148367524147
0.0082834530621767
0.004846516996622
0.0013540275394916
-0.0021283868700265
-0.0055325608700513
-0.0088016670197248
-0.0119018983095884
-0.0148278810083866
-0.0175996907055377
-0.0202537178993225
-0.0228281579911708
-0.0253473091870546
-0.0278133228421211
-0.0302059631794691
-0.0324873477220535
-0.0346086174249649
-0.0365135744214057
-0.0381425693631172
-0.0394427068531513
-0.0403806716203689
-0.0409503206610679
-0.0411703586578369
-0.0410734042525291
-0.0406948253512382
-0.040068507194519
-0.0392254963517189
-0.0381903387606143
-0.0369795635342597
-0.0356020890176296
-0.0340545140206813
-0.0323153883218765
-0.0303502082824707
-0.0281298030167818
-0.025653664022684
-0.0229676216840744
-0.0201705116778612
-0.0174087546765804
-0.0148597620427608
-0.0127078974619507
-0.0111174639314413
-0.0102053331211209
-0.0100159542635083
-0.0105062974616885
-0.0115538723766803
-0.0129881016910076
-0.0146232480183243
-0.016279611736536
-0.0177989155054092
-0.0190571919083595
-0.0199731364846229
-0.0205092467367649
-0.0206651017069816
-0.0204664133489131
-0.0199515912681818
-0.0191574227064847
-0.018109418451786
-0.0168203823268413
-0.0152925821021199
-0.0135202892124652
-0.0115004023537039
-0.0092507805675268
-0.0068203164264559
-0.0042839185334742
-0.0017302744090557
0.0007512471638619
0.0030836830846965
0.0052134497091174
0.0071135740727186
0.0087780496105551
0.010216417722404
0.0114541193470358
0.0125304572284221
0.013486374169588
0.0143469683825969
0.0151068978011608
0.0157179906964302
0.0160817131400108
0.0160605832934379
0.0155122596770524
0.0143314525485038
0.0124823478981852
0.0100121889263391
0.007046069484204
0.0037665525451302
0.0003841808065772
-0.002888761460781
-0.0058552287518978
-0.0083487201482057
-0.0102516487240791
-0.011507699266076
-0.0121175218373537
-0.0121228545904159
-0.0115927811712026
-0.0106157977133989
-0.0092932470142841
-0.0077323820441961
-0.0060418080538511
-0.0043286830186843
-0.0026908479630947
-0.0012015402317047
0.000105008482933
0.0012378487735986
0.0022427514195442
0.0031906459480524
0.0041664242744445
0.0052591040730476
0.0065502189099788
0.0080988407135009
0.0099283624440431
0.0120219811797142
0.0143256783485412
0.0167547836899757
0.0192053727805614
0.0215707533061504
0.0237598642706871
0.0257106944918632
0.0273888055235147
0.0287691801786422
0.0298128016293048
0.0304530281573534
0.0306005459278821
0.0301659367978572
0.0290887877345085
0.027356494218111
0.0250077191740274
0.0221313871443271
0.0188654921948909
0.0153886377811431
0.0119026489555835
0.0086113903671503
0.0057012792676687
0.0033265501260757
0.0015980284661054
0.0005760081112384
0.0002713464200496
0.0006533302366733
0.0016587544232606
0.0032007992267608
0.0051766596734523
0.0074698496609926
0.0099508725106716
0.0124869849532842
0.0149595802649855
0.0172777585685253
0.0193818472325801
0.0212370492517948
0.0228215809911489
0.0241158418357372
0.0251001436263322
0.0257633458822965
0.0261130556464195
0.0261778347194194
0.0260024387389421
0.025641655549407
0.0251556728035211
0.024601699784398
0.0240187756717205
0.023419763892889
0.0227979086339473
0.022133894264698
0.0213926024734973
0.0205126609653234
0.0194001495838165
0.0179369747638702
0.0160021241754293
0.0134960934519767
0.0103625878691673
0.0066062156111001
0.0023029102012515
-0.0024011379573494
-0.0073024197481572
-0.0121662523597478
-0.0167625602334737
-0.0208950787782669
-0.024414837360382
-0.0272240955382585
-0.0292753260582685
-0.0305655524134635
-0.0311281159520149
-0.0310238860547542
-0.0303332712501287
-0.0291504152119159
-0.0275783725082874
-0.0257212072610855
-0.0236724019050598
-0.0215039625763893
-0.0192606709897518
-0.0169640351086854
-0.0146249961107969
-0.0122527163475751
-0.0098494216799736
-0.0073983604088425
-0.0048600733280181
-0.0021827165037393
0.0006798990070819
0.0037492155097424
0.0070050512440502
0.0103752724826335
0.0137376775965094
0.0169352144002914
0.0197982676327228
0.0221684500575065
0.0239223688840866
0.0249887220561504
0.0253520719707012
0.0250464025884866
0.0241405814886093
0.0227147787809371
0.0208363626152277
0.0185462012887001
0.0158564820885658
0.0127569213509559
0.0092299822717905
0.0052743796259164
0.0009281318634748
-0.0037206336855888
-0.0085366237908601
-0.0133463107049465
-0.0179522261023521
-0.0221594683825969
-0.0258073396980762
-0.0287841502577066
-0.0310201197862625
-0.0324766188859939
-0.0331453382968902
-0.0330553278326988
-0.0322790183126926
-0.0309279169887304
-0.0291349776089191
-0.0270335040986537
-0.0247441008687019
-0.0223669484257698
-0.0199738256633281
-0.017603300511837
-0.0152609534561634
-0.012926903553307
-0.0105726039037108
-0.0081756645813584
-0.0057252654805779
-0.0032265875488519
-0.0007084589451551
0.0017695575952529
0.0041123069822788
0.0061923395842313
0.0078688655048608
0.0090154260396957
0.0095427501946687
0.009411334991455
0.0086321141570806
0.0072581078857183
0.005372891202569
0.0030730944126844
0.0004459768533706
-0.0024437308311462
-0.0055530741810798
-0.0088548976927995
-0.0123296529054641
-0.0159531217068433
-0.0196817871183156
-0.0234396494925022
-0.0271112937480211
-0.0305465087294578
-0.033576525747776
-0.0360334739089012
-0.0377670042216777
-0.0386606082320213
-0.0386468023061752
-0.0377180874347686
-0.0359349437057971
-0.0334247648715972
-0.0303642861545085
-0.0269512981176376
-0.0233752448111772
-0.0197934675961732
-0.0163183789700269
-0.0130175072699785
-0.0099237253889441
-0.0070488518103957
-0.0043951328843832
-0.0019610687159001
0.0002610869705677
0.0022909876424819
0.0041608600877225
0.0059103029780089
0.0075779343023896
0.0091924667358398
0.0107667734846472
0.0122978929430246
0.0137730836868286
0.0151781737804412
0.0165017861872911
0.0177330393344163
0.0188582297414541
0.019860204309225
0.0207151230424642
0.0213824585080146
0.0217940844595432
0.0218534767627716
0.021450962871313
0.0204878151416778
0.0188979469239711
0.0166653133928775
0.0138359740376472
0.0105184987187385
0.0068704970180988
0.0030772248283028
-0.0006720256060361
-0.0042077349498867
-0.0073989992961287
-0.0101611325517296
-0.0124506298452615
-0.0142516046762466
-0.0155631070956587
-0.0163935627788305
-0.0167601536959409
-0.0166924316436052
-0.0162402521818876
-0.0154747162014245
-0.0144691951572895
-0.0132675766944885
-0.0118623320013284
-0.0101974941790103
-0.0081934202462434
-0.0057779680937528
-0.0029089357703924
0.0004128422588109
0.0041310749948024
0.0081275310367345
0.0122328046709299
0.0162512362003326
0.0199902057647705
0.0232829786837101
0.0260002724826335
0.0280608162283897
0.0294458121061325
0.0302074141800403
0.0304639544337987
0.0303799472749233
0.0301333833485841
0.029883824288845
0.0297548808157444
0.0298272352665662
0.03012908808887
0.0306223947554826
0.0311960075050592
0.0316765680909156
0.031858280301094
0.0315402671694755
0.0305593367666006
0.0288168787956237
0.0262998193502426
0.0230892766267061
0.0193517878651618
0.0153136858716607
0.0112254777923226
0.0073261065408587
0.0038161519914865
0.0008436711505055
-0.0015000216662883
-0.0031765168532729
-0.0041897799819707
-0.0045745652168989
-0.0043890662491321
-0.003715444356203
-0.0026661278679966
-0.0013828929513692
-2.1430663764476776e-05
0.0012704716064035
0.0023731528781354
0.0032105895224958
0.0037565161474049
0.0040296958759427
0.0040825107134878
0.0039864727295935
0.0038172567728906
0.0036423639394342
0.0035113953053951
0.003450334072113
0.0034650035668164
0.0035489310976117
0.0036856459919363
0.0038491897284984
0.0040109502151608
0.0041509997099637
0.0042670918628573
0.0043773357756435
0.0045174732804298
0.0047335610724985
0.0050702723674476
0.0055571780540049
0.0061943107284605
0.0069382367655634
0.0076935002580285
0.0083168167620897
0.0086388858035206
0.0084960581734776
0.0077571533620357
0.0063430173322558
0.00424082018435
0.0015058582648634
-0.001752114854753
-0.0053877392783761
-0.0092332428321242
-0.0131062706932425
-0.0168183352798223
-0.0201850850135087
-0.0230376776307821
-0.0252377074211835
-0.0266944430768489
-0.0273737423121929
-0.027291378006339
-0.0265031941235065
-0.025104634463787
-0.0232295952737331
-0.0210377871990203
-0.0186960101127624
-0.0163604374974966
-0.0141611145809292
-0.0121914446353912
-0.0105081181973218
-0.0091400034725666
-0.0080982409417629
-0.0073856310918927
-0.007005647290498
-0.0069660465233027
-0.0072758798487484
-0.0079419128596782
-0.0089682806283235
-0.0103524345904588
-0.0120662245899438
-0.0140285762026906
-0.0160913504660129
-0.0180497597903013
-0.0196725074201822
-0.0207397025078535
-0.0210788175463676
-0.0205925665795803
-0.0192720182240009
-0.0171935744583606
-0.0145046934485435
-0.0114057101309299
-0.0081339031457901
-0.00494753010571
-0.002107755979523
0.0001413808204233
0.0016017477028071
0.0021555484272539
0.0017872191965579
0.0005839206278324
-0.0012810514308512
-0.0035761757753789
-0.006042540539056
-0.0084201609715819
-0.0104714110493659
-0.0120041165500879
-0.0128911733627319
-0.0130800027400255
-0.0125837745144963
-0.0114581976085901
-0.009782426059246
-0.0076516047120094
-0.0051703192293643
-0.0024419412948191
0.000439875293523
0.0033935385290533
0.0063451947644352
0.0092214811593294
0.0119485724717378
0.0144590307027101
0.0166963245719671
0.0186128113418817
0.0201694350689649
0.0213427506387233
0.0221350230276584
0.0225790869444608
0.0227328278124332
0.0226686540991067
0.0224666949361562
0.0222103744745254
0.0219789426773786
0.0218377504497766
0.0218316633254289
0.0219861734658479
0.0223139375448226
0.0228197332471609
0.0234991870820522
0.0243287980556488
0.0252488628029823
0.0261468775570392
0.0268524996936321
0.0271532647311687
0.0268266815692186
0.0256762839853763
0.0235682781785726
0.0204645432531833
0.0164394378662109
0.0116741079837083
0.0064317379146814
0.0010207267478108
-0.0042462414130568
-0.0090896626934409
-0.0132924709469079
-0.0167185962200164
-0.0193185284733772
-0.0211199596524238
-0.0222059562802314
-0.0226914770901203
-0.0227089617401361
-0.0224010609090328
-0.0219097919762134
-0.021359521895647
-0.0208429601043462
-0.0204154886305332
-0.0200940147042274
-0.0198593139648437
-0.0196660328656435
-0.0194594413042068
-0.0191913582384586
-0.0188294798135757
-0.018357791006565
-0.0177694018930196
-0.0170560181140899
-0.0161984972655773
-0.0151675604283809
-0.013937191106379
-0.0124958604574203
-0.0108444988727569
-0.008987620472908
-0.00692820828408
-0.004670160356909
-0.0022241179831326
0.0003900250885635
0.0031422949396073
0.0059907650575041
0.0088847149163484
0.0117703871801495
0.0145877711474895
0.0172621626406908
0.0197010952979326
0.0217937249690294
0.0234102234244346
0.0244112592190504
0.0246735103428363
0.024121019989252
0.0227470155805349
0.0206197500228881
0.0178736746311187
0.0146904019638895
0.0112770944833755
0.0078464783728122
0.0045988354831933
