bvp
-0.0027291681617498
-0.0032779118046164
-0.0036660535261034
-0.0039229467511177
-0.0040927096270024
-0.0042287847027182
-0.0043903682380914
-0.0046392520889639
-0.0050366972573101
-0.0056404066272079
-0.0065003912895917
-0.0076524605974555
-0.0091090239584445
-0.0108494143933057
-0.0128154698759317
-0.0149186663329601
-0.0170578155666589
-0.0191366467624902
-0.0210731998085975
-0.0228023715317249
-0.024275716394186
-0.0254617668688297
-0.0263485740870237
-0.0269477181136608
-0.0272948872298002
-0.0274385530501604
-0.0274218264967203
-0.0272748656570911
-0.027017580345273
-0.0266576204448938
-0.0261788740754127
-0.0255295988172292
-0.0246207043528556
-0.0233358703553676
-0.0215498358011245
-0.0191496890038251
-0.0160562489181756
-0.0122474785894155
-0.0077786520123481
-0.0027840062975883
0.0025473199784755
0.0080082155764102
0.0134007334709167
0.0185426846146583
0.0232597179710865
0.0273756869137287
0.0307098254561424
0.0330779366195201
0.0342929176986217
0.0341710448265075
0.0325507819652557
0.0293228849768638
0.0244654864072799
0.0180716067552566
0.0103559717535972
0.0016378313302993
-0.0076950415968894
-0.0172331221401691
-0.0265914723277091
-0.0354452356696128
-0.0435516871511936
-0.0507585033774375
-0.0569980554282665
-0.0622752383351326
-0.0666557401418685
-0.0702507346868515
-0.0731957182288169
-0.075629323720932
-0.0776759013533592
-0.0794326514005661
-0.0809620916843414
-0.0822890698909759
-0.0834018066525459
-0.0842585414648056
-0.084799513220787
-0.0849616751074791
-0.0846922770142555
-0.0839556083083152
-0.0827313289046287
-0.0810105204582214
-0.0787968784570694
-0.0761128067970275
-0.0730032324790954
-0.0695336461067199
-0.065785676240921
-0.0618524104356765
-0.0578326657414436
-0.0538223087787628
-0.0499036163091659
-0.0461378954350948
-0.0425647050142288
-0.0392066910862922
-0.0360764414072036
-0.0331804528832435
-0.0305190030485391
-0.0280856303870677
-0.0258672852069139
-0.0238427557051181
-0.0219793021678924
-0.0202298238873481
-0.0185334272682666
-0.0168205611407756
-0.0150208864361047
-0.0130719635635614
-0.0109269898384809
-0.0085596907883882
-0.0059658084064722
-0.0031605847179889
-0.0001732427626848
0.0029575806111097
0.0061846282333135
0.0094544682651758
0.012723796069622
0.0159877613186836
0.0192993525415658
0.0227643940597772
0.0265168882906436
0.0306941866874694
0.0354288481175899
0.0408521927893161
0.0470896512269973
0.0542370676994323
0.0623250380158424
0.0712870433926582
0.0809425339102745
0.0909978151321411
0.101063422858715
0.1106825768947601
0.1193642243742942
0.1266226470470428
0.1320246756076812
0.1352332830429077
0.1360349655151367
0.1343492120504379
0.1302276700735092
0.1238488107919693
0.1155070140957832
0.1055914238095283
0.094554878771305
0.0828777402639389
0.0710298269987106
0.0594312883913517
0.0484154783189296
0.0382010079920291
0.0288821104913949
0.0204419679939746
0.0127860447391867
0.005788130685687
-0.0006615724414587
-0.0066191297955811
-0.0120663875713944
-0.0169063303619623
-0.0209754351526498
-0.0240776222199201
-0.0260372702032327
-0.0267528519034385
-0.0262310672551393
-0.0245961211621761
-0.0220780242234468
-0.0189867168664932
-0.0156776141375303
-0.0125095611438155
-0.0098006343469023
-0.0077949706465005
-0.0066483449190855
-0.0064275786280632
-0.0071176141500473
-0.00863653793931
-0.0108573753386735
-0.0136309545487165
-0.0168041624128818
-0.0202292017638683
-0.0237622074782848
-0.0272563584148883
-0.0305610448122024
-0.0335374660789966
-0.0360884144902229
-0.0381845235824584
-0.0398706048727035
-0.0412535369396209
-0.0424808040261268
-0.0437125712633132
-0.0450895652174949
-0.0467027276754379
-0.0485700815916061
-0.0506261587142944
-0.0527303330600261
-0.0546944998204708
-0.0563196316361427
-0.0574281886219978
-0.0578846484422683
-0.0576037839055061
-0.0565552748739719
-0.0547718480229377
-0.0523537173867225
-0.0494583845138549
-0.0462746247649192
-0.0429877936840057
-0.0397494956851005
-0.0366614535450935
-0.0337713323533535
-0.0310748871415853
-0.0285250172019004
-0.0260482355952262
-0.0235622636973857
-0.0209881868213415
-0.0182565301656723
-0.0153103163465857
-0.0121054286137223
-0.0086039332672953
-0.0047624558210372
-0.0005259802564978
0.0041666887700557
0.0093658845871686
0.0150865633040666
0.0212860219180583
0.0278560817241668
0.0346337743103504
0.0414205603301525
0.0479982048273086
0.0541365966200828
0.0595972836017608
0.0641438663005828
0.0675608739256858
0.0696727931499481
0.0703647956252098
0.0696072876453399
0.0674726217985153
0.0641327425837516
0.0598373711109161
0.054878894239664
0.0495550334453582
0.044140987098217
0.038873940706253
0.0339435786008834
0.0294842347502708
0.0255726091563701
0.0222349874675273
0.0194604359567165
0.0172131098806858
0.0154434740543365
0.0141048682853579
0.0131748523563146
0.0126695595681667
0.012640057131648
0.0131491068750619
0.0142376143485307
0.0158966071903705
0.0180543940514326
0.0205771513283252
0.0232782624661922
0.0259341113269329
0.0283038988709449
0.0301496144384145
0.0312551334500312
0.0314434990286827
0.0305887069553136
0.0286219976842403
0.0255346596240997
0.0213773921132087
0.0162591375410556
0.0103496983647346
0.0038841255009174
-0.0028410516679286
-0.0094904489815235
-0.015733066946268
-0.0212959945201873
-0.0260134376585483
-0.0298572871834039
-0.0329399853944778
-0.0354896783828735
-0.0378074422478675
-0.0402168817818164
-0.0430121459066867
-0.0464112013578414
-0.0505236014723777
-0.0553416460752487
-0.0607553198933601
-0.066579021513462
-0.0725800096988678
-0.0785066187381744
-0.0841137766838073
-0.0891814231872558
-0.0935240983963012
-0.096993513405323
-0.0994777753949165
-0.1009002104401588
-0.1012224704027175
-0.1004546582698822
-0.0986647829413414
-0.0959788933396339
-0.092571422457695
-0.0886443778872489
-0.0843948647379875
-0.0799798592925071
-0.0754926428198814
-0.070960521697998
-0.0663589760661125
-0.0616311989724636
-0.0567096285521984
-0.0515374615788459
-0.0460831373929977
-0.0403445214033126
-0.0343488231301307
-0.0281516723334789
-0.0218291580677032
-0.0154610015451908
-0.0091140531003475
-0.002834815531969
0.0033455565571784
0.0093960501253604
0.0152692049741745
0.0208931192755699
0.0261744819581508
0.0310084857046604
0.0352941937744617
0.0389542803168296
0.0419543460011482
0.0443155653774738
0.0461120940744876
0.0474535152316093
0.0484654270112514
0.0492738336324691
0.0499909967184066
0.0507041625678539
0.0514682233333587
0.0523021519184112
0.0531938299536705
0.0541162826120853
0.0550428852438926
0.0559484176337718
0.0568040534853935
0.0575796589255332
0.0582569986581802
0.0588516592979431
0.0594322234392166
0.0601255223155021
0.0611079782247543
0.0625817030668258
0.0647319033741951
0.0676734745502471
0.0714013203978538
0.0757569596171379
0.0804242640733718
0.0849602967500686
0.0888560265302658
0.091617427766323
0.0928488671779632
0.0923132896423339
0.0899559631943702
0.0858959034085273
0.0803915932774543
0.0737898051738739
0.0664727985858917
0.0588132366538047
0.0511397831141948
0.0437170900404453
0.0367375463247299
0.0303198304027318
0.0245134625583887
0.0193098597228527
0.0146603556349873
0.0104975467547774
0.0067520281299948
0.0033576022833585
0.0002455739304423
-0.0026588859036564
-0.005425558425486
-0.0080953016877174
-0.010656576603651
-0.0130344685167074
-0.0150977792218327
-0.0166855752468109
-0.0176481828093528
-0.0178903974592685
-0.0174046028405427
-0.016283418983221
-0.0147042879834771
-0.0128901889547705
-0.0110635254532098
-0.0094076115638017
-0.0080388886854052
-0.0069914264604449
-0.0062205987051129
-0.005627570208162
-0.0050946678966283
-0.0045193098485469
-0.0038377409800887
-0.0030350144952535
-0.0021438766270875
-0.0012374483048915
-0.0004196781665086
0.0001834146678447
0.0004329364746809
0.0001909211277961
-0.0006621610373258
-0.0022080205380916
-0.0044689662754535
-0.0073918290436267
-0.0108492616564035
-0.0146596282720565
-0.0186155252158641
-0.0225103311240673
-0.0261586755514144
-0.0294120591133832
-0.0321703217923641
-0.034388430416584
-0.036079779267311
-0.037312738597393
-0.0381906479597091
-0.0388110615313053
-0.0392148494720459
-0.0393468029797077
-0.0390489846467971
-0.0380944274365901
-0.0362505465745925
-0.0333500988781452
-0.0293466914445161
-0.0243437737226486
-0.0185967721045017
-0.0124886948615312
-0.00648401863873
-0.0010695736855268
0.0033135712146759
0.0063375383615493
0.0078346319496631
0.0078113712370395
0.0064312331378459
0.0039757341146469
0.0007959567010402
-0.0027377679944038
-0.0062847509980201
-0.00957509316504
-0.0124337896704673
-0.0147862415760755
-0.0166511703282594
-0.0181246157735586
-0.019355921074748
-0.0205181706696748
-0.0217772908508777
-0.0232637785375118
-0.025050863623619
-0.0271430108696222
-0.0294770468026399
-0.0319359563291072
-0.0343708582222461
-0.0366230718791484
-0.0385440476238727
-0.0400147996842861
-0.0409605987370014
-0.0413547977805137
-0.0412120670080184
-0.0405762046575546
-0.0395069830119609
-0.0380686074495315
-0.0363236740231514
-0.0343350283801555
-0.0321734435856342
-0.0299219004809856
-0.027661595493555
-0.0254447348415851
-0.0232836045324802
-0.0211633592844009
-0.019053429365158
-0.0169008523225784
-0.0146152349188923
-0.0120644746348261
-0.009091006591916
-0.0055471998639404
-0.0013394923880696
0.0035355559084564
0.0089760357514023
0.0147833451628685
0.0206892490386962
0.0263915881514549
0.0315921977162361
0.0360337160527706
0.0395296365022659
0.0419803448021411
0.0433695688843727
0.0437450669705867
0.0431990586221218
0.0418578945100307
0.0398742370307445
0.0374129712581634
0.0346304811537265
0.0316531434655189
0.0285621881484985
0.0253910273313522
0.0221377797424793
0.0187882371246814
0.0153390821069478
0.0118132969364523
0.0082665141671895
0.0047857319004833
0.0014769709669053
-0.0015576966106891
-0.0042407009750604
-0.0065281488932669
-0.0084113255143165
-0.0099123325198888
-0.0110735073685646
-0.011946465820074
-0.0125853726640343
-0.0130421537905931
-0.0133594311773777
-0.0135585777461528
-0.0136248683556914
-0.0134985875338315
-0.0130798621103167
-0.0122451856732368
-0.0108704175800085
-0.0088549237698316
-0.0061375293880701
-0.0027022212743759
0.0014189006760716
0.006143775768578
0.0113447373732924
0.0168607681989669
0.0225147027522325
0.0281288176774978
0.0335315205156803
0.038555696606636
0.0430360063910484
0.0468092150986194
0.0497190803289413
0.051627442240715
0.0524261854588985
0.0520433336496353
0.0504472255706787
0.0476534068584442
0.0437304191291332
0.0388007499277591
0.0330389849841594
0.0266701094806194
0.0199654474854469
0.013233576901257
0.0068062376230955
0.0010145669803023
-0.0038501000963151
-0.0075863078236579
-0.0101224826648831
-0.0115242367610335
-0.0119749745354056
-0.0117498785257339
-0.0111812790855765
-0.0106075927615165
-0.0103156324476003
-0.0104977432638406
-0.01124267000705
-0.0125556606799364
-0.0143809653818607
-0.0166051443666219
-0.0190394558012485
-0.0213990472257137
-0.0233057774603366
-0.0243254415690898
-0.0240242592990398
-0.022030059248209
-0.0180996768176555
-0.0121830282732844
-0.0044531859457492
0.0047139031812548
0.0147952511906623
0.0251884739845991
0.0352745279669761
0.0444668307900428
0.0522484965622425
0.0582026243209838
0.0620318204164505
0.0635618343949318
0.0627335831522941
0.0595884472131729
0.0542499497532844
0.0469101034104824
0.0378246679902076
0.0273116938769817
0.0157485231757164
0.0035641156136989
-0.0087778717279434
-0.0208078678697347
-0.0320888645946979
-0.0422558262944221
-0.0510467067360878
-0.0583183392882347
-0.0640440955758094
-0.0682970732450485
-0.0712253600358963
-0.0730227306485176
-0.0738945454359054
-0.0740238279104232
-0.0735491439700126
-0.0725564211606979
-0.0710776895284652
-0.0690964311361312
-0.0665665566921234
-0.0634487271308898
-0.0597532615065574
-0.0555649399757385
-0.0510388612747192
-0.0463765487074852
-0.0417908169329166
-0.0374668836593627
-0.0335322692990303
-0.0300460718572139
-0.0270078629255294
-0.0243766494095325
-0.0220929123461246
-0.0201008319854736
-0.0183635521680116
-0.0168670359998941
-0.0156155005097389
-0.0146197341382503
-0.0138805611059069
-0.0133764008060097
-0.0130596878007054
-0.0128583349287509
-0.0126816406846046
-0.0124325007200241
-0.0120228929445147
-0.0113874971866607
-0.0104877324774861
-0.0093007236719131
-0.0078005567193031
-0.0059437472373247
-0.0036647599190473
-0.0008855126798152
0.0024606958031654
0.0064002759754657
0.0108976475894451
0.0158465690910816
0.0210761241614818
0.0263700596988201
0.0314929336309433
0.0362161993980407
0.0403421483933925
0.0437234565615654
0.0462758764624595
0.0479833073914051
0.0488891378045082
0.0490719079971313
0.0486218631267547
0.0476330891251564
0.0462055429816246
0.0444457866251468
0.0424623899161815
0.0403567627072334
0.0382121540606021
0.0360836237668991
0.0339933224022388
0.0319350436329841
0.0298861805349588
0.0278217308223247
0.0257264152169227
0.0236018691211938
0.0214643813669681
0.0193306766450405
0.0171990022063255
0.015037452802062
0.0127835003659129
0.0103551000356674
0.0076753618195652
0.0047036707401275
0.0014595817774534
-0.0019664103165268
-0.0054173599928617
-0.0086916657164692
-0.0115764383226633
-0.0138842919841408
-0.0154869956895709
-0.0163368806242942
-0.0164738055318593
-0.0160227343440055
-0.0151785826310515
-0.0141728147864341
-0.0132293831557035
-0.0125251449644565
-0.0121654458343982
-0.0121784256771206
-0.0125264013186097
-0.0131266303360462
-0.013870732858777
-0.0146384481340646
-0.015309015288949
-0.0157738327980041
-0.0159486625343561
-0.0157815124839544
-0.0152577199041843
-0.0144033301621675
-0.0132804699242115
-0.0119727160781621
-0.0105679165571928
-0.0091439858078956
-0.0077585708349943
-0.0064428988844156
-0.0052032452076673
-0.0040332470089197
-0.0029322151094675
-0.0019199587404727
-0.0010409336537122
-0.0003557857125997
7.643736898899078e-05
0.0002193860709667
7.250718772411346e-05
-0.0003309715539216
-0.000933688133955
-0.0016604512929916
-0.0024186726659536
-0.0031025633215904
-0.0036099851131439
-0.0038619190454483
-0.0038064587861299
-0.0034026186913251
-0.0025958232581615
-0.00130470469594
0.0005669333040714
0.0030973423272371
0.006310362368822
0.010147912427783
0.0144563149660825
0.0189914498478174
0.0234472993761301
0.0275028012692928
0.0308717638254165
0.0333414673805236
0.0347938053309917
0.035210121423006
0.0346622243523597
0.0332924425601959
0.0312901698052883
0.0288698337972164
0.0262488648295402
0.0236263182014226
0.0211656652390956
0.0189845878630876
0.01715131662786
0.0156847722828388
0.0145598761737346
0.013719355687499
0.0130867669358849
0.012575851753354
0.0120968278497457
0.0115601681172847
0.0108788404613733
0.00997413136065
0.0087867155671119
0.007287508342415
0.0054840836673974
0.0034230696037411
0.0011879364028573
-0.0011109318584203
-0.0033540716394782
-0.0054321493953466
-0.0072574988007545
-0.0087669845670461
-0.0099226264283061
-0.010712151415646
-0.011146574281156
-0.0112543180584907
-0.0110741816461086
-0.0106502594426274
-0.0100305760279297
-0.0092661837115883
-0.0084074111655354
-0.0074988445267081
-0.0065741147845983
-0.0056506404653191
-0.0047284527681767
-0.0037947534583508
-0.0028294520452618
-0.0018091602250933
-0.0007112217135727
0.0004824684001505
0.0017826464027166
0.0031902273185551
0.0046945693902671
0.0062731774523854
0.0078932624310255
0.0095153506845235
0.0110969236120581
0.0125939222052693
0.0139609789475798
0.0151506885886192
0.0161082968115806
0.0167614985257387
0.0170140769332647
0.0167535468935966
0.0158754717558622
0.014315428212285
0.0120731284841895
0.0092214327305555
0.0059006856754422
0.0022980514913797
-0.0013825483620166
-0.0049491580575704
-0.0082434136420488
-0.0111526474356651
-0.0136096365749835
-0.0155815612524747
-0.0170593447983264
-0.0180579144507646
-0.0186217240989208
-0.0188236087560653
-0.0187551900744438
-0.0185132510960102
-0.0181866325438022
-0.0178470648825168
-0.0175446569919586
-0.0173058100044727
-0.01713203266263
-0.0170034300535917
-0.016888003796339
-0.0167501047253608
-0.0165539886802434
-0.0162647161632776
-0.015851505100727
-0.0152956303209066
-0.0145950112491846
-0.0137601606547832
-0.0128084206953644
-0.011760982684791
-0.0106405466794967
-0.0094699300825595
-0.0082726245746016
-0.0070728133432567
-0.0058949920348823
-0.0047658900730311
-0.0037110159173607
-0.0027425030712038
-0.0018564991187304
-0.001042861957103
-0.0002836738713085
0.0004640165716409
0.001281929668039
0.0022853068076074
0.0035957591608166
0.0053005749359726
0.0074151810258626
0.0098656080663204
0.0124973505735397
0.0151036344468593
0.0174600481986999
0.0193564277142286
0.02062514051795
0.0211670957505702
0.0209717601537704
0.0201239045709371
0.0187888965010643
0.0171746388077735
0.0154845872893929
0.0138810435310006
0.0124636776745319
0.0112604945898056
0.0102315060794353
0.0092842793092131
0.0082979304715991
0.00715056899935
0.0057432316243648
0.0040167886763811
0.0019627269357442
-0.0003724489361047
-0.0028916886076331
-0.0054625263437628
-0.0079413056373596
-0.0101988855749368
-0.0121380742639303
-0.0137019660323858
-0.0148786855861544
-0.0157030299305915
-0.0162525661289691
-0.0166368409991264
-0.016980530694127
-0.0174045972526073
-0.0180076044052839
-0.0188482664525508
-0.0199357904493808
-0.0212330929934978
-0.0226674042642116
-0.0241409484297037
-0.0255430713295936
-0.0267632938921451
-0.0276966746896505
-0.0282367151230573
-0.0282596722245216
-0.0276103131473064
-0.0261011943221092
-0.0235322806984186
-0.019729608669877
-0.0145922368392348
-0.0081322332844138
-0.000495817977935
0.0080402754247188
0.0170940812677145
0.0262152999639511
0.0349255688488483
0.0427571460604667
0.0492872595787048
0.054168090224266
0.0571509525179863
0.0581009872257709
0.0570019148290157
0.0539544485509395
0.0491690188646316
0.0429494082927703
0.0356656797230243
0.0277189128100872
0.0195038020610809
0.01137575507164
0.0036305580288171
-0.0034953132271766
-0.0098075335845351
-0.0151398126035928
-0.0193600505590438
-0.0223950743675231
-0.0242585130035877
-0.0250644013285636
-0.0250187888741493
-0.0243942327797412
-0.0234923344105482
-0.0225945841521024
-0.0219096727669239
-0.0215435549616813
-0.0215081870555877
-0.0217468068003654
-0.0221497360616922
-0.0225591417402029
-0.0227721873670816
-0.0225554797798395
-0.0216765441000461
-0.0199431050568819
-0.0172401759773492
-0.0135588916018605
-0.0090109501034021
-0.0038264086470007
0.0016659498214721
0.0070769879966974
0.0120084332302212
0.0161022022366523
0.0190760530531406
0.0207455214112997
0.0210352763533592
0.0199782196432352
0.0177007094025611
0.0143971275538206
0.010301923379302
0.0056687779724597
0.0007590763270854
-0.0041658636182546
-0.0088552180677652
-0.0130858849734067
-0.0166844632476568
-0.0195451155304908
-0.0216365810483694
-0.0229981914162635
-0.0237265489995479
-0.0239550974220037
-0.0238319300115108
-0.0235004872083663
-0.0230857692658901
-0.022692309692502
-0.0224145986139774
-0.0223433524370193
-0.0225547831505537
-0.0230933763086795
-0.0239621754735708
-0.0251214038580656
-0.0264920145273208
-0.0279627051204442
-0.0294007956981658
-0.0306662060320377
-0.0316249802708625
-0.0321610644459724
-0.0321867167949676
-0.0316490605473518
-0.0305333547294139
-0.0288639310747385
-0.026691760867834
-0.0240705125033855
-0.0210480019450187
-0.0176739990711212
-0.0139948986470699
-0.0100284609943628
-0.0057409647852182
-0.0010431073606014
0.0041956156492233
0.0101151308044791
0.016818169504404
0.0243229586631059
0.0325297489762306
0.0412075072526931
0.0500042214989662
0.0584790408611297
0.0661487132310867
0.0725410729646682
0.0772472396492958
0.0799631252884864
0.0805149376392364
0.0788700580596923
0.0751370191574096
0.0695560127496719
0.0624794885516166
0.0543420650064945
0.0456202924251556
0.0367855578660965
0.0282559487968683
0.0203563198447227
0.0132939899340271
0.0071509024128317
0.0018935630796477
-0.0025969836860895
-0.0064813373610377
-0.0099179912358522
-0.0130325779318809
-0.0159043800085783
-0.0185665898025035
-0.021016426384449
-0.0232301373034715
-0.0251763965934515
-0.0268253777176141
-0.0281537529081106
-0.0291473362594842
-0.0298026707023382
-0.0301275178790092
-0.030143603682518
-0.0298920832574367
-0.0294332262128591
-0.0288358926773071
-0.0281630456447601
-0.0274607557803392
-0.0267541091889143
-0.0260488092899322
-0.0253344792872667
-0.024586696177721
-0.0237690545618534
-0.0228394605219364
-0.0217591524124145
-0.0204970948398113
-0.0190285965800285
-0.0173341948539018
-0.015402216464281
-0.0132330488413572
-0.0108438320457935
-0.0082722920924425
-0.0055744033306837
-0.0028107892721891
-2.573244273662567e-05
0.0027684085071086
0.0055910721421241
0.0084817707538604
0.0114934705197811
0.0147011652588844
0.0182141214609146
0.0221707969903945
0.0267065893858671
0.0319029130041599
0.037737138569355
0.044052455574274
0.0505595542490482
0.0568696819245815
0.0625482648611068
0.0671734362840652
0.0703841298818588
0.071912869811058
0.0716073885560035
0.0694418922066688
0.065514326095581
0.0600298158824443
0.0532759428024292
0.0455945655703544
0.0373543873429298
0.0289301387965679
0.0206845998764038
0.0129426922649145
0.0059590982273221
-0.000106475315988
-0.005196466576308
-0.0093469768762588
-0.0126687278971076
-0.015317054465413
-0.0174520667642354
-0.0191987045109272
-0.0206198804080486
-0.0217117872089147
-0.0224204119294881
-0.0226706527173519
-0.0223983954638242
-0.0215768590569496
-0.0202337950468063
-0.0184591803699731
-0.0163993462920188
-0.0142348557710647
-0.0121469339355826
-0.0102842915803194
-0.0087445648387074
-0.0075771724805235
-0.0068011581897735
-0.0064212149009108
-0.0064277527853846
-0.006784314289689
-0.0074193812906742
-0.0082343984395265
-0.0091238962486386
-0.0099964067339897
-0.0107921324670314
-0.0114985201507806
-0.0121589032933115
-0.012866479344666
-0.0137435887008905
-0.0149122951552271
-0.0164618864655494
-0.0184214785695076
-0.0207481253892183
-0.0233330931514501
-0.0260194987058639
-0.0286253709346056
-0.0309706069529056
-0.0329045429825782
-0.0343270003795623
-0.0351925864815712
-0.0354928597807884
-0.0352241843938827
-0.0343556739389896
-0.0328133255243301
-0.0304951854050159
-0.0273159109055995
-0.0232605896890163
-0.0184262841939926
-0.0130363684147596
-0.0074213175103068
-0.0019735288806259
0.0029075550846755
0.0068667442537844
0.0096342489123344
0.0110536348074674
0.011094476096332
0.009848341345787
0.0075084026902914
0.0043387138284742
0.0006431927904486
-0.0032623959705233
-0.0070791337639093
-0.0105531010776758
-0.0134955532848835
-0.0157895535230636
-0.0173829440027475
-0.0182720925658941
-0.0184831414371728
-0.0180584099143743
-0.0170535687357187
-0.0155423516407608
-0.0136196371167898
-0.011402528733015
-0.0090340441092848
-0.0066838390193879
-0.004537746310234
-0.0027758069336414
-0.0015448657795786
-0.0009350273758172
-0.0009659118950366
-0.0015832325443625
-0.0026660067960619
-0.004044291563332
-0.005522346124053
-0.0068985819816589
-0.0079756043851375
-0.0085605718195438
-0.0084659662097692
-0.007523376494646
-0.0056111793965101
-0.0026820600032806
0.0012242849916219
0.0059832446277141
0.0113943228498101
0.0171972904354333
0.0230996329337358
0.0288101695477962
0.0340678431093692
0.0386604368686676
0.0424330607056617
0.0452878065407276
0.0471795126795768
0.048112004995346
0.0481342710554599
0.0473301336169242
0.0458002686500549
0.043650809675455
0.0409993007779121
0.0379894375801086
0.0347944349050521
0.031595803797245
0.028550025075674
0.0257663410156965
0.0233012363314628
0.0211613476276397
0.0193103905767202
0.0176799818873405
0.016180757433176
0.0147123904898762
0.0131741818040609
0.0114722019061446
0.0095223672688007
0.0072576366364955
0.0046406737528741
0.001675174338743
-0.0015880971914157
-0.005052629392594
-0.0085874814540147
-0.0120465364307165
-0.0152891371399164
-0.0181979741901159
-0.0206920839846134
-0.0227322783321142
-0.0243188124150037
-0.0254832468926906
-0.0262752026319503
-0.0267492420971393
-0.0269594956189394
-0.0269588250666856
-0.0267958398908376
-0.026511151343584
-0.0261357650160789
-0.0256913714110851
-0.0251908935606479
-0.0246373619884252
-0.0240231975913047
-0.0233339704573154
-0.022554924711585
-0.0216774307191371
-0.0207055732607841
-0.0196592882275581
-0.01857166364789
-0.0174858011305332
-0.0164502803236246
-0.0155023755505681
-0.0146399987861514
-0.0138000799342989
-0.0128566138446331
-0.01163543574512
-0.0099366242066025
-0.007559179328382
-0.0043254606425762
-0.0001058429479598
0.0051561025902628
0.0114238066598773
0.018559006974101
0.0263241250067949
0.0343937203288078
0.0423702597618103
0.0498025864362716
0.0562143996357917
0.0611469373106956
0.0642115548253059
0.065144158899784
0.0638482496142387
0.0604133307933807
0.0551052801311016
0.0483332015573978
0.0405997410416603
0.0324400775134563
0.0243569333106279
0.0167664736509323
0.0099672321230173
0.0041301175951957
-0.0006992230191826
-0.0045870458707213
-0.0076835444197058
-0.010184422135353
-0.0122929625213146
-0.0141913630068302
-0.0160228181630373
-0.0178808141499757
-0.0198051426559686
-0.0217875875532627
-0.0237873718142509
-0.0257502943277359
-0.0276247188448905
-0.0293724741786718
-0.0309720616787672
-0.0324133187532424
-0.0336925014853477
-0.0348123274743557
-0.0357800312340259
-0.0366011634469032
-0.0372733324766159
-0.0377807766199111
-0.0380912795662879
-0.0381596684455871
-0.0379367694258689
-0.0373786948621273
-0.03645596280694
-0.0351614244282245
-0.0335119068622589
-0.0315435193479061
-0.0293016694486141
-0.0268195867538452
-0.0240885652601718
-0.0210384652018547
-0.0175397582352161
-0.0134258642792701
-0.0085321506485342
-0.0027413517236709
0.0039794873446226
0.0115555198863148
0.0197921134531497
0.0283772591501474
0.0369022712111473
0.0448984503746032
0.0518855303525924
0.0574295744299888
0.0612034313380718
0.0630353689193725
0.0629280731081962
0.0610403902828693
0.057642962783575
0.0530673712491989
0.0476647727191448
0.0417807735502719
0.03574213758111
0.029843520373106
0.0243243146687746
0.0193424131721258
0.0149636697024106
0.0111739384010434
0.0079025132581591
0.0050435345619916
0.0024745697155594
7.957592606544495e-05
-0.0022252425551414
-0.0044708885252475
-0.0066220397129654
-0.0085723176598548
-0.0101584196090698
-0.0111966636031866
-0.0115299094468355
-0.0110712442547082
-0.0098372809588909
-0.007961606606841
-0.005678592249751
-0.0032814340665936
-0.0010718535631895
0.0006815195083618
0.0017711445689201
0.002070840448141
0.0015506297349929
0.0002822317183017
-0.0015663225203752
-0.0037506613880395
-0.0059889610856771
-0.0080130156129598
-0.0096195582300424
-0.0107116140425205
-0.0113180549815297
-0.0115835648030042
-0.0117309857159852
-0.0120046734809875
-0.0126087991520762
-0.013658246025443
-0.0151563789695501
-0.017004657536745
-0.0190399959683418
-0.0210865922272205
-0.0230023358017206
-0.0247054807841777
-0.0261805318295955
-0.027470288798213
-0.0286599732935428
-0.0298554897308349
-0.0311582498252391
-0.0326427109539508
-0.0343429371714592
-0.0362480245530605
-0.0383041501045227
-0.0404243096709251
-0.0425015203654766
-0.0444190874695777
-0.046061985194683
-0.0473311580717563
-0.0481508448719978
-0.0484658144414424
-0.0482383146882057
-0.047454334795475
-0.0461353510618209
-0.0443347431719303
-0.0421133711934089
-0.0395247973501682
-0.0366282761096954
-0.0335046052932739
-0.0302470084279775
-0.0269303098320961
-0.0235797464847564
-0.0201558116823434
-0.0165636707097291
-0.0126838963478803
-0.0084060300141572
-0.0036496892571449
0.0016266368329524
0.0074238777160644
0.0137049034237861
0.0203995164483785
0.027410365641117
0.0346177816390991
0.0418787486851215
0.0490179993212223
0.0558190867304801
0.062025137245655
0.0673515275120735
0.0715104788541793
0.0742472112178802
0.0753827989101409
0.0748534202575683
0.0727320909500122
0.0692226663231849
0.0646295323967933
0.05931381508708
0.0536454692482948
0.0479594990611076
0.0425234250724315
0.0375195145606994
0.0330425202846527
0.0291106794029474
0.0256835743784904
0.0226808711886405
0.0200002901256084
0.0175318233668804
0.0151668591424822
0.0128080109134316
0.0103809144347906
0.0078430250287055
0.0051881885156035
0.0024471748620271
-0.0003178045153617
-0.0030249673873186
-0.0055868066847324
-0.0079207457602024
-0.0099570211023092
-0.0116466162726283
-0.0129676330834627
-0.0139260254800319
-0.0145506579428911
-0.0148872379213571
-0.01499112136662
-0.0149125792086124
-0.0146770197898149
-0.014270644634962
-0.0136357564479112
-0.0126752657815814
-0.0112650720402598
-0.0092711169272661
-0.0065702339634299
-0.0030770301818847
0.0012244991958141
0.0062514818273484
0.0118041038513183
0.0175687335431575
0.023146741092205
0.0281017757952213
0.0320143476128578
0.0345359817147254
0.0354320779442787
0.0346040576696395
0.0320937521755695
0.0280778706073761
0.0228529125452041
0.0168066099286079
0.0103773614391684
0.0040082465857267
-0.0018974682316184
-0.0070096487179398
-0.0110842511057853
-0.0139623861759901
-0.0155728030949831
-0.0159471742808818
-0.015239649452269
-0.0137183433398604
-0.0117112100124359
-0.0095447488129138
-0.0075122793205082
-0.0058558257296681
-0.0047402917407453
-0.0042275851592421
-0.0042664092034101
-0.0047055203467607
-0.0053307036869227
-0.0059166667051613
-0.0062790801748633
-0.0063147665932774
-0.0060211000964045
-0.0054909195750951
-0.0048879305832087
-0.0044088959693908
-0.0042391372844576
-0.0045125465840101
-0.005285819992423
-0.0065299984999001
-0.0081375669687986
-0.0099410787224769
-0.0117383711040019
-0.0133189652115106
-0.0144892148673534
-0.0150950253009796
-0.0150360632687807
-0.0142660401761531
-0.0127837695181369
-0.0106261437758803
-0.0078691272065043
-0.004632830619812
-0.0010824333876371
0.0025791358202695
0.0061257537454366
0.0093283178284764
0.0119784846901893
0.0139114949852228
0.0150216706097126
0.0152632482349872
0.0146366469562053
0.0131711065769195
0.0109142661094665
0.0079341791570186
0.0043324865400791
0.0002550706267356
-0.0041121244430541
-0.0085576390847563
-0.012861642986536
-0.0168162528425455
-0.020247833803296
-0.0230351518839597
-0.0251186285167932
-0.0264958404004573
-0.0272023770958185
-0.027288544923067
-0.0268049910664558
-0.0258027091622352
-0.0243451427668333
-0.0225225035101175
-0.0204566717147827
-0.018295707181096
-0.0162025690078735
-0.01433717738837
-0.0128344409167766
-0.0117887575179338
-0.011250895448029
-0.0112337097525596
-0.0117208436131477
-0.0126742869615554
-0.0140382684767246
-0.0157398525625467
-0.0176896080374717
-0.0197851732373237
-0.0219171419739723
-0.0239747278392314
-0.0258500128984451
-0.0274441502988338
-0.0286779254674911
-0.029501125216484
-0.029894832521677
-0.0298678800463676
-0.029451910406351
-0.0286954548209905
-0.0276548601686954
-0.026384599506855
-0.0249302834272384
-0.0233237855136394
-0.0215805396437644
-0.0197021793574094
-0.0176846031099557
-0.0155257657170295
-0.0132298171520233
-0.0108111705631017
-0.0083008501678705
-0.0057485941797494
-0.0032123979181051
-0.000736191868782
0.0016754902899265
0.0040749832987785
0.0065755248069763
0.0093450993299484
0.0125924479216337
0.0165411923080682
0.0213914401829242
0.027278171852231
0.0342389233410358
0.0421963185071945
0.0509551018476486
0.0602126866579055
0.069581851363182
0.0786234363913536
0.0868854075670242
0.0939448326826095
0.0994513034820556
0.1031660884618759
0.1049866527318954
0.1049507409334182
0.103218950331211
0.1000358834862709
0.0956791117787361
0.0904114097356796
0.0844465047121048
0.0779323950409889
0.0709527432918548
0.0635438039898872
0.0557207986712455
0.0475069545209407
0.0389618836343288
0.0302029903978109
0.0214096717536449
0.0128065701574087
0.0046309009194374
-0.0029076337814331
-0.0096649304032325
-0.0155885983258485
-0.020721897482872
-0.0251855291426181
-0.0291515383869409
-0.032818753272295
-0.0363860018551349
-0.040021751075983
-0.043834913522005
-0.0478516891598701
-0.0520051755011081
-0.0561427660286426
-0.0600486993789672
-0.063475102186203
-0.0661754384636879
-0.0679345279932022
-0.0685919374227523
-0.0680591240525245
-0.0663298815488815
-0.0634808540344238
-0.0596609860658645
-0.0550718754529953
-0.0499427393078804
-0.0445098951458931
-0.0390087962150573
-0.0336721949279308
-0.0287254285067319
-0.0243789311498403
-0.0208191201090812
-0.0181971229612827
-0.0166171882301569
-0.0161263160407543
-0.0167052261531353
-0.0182612128555774
-0.0206257291138172
-0.0235636960715055
-0.0267971940338611
-0.030035026371479
-0.032999251037836
-0.0354478433728218
-0.0371940396726131
-0.0381193757057189
-0.0381788983941078
-0.0374001860618591
-0.0358759760856628
-0.0337475910782814
-0.0311789344996213
-0.0283285249024629
-0.0253311973065137
-0.0222908854484558
-0.0192735772579908
-0.0162943638861179
-0.0133052663877606
-0.0101926224306225
-0.0067882426083087
-0.0028986716642975
0.0016482518985867
0.0069544250145554
0.0130178024992346
0.0197218749672174
0.0268460623919963
0.0340884923934936
0.0410930886864662
0.0474776625633239
0.0528628714382648
0.056902639567852
0.0593163967132568
0.0599211081862449
0.0586584508419036
0.0556140094995498
0.0510235764086246
0.0452554747462272
0.0387668386101722
0.0320496968924999
0.0255776606500148
0.0197531059384346
0.0148651022464036
0.0110764242708683
0.008445706218481
0.0069704158231616
0.0066251591779291
0.0073780370876193
0.0091833053156733
0.0119568705558776
0.0155464448034763
0.0197121687233448
0.0241293516010046
0.0284120291471481
0.0321470536291599
0.0349347963929176
0.0364371836185455
0.0364232473075389
0.0347968414425849
0.0316002815961837
0.0269991904497146
0.0212570950388908
0.0147058134898543
0.0077138291671872
0.0006516575813293
-0.0061420304700732
-0.0123840756714344
-0.0178590267896652
-0.0224273279309272
-0.0260321050882339
-0.028695061802864
-0.0304914340376853
-0.0315127074718475
-0.0318358391523361
-0.0315060019493103
-0.0305308550596237
-0.028885805979371
-0.0265292879194021
-0.0234263278543949
-0.0195786599069833
-0.0150533709675073
-0.0099993236362934
-0.004647297784686
0.0007080866489559
0.0057422490790486
0.0101350005716085
0.0135941104963421
0.0158747993409633
0.0168018210679292
0.0162906274199485
0.0143627459183335
0.0111515214666724
0.0068940189667046
0.0019077039323747
-0.003442748915404
-0.0087818894535303
-0.0137611990794539
-0.0180948469787836
-0.0215861126780509
-0.0241388417780399
-0.0257551278918981
-0.0265250243246555
-0.0266104266047477
-0.0262203682214021
-0.0255778077989816
-0.0248843822628259
-0.0242926981300115
-0.023893866688013
-0.023719048127532
-0.0237471424043178
-0.0239163134247064
-0.0241402834653854
-0.0243244785815477
-0.0243777818977832
-0.024222632870078
-0.0238038767129182
-0.0230911411345005
-0.0220771748572587
-0.0207796487957239
-0.0192422047257423
-0.0175269022583961
-0.0157002974301576
-0.0138200763612985
-0.0119303688406944
-0.0100684072822332
-0.0082728378474712
-0.0065850317478179
-0.0050473120063543
-0.0037022940814495
-0.0025896150618791
-0.0017379354685544
-0.0011539701372385
-0.0008129756897687
-0.0006602890789508
-0.0006247609853744
-0.000631496310234
-0.0006083324551582
-0.0004919022321701
-0.0002354048192501
0.000186450779438
0.000779315829277
0.0015374608337879
0.0024547465145587
0.0035323277115821
0.0047769248485565
0.0061917416751384
0.0077707469463348
0.0095001310110092
0.0113621074706316
0.0133374370634555
0.0154058374464511
0.017546946182847
0.0197428259998559
0.0219766795635223
0.0242250654846429
0.0264501757919788
0.0286067947745323
0.0306751076132059
0.0327082276344299
0.0348608642816543
0.0373720899224281
0.0405044481158256
0.0444641895592212
0.0493322201073169
0.055025577545166
0.0612944141030311
0.0677529871463775
0.0739401131868362
0.0793955028057098
0.0837313011288642
0.0866792425513267
0.0881038457155227
0.0879896059632301
0.0864175781607627
0.0835396572947502
0.0795542001724243
0.0746838375926017
0.0691536590456962
0.0631708651781082
0.0569109767675399
0.0505118519067764
0.0440682917833328
0.0376247838139534
0.0311773531138896
0.0246918890625238
0.0181315280497074
0.0114807039499282
0.0047581009566783
-0.0019822195172309
-0.0086563564836978
-0.0151581410318613
-0.0213696435093879
-0.0271765664219856
-0.0324853025376796
-0.0372346565127372
-0.0413998700678348
-0.044993869960308
-0.0480686873197555
-0.0507099144160747
-0.0530174039304256
-0.0550804622471332
-0.0569605492055416
-0.0586854144930839
-0.0602499805390834
-0.061614342033863
-0.0626917630434036
-0.0633276253938674
-0.0632799938321113
-0.0622232407331466
-0.0597923547029495
-0.055662527680397
-0.0496393516659736
-0.0417341366410255
-0.0322061404585838
-0.0215580966323614
-0.0104821696877479
0.0002300329506397
0.0097910687327384
0.0175134390592575
0.0228824727237224
0.0255986787378788
0.0255886726081371
0.0229904614388942
0.0181233584880828
0.0114510208368301
0.0035390891134738
-0.0049954243004322
-0.0135411899536848
-0.0215471386909484
-0.0285690184682607
-0.034306701272726
-0.0386246256530284
-0.0415479391813278
-0.0432366989552974
-0.0439457818865776
-0.043980423361063
-0.0436552353203296
-0.0432571247220039
-0.0430132299661636
-0.0430700220167636
-0.0434854552149772
-0.0442326813936233
-0.0452142059803009
-0.0462819561362266
-0.0472567528486251
-0.0479465350508689
-0.0481694117188453
-0.0477812588214874
-0.0467008985579013
-0.0449293032288551
-0.0425518192350864
-0.0397115275263786
-0.0365705713629722
-0.033287413418293
-0.0300069972872734
-0.0268415976315736
-0.0238398853689432
-0.0209649708122015
-0.0180992279201746
-0.0150763634592294
-0.0117282830178737
-0.0079331528395414
-0.0036532068625092
0.0010497849434614
0.0060253655537962
0.0110624050721526
0.015921676531434
0.0203661248087883
0.0241883937269449
0.0272346753627061
0.0294200517237186
0.030731102451682
0.0312159620225429
0.030966917052865
0.0301030054688453
0.0287588946521282
0.0270798411220312
0.025214597582817
