bvp
0.0136428251862525
0.0139271579682827
0.0143902208656072
0.0148892235010862
0.0153053365647792
0.015565101057291
0.0156578347086906
0.0156445987522602
0.0156560782343149
0.0158740859478712
0.0164938736706972
0.0176775529980659
0.0195149984210729
0.0220012664794921
0.0250341743230819
0.0284315329045057
0.031960904598236
0.0353750437498092
0.0384469702839851
0.0409967452287673
0.0429069101810455
0.0441286414861679
0.0446782000362873
0.0446212217211723
0.044045865535736
0.0430306866765022
0.0416130051016807
0.0397671908140182
0.037408497184515
0.0344281755387783
0.030746191740036
0.0263603497296571
0.0213764961808919
0.0160133056342601
0.0105803338810801
0.0054325768724083
0.0009136134758591
-0.0026964163407683
-0.0052173724398016
-0.0065839388407766
-0.0068352431990206
-0.0060869539156556
-0.00450508762151
-0.0022922698408365
0.0003229267895221
0.0031040105968713
0.0058273766189813
0.0082975402474403
0.0103562176227569
0.0118876788765192
0.0128214862197637
0.0131350867450237
0.0128577053546905
0.0120736882090568
0.0109199844300746
0.0095698721706867
0.0082041658461093
0.0069802552461624
0.0060052350163459
0.0053195618093013
0.0048992186784744
0.004675768315792
0.00456478074193
0.0044895708560943
0.0043890513479709
0.0042071044445037
0.003871489316225
0.0032753571867942
0.0022719614207744
0.0006881020963191
-0.0016453340649604
-0.0048580281436443
-0.0090106092393398
-0.0140702091157436
-0.0198986865580081
-0.026265449821949
-0.0328777655959129
-0.0394156388938427
-0.045567475259304
-0.0510648004710674
-0.055712915956974
-0.0594114251434803
-0.0621590912342071
-0.0640437752008438
-0.0652213394641876
-0.0658859312534332
-0.0662347376346588
-0.0664376020431518
-0.0666202530264854
-0.0668554529547691
-0.0671582370996475
-0.0674923136830329
-0.0677878335118293
-0.0679641589522361
-0.0679548010230064
-0.0677267014980316
-0.0672831684350967
-0.066652238368988
-0.0658718571066856
-0.0649778246879577
-0.0639929473400116
-0.0629180669784545
-0.061729684472084
-0.0603858195245265
-0.0588369369506835
-0.0570395477116107
-0.0549753755331039
-0.0526733621954917
-0.0502197444438934
-0.0477459356188774
-0.045399822294712
-0.0433133207261562
-0.0415751039981842
-0.0402127429842948
-0.0391868352890014
-0.0383953005075454
-0.0376833043992519
-0.036859892308712
-0.0357252433896064
-0.034103624522686
-0.0318688638508319
-0.0289564114063978
-0.025368707254529
-0.0211764257401227
-0.0165093522518873
-0.0115358643233776
-0.0064358934760093
-0.0013747550547122
0.0035156346857547
0.0081530734896659
0.0125357061624526
0.0167870949953794
0.0211722552776336
0.02604765817523
0.0317761078476905
0.0386532247066497
0.0468442775309085
0.0563161633908748
0.0667861998081207
0.0777375847101211
0.0885197073221206
0.0984817296266555
0.1070762574672699
0.1139242500066757
0.1188471019268035
0.1218482479453086
0.1230411380529403
0.1225500851869583
0.1204314231872558
0.1166655868291854
0.1112209111452102
0.1041375547647476
0.0955848693847656
0.0858746543526649
0.0754350423812866
0.0647628009319305
0.0543695762753486
0.0447272658348083
0.0362168848514556
0.0290939901024103
0.0234897881746292
0.0194488354027271
0.0169740188866853
0.0160499177873134
0.0166382994502782
0.0186519138514995
0.0219214148819446
0.0261783860623836
0.031068529933691
0.0361876972019672
0.0411157011985778
0.0454290211200714
0.0487080998718738
0.0505709089338779
0.0507323779165744
0.0490567609667778
0.0455837473273277
0.0405333563685417
0.0342866294085979
0.0273322016000747
0.0201861076056957
0.0133085176348686
0.007039189338684
0.001562912017107
-0.0030899457633495
-0.007013700902462
-0.0103860832750797
-0.0134220086038112
-0.0163195170462131
-0.0192118324339389
-0.0221502054482698
-0.0251225568354129
-0.0280885212123394
-0.0310130938887596
-0.0338925309479236
-0.0367607809603214
-0.0396668165922164
-0.0426393747329711
-0.0456686913967132
-0.0487176552414894
-0.0517473183572292
-0.0547323822975158
-0.0576626174151897
-0.0605433955788612
-0.0633984729647636
-0.0662665367126464
-0.0691856294870376
-0.0721686482429504
-0.0751795619726181
-0.0781170278787612
-0.0808117017149925
-0.0830454006791114
-0.084589198231697
-0.085245206952095
-0.0848776027560234
-0.0834286510944366
-0.0809234827756881
-0.0774653628468513
-0.0732216089963913
-0.0684034302830696
-0.0632404685020446
-0.0579525083303451
-0.052726712077856
-0.0477035492658615
-0.0429689139127731
-0.0385541766881942
-0.0344477780163288
-0.0306142345070838
-0.0270100869238376
-0.0235960222780704
-0.0203514285385608
-0.017288900911808
-0.0144586693495512
-0.01193811558187
-0.0098143266513943
-0.008167534135282
-0.0070523992180824
-0.0064772963523864
-0.006390206515789
-0.0066784359514713
-0.007182789966464
-0.0077208820730447
-0.0081106657162308
-0.0081868693232536
-0.0078125204890966
-0.0068917293101549
-0.0053808260709047
-0.0032899100333452
-0.0006739310920238
0.0023808740079402
0.0057680308818817
0.0093644987791776
0.0130340103060007
0.0166438892483711
0.0200920477509498
0.0233254134654998
0.0263398215174675
0.0291663408279418
0.0318539813160896
0.0344548448920249
0.0370111279189586
0.0395445749163627
0.0420534498989582
0.0445176288485527
0.0469071492552757
0.04918959364295
0.0513316690921783
0.0532955005764961
0.0550365932285785
0.0565066859126091
0.0576601363718509
0.0584601387381553
0.0588774234056472
0.0588788166642189
0.058414950966835
0.0574182868003845
0.0558155328035354
0.0535526573657989
0.0506205633282661
0.0470666289329528
0.0429944433271884
0.0385592468082904
0.0339525490999221
0.0293745603412389
0.0250094998627901
0.0210121795535087
0.0174998044967651
0.0145464651286602
0.0121831204742193
0.010399735532701
0.0091468775644898
0.0083410181105136
0.0078759845346212
0.0076378523372113
0.0075196237303316
0.007433726452291
0.0073228385299444
0.007169684395194
0.006996666546911
0.0068448688834905
0.0067459214478731
0.0067116999998688
0.0067446799948811
0.0068498998880386
0.0070338831283152
0.0072956155054271
0.0076217632740736
0.0079877618700265
0.0083611225709319
0.0087081436067819
0.0090038198977708
0.0092371189966797
0.0094075929373502
0.009518283419311
0.0095638567581772
0.0095118302851915
0.0092874392867088
0.0087747182697057
0.0078373383730649
0.0063503757119178
0.0042286664247512
0.0014468021690845
-0.0019490914419293
-0.0058417925611138
-0.010055411607027
-0.0143751315772533
-0.0185719020664691
-0.0224279481917619
-0.0257554613053798
-0.0284049585461616
-0.0302733220160007
-0.0313210748136043
-0.0315859466791152
-0.0311763770878314
-0.0302480980753898
-0.0289753377437591
-0.0275260228663682
-0.0260462164878845
-0.0246509499847888
-0.0234166290611028
-0.0223768539726734
-0.0215237960219383
-0.020814124494791
-0.0201807990670204
-0.019547238945961
-0.0188365373760461
-0.0179789736866951
-0.0169252809137105
-0.0156605318188667
-0.0142055694013834
-0.0126040233299136
-0.0109076611697673
-0.0091698663309216
-0.0074452506378293
-0.0057894671335816
-0.0042544961906969
-0.0028809108771383
-0.0016959970816969
-0.0007226830348372
6.284564733505249e-06
0.0004406291991472
0.0005174735561013
0.0001715635880827
-0.0006533795967698
-0.0019875979050993
-0.0038194679655134
-0.0060889162123203
-0.0086857816204428
-0.0114543074741959
-0.0142093673348426
-0.0167597457766532
-0.0189298819750547
-0.0205774698406457
-0.0216068960726261
-0.0219770725816488
-0.0217017214745283
-0.0208397973328828
-0.0194792561233043
-0.0177265796810388
-0.0157059151679277
-0.0135537702590227
-0.0114024728536605
-0.0093634836375713
-0.0075191911309957
-0.005921060219407
-0.0045894966460764
-0.003515507094562
-0.0026669432409107
-0.001997813116759
-0.0014567789621651
-0.0009917253628373
-0.000548742711544
-6.665010005235672e-05
0.000528885051608
0.0013173101469874
0.0023524407297372
0.003635418601334
0.0051228031516075
0.0067578661255538
0.0084893470630049
0.0102654872462153
0.0120175462216138
0.0136472610756754
0.0150257851928472
0.0160089023411273
0.0164653342217206
0.0163064524531364
0.0155077772215008
0.0141185009852051
0.0122566921636462
0.0100901620462536
0.0078094522468745
0.0056024231016635
0.003634350374341
0.0020324224606156
0.0008761268109083
0.0001969207078218
-1.3164244592189789e-05
0.000210827216506
0.0008170008659362
0.0017423732206225
0.0029151309281587
0.0042567253112792
0.005685762502253
0.007124270312488
0.0085074286907911
0.0097895581275224
0.010937713086605
0.0119216404855251
0.0127148842439055
0.0133054256439208
0.0137031218037009
0.0139383329078555
0.0140545554459095
0.014099164865911
0.0141157340258359
0.0141384061425924
0.0141877233982086
0.0142688620835542
0.0143724028021097
0.0144807016476988
0.0145797953009605
0.014663515612483
0.0147213414311409
0.0147191165015101
0.014585942029953
0.0142167508602142
0.0134924091398715
0.0123085845261812
0.0106039801612496
0.0083824060857295
0.0057224468328058
0.0027699233032763
-0.0002859036903828
-0.003241948550567
-0.0059004789218306
-0.0080677401274442
-0.0095425974577665
-0.0101262144744396
-0.0096632447093725
-0.0080839563161134
-0.0054200571030378
-0.001800456084311
0.0025524452794343
0.0073237149044871
0.012126987800002
0.0165550988167524
0.0202370937913656
0.0228809714317321
0.0243039727210998
0.0244527030736207
0.0234024226665496
0.0213307738304138
0.0184792391955852
0.0151159036904573
0.011505058966577
0.0078893089666962
0.0044828997924923
0.0014647142961621
-0.0010350076481699
-0.0029477085918188
-0.0042693652212619
-0.0050521432422101
-0.0053960541263222
-0.0054435702040791
-0.0053618950769305
-0.0053127044811844
-0.0054358346387743
-0.0058557875454425
-0.0066881598904728
-0.0080334078520536
-0.0099692810326814
-0.0125471893697977
-0.015781681984663
-0.0196279734373092
-0.0239613968878984
-0.0285770036280155
-0.0332108549773693
-0.037570871412754
-0.0413696877658367
-0.0443556457757949
-0.0463359877467155
-0.0471906028687953
-0.0468771681189537
-0.0454265251755714
-0.0429312251508235
-0.0395369119942188
-0.0354396998882293
-0.0308802220970392
-0.0261271558701992
-0.0214520562440156
-0.0171013232320547
-0.0132713932543993
-0.0100930873304605
-0.0076292250305414
-0.0058808978646993
-0.0047970693558454
-0.0042962459847331
-0.0043023154139518
-0.004766262602061
-0.0056526698172092
-0.0069200284779071
-0.008535586297512
-0.010513306595385
-0.0129242464900016
-0.0158533919602632
-0.0193245187401771
-0.0232346504926681
-0.0273271799087524
-0.0312109217047691
-0.0344200730323791
-0.0365015193819999
-0.0371080823242664
-0.0360736325383186
-0.0334452688694
-0.0294615291059017
-0.0244935508817434
-0.0189780890941619
-0.0133605189621448
-0.0080477073788642
-0.0033615790307521
0.0005050301551818
0.0035158991813659
0.0057928524911403
0.0075891837477684
0.0092366263270378
0.0110783465206623
0.0134079344570636
0.0164273642003536
0.0202252715826034
0.0247710738331079
0.0299235824495553
0.0354571342468261
0.0411009788513183
0.0465774349868297
0.0516279265284538
0.0560309961438179
0.0596214011311531
0.0623074397444725
0.0640770122408866
0.0649899691343307
0.0651587396860122
0.064720407128334
0.0638086646795272
0.0625362172722816
0.0609938353300094
0.059261679649353
0.0574195086956024
0.0555496625602245
0.0537352710962295
0.0520510636270046
0.0505462810397148
0.0492308959364891
0.0480707921087741
0.0469856038689613
0.0458491742610931
0.0445012301206588
0.0427730828523635
0.0405177026987075
0.0376317091286182
0.034067440778017
0.0298386104404926
0.0250190645456314
0.0197357311844825
0.0141607290133833
0.0085003022104501
0.0029712589457631
-0.0022313562221825
-0.0069562783464789
-0.0110995899885892
-0.0146007677540183
-0.0174403339624404
-0.0196371171623468
-0.0212439652532339
-0.0223454292863607
-0.0230546705424785
-0.0235028117895126
-0.0238215699791908
-0.0241253226995468
-0.0244978927075862
-0.0249858982861042
-0.0255980025976896
-0.0263108797371387
-0.0270787496119737
-0.0278408005833625
-0.028529804199934
-0.029085673391819
-0.029467424377799
-0.0296547524631023
-0.0296406298875808
-0.0294247139245271
-0.029010197147727
-0.0284006651490926
-0.0275994706898927
-0.0266131777316331
-0.0254552196711301
-0.0241490956395864
-0.0227342061698436
-0.0212786309421062
-0.0198953785002231
-0.0187436938285827
-0.0180038530379533
-0.017838530242443
-0.0183588527143001
-0.0196002200245857
-0.0215080492198467
-0.0239378847181797
-0.0266751460731029
-0.029469795525074
-0.0320707224309444
-0.0342509299516677
-0.0358263030648231
-0.0366703867912292
-0.0367237739264965
-0.0359970666468143
-0.0345669761300087
-0.0325653925538063
-0.0301614124327898
-0.027538426220417
-0.0248705819249153
-0.0223024599254131
-0.0199341922998428
-0.0178146492689847
-0.01594746299088
-0.0143074104562401
-0.0128525998443365
-0.0115265641361474
-0.0102598080411553
-0.0089745633304119
-0.0075894752517342
-0.0060275355353951
-0.0042308205738663
-0.0021761879324913
0.0001174993813037
0.0025951694697141
0.0051810787990689
0.007797063793987
0.0103778094053268
0.0128759685903787
0.0152514688670635
0.0174502618610858
0.0193850956857204
0.0209305621683597
0.0219373106956481
0.0222600884735584
0.0217907354235649
0.0204833094030618
0.0183630157262086
0.0155252944678068
0.0121306078508496
0.0083927633240818
0.0045613003894686
0.0008986517786979
-0.0023489296436309
-0.0049799922853708
-0.0068550650030374
-0.0079033616930246
-0.0081272348761558
-0.0076007675379514
-0.0064545683562755
-0.0048499945551157
-0.0029526017606258
-0.0009151101112365
0.0011281054466962
0.0030648186802864
0.004814401268959
0.0063393618911504
0.0076485536992549
0.0087848342955112
0.009802296757698
0.0107479058206081
0.0116580426692962
0.012566190212965
0.0135104935616254
0.0145324617624282
0.0156668405979871
0.0169341042637825
0.0183423087000846
0.0198871083557605
0.021543838083744
0.0232642851769924
0.0249832291156053
0.0266233459115028
0.0280919894576072
0.029275145381689
0.0300342179834842
0.0302108190953731
0.0296457502990961
0.0282099042087793
0.0258366800844669
0.0225464552640914
0.0184565559029579
0.01377541013062
0.0087844785302877
0.0038071637973189
-0.0008351150900125
-0.0048650186508893
-0.0080752372741699
-0.0103407744318246
-0.0116241127252578
-0.0119715575128793
-0.0114985294640064
-0.0103689320385456
-0.0087747238576412
-0.0069157965481281
-0.0049785543233156
-0.0031165573745965
-0.0014372952282428
6.167218089103699e-06
0.0012181010097265
0.0022503156214952
0.0031790183857083
0.0040806317701935
0.0050160875543951
0.0060243811458349
0.0071247098967432
0.0083225490525364
0.0096132103353738
0.010981342755258
0.012398337945342
0.013823595829308
0.0152128869667649
0.0165258254855871
0.0177238620817661
0.0187610853463411
0.0195714831352233
0.0200540088117122
0.0200669541954994
0.0194428171962499
0.0180185735225677
0.0156724508851766
0.0123611260205507
0.0081469733268022
0.0032030823640525
-0.002207493642345
-0.0077656852081418
-0.0131309358403086
-0.0179795809090137
-0.0220459252595901
-0.0251494906842708
-0.0271992944180965
-0.0281845703721046
-0.0281673874706029
-0.0272797755897045
-0.0257128234952688
-0.0236901305615901
-0.0214326847344636
-0.0191288702189922
-0.0169175900518894
-0.0148823158815503
-0.0130521059036254
-0.0114077161997556
-0.0098918201401829
-0.0084234615787863
-0.0069154119119048
-0.005291280336678
-0.0034977253526449
-0.0015082047320902
0.0006766645237803
0.0030272044241428
0.0054867113940417
0.0079810116440057
0.0104318521916866
0.0127693796530365
0.0149399591609835
0.016907574608922
0.018647002056241
0.0201266650110483
0.0212841108441352
0.0220074001699686
0.0221383795142173
0.0215006228536367
0.0199425444006919
0.0173813253641128
0.0138307865709066
0.0094060627743601
0.0043135806918144
-0.0011682542972266
-0.0067198304459452
-0.0120149049907922
-0.0167500562965869
-0.02067331969738
-0.0236101131886243
-0.0254750829190015
-0.0262705311179161
-0.026077527552843
-0.0250390991568565
-0.0233367811888456
-0.0211652256548404
-0.0187090598046779
-0.016127873212099
-0.01355024240911
-0.0110709629952907
-0.0087495120242238
-0.0066113518550992
-0.004651432391256
-0.0028394085820764
-0.0011276298901066
0.0005381911760196
0.0022073900327086
0.0039158761501312
0.0056836628355085
0.0075147622264921
0.0093978308141231
0.0113120842725038
0.0132351638749241
0.015143297612667
0.0170052479952573
0.0187813509255647
0.0204299129545688
0.0219086185097694
0.0231612678617239
0.0240984410047531
0.0245901886373758
0.0244779586791992
0.0235999207943677
0.0218233801424503
0.0190795231610536
0.0153921209275722
0.0108923399820923
0.0058157397434115
0.0004770839586853
-0.0047767683863639
-0.0096190460026264
-0.0137801188975572
-0.0170676168054342
-0.019375093281269
-0.0206801649183034
-0.021036360412836
-0.020562944933772
-0.0194280017167329
-0.0178224109113216
-0.0159358642995357
-0.0139418002218008
-0.0119844898581504
-0.0101653756573796
-0.0085347797721624
-0.0070940433070063
-0.0058067124336957
-0.0046150498092174
-0.0034581422805786
-0.0022851955145597
-0.0010611657053232
0.0002323854714632
0.0016006641089916
0.003041423857212
0.0045457296073436
0.0060939006507396
0.0076560573652386
0.0091997627168893
0.010697791352868
0.0121295973658561
0.0134780723601579
0.0147270839661359
0.0158584471791982
0.0168455075472593
0.0176457222551107
0.0181915871798992
0.0183815192431211
0.0180810410529375
0.0171401165425777
0.0154214259237051
0.0128325782716274
0.0093559697270393
0.0050677228718996
0.000139020383358
-0.005180612206459
-0.0105939079076051
-0.0157919339835643
-0.0204865224659442
-0.024439075961709
-0.0274880342185497
-0.0295657403767108
-0.0306960213929414
-0.0309778619557619
-0.0305643081665039
-0.0296390242874622
-0.0283908378332853
-0.0269903410226106
-0.0255733337253332
-0.0242320802062749
-0.0230129957199096
-0.0219193436205387
-0.0209171790629625
-0.0199421420693397
-0.0189088247716426
-0.0177299343049526
-0.0163420345634222
-0.0147200562059879
-0.0128737315535545
-0.0108390655368566
-0.0086729805916547
-0.0064425999298691
-0.0042077573016285
-0.0020127752795815
0.0001072380691766
0.0021216534078121
0.0040095839649438
0.0057659335434436
0.0073995804414153
0.0089228553697466
0.0103345625102519
0.0115985563024878
0.0126272290945053
0.0132853966206312
0.0134156048297882
0.0128738051280379
0.0115674510598182
0.0094859804958105
0.0067118657752871
0.0034104427322745
-0.0001943614333868
-0.0038500959053635
-0.0073042931035161
-0.0103283002972602
-0.012738044373691
-0.0144095346331596
-0.0152831627056002
-0.0153601933270692
-0.0146985603496432
-0.0134051954373717
-0.0116231366991996
-0.0095174666494131
-0.0072595691308379
-0.0050061321817338
-0.0028755974490195
-0.0009338889503851
0.0008026202558539
0.0023524300195276
0.0037528648972511
0.0050511620938777
0.006303028203547
0.0075692618265748
0.0089054098352789
0.0103475581854581
0.0118997963145375
0.0135318525135517
0.0151890823617577
0.0168058108538389
0.0183158908039331
0.0196614172309637
0.0207996144890785
0.021706024184823
0.0223744716495275
0.0228162743151187
0.0230565220117568
0.0231203939765691
0.0230108685791492
0.0226944498717784
0.0221059583127498
0.0211603641510009
0.019762746989727
0.0178286395967006
0.0153167806565761
0.0122541058808565
0.0087401000782847
0.0049357376992702
0.0010444857180118
-0.0027140737511217
-0.0061349002644419
-0.0090509047731757
-0.0113443136215209
-0.0129513572901487
-0.0138625111430883
-0.0141171002760529
-0.0137947890907526
-0.0130088422447443
-0.0118998670950531
-0.0106228161603212
-0.0093252602964639
-0.0081243887543678
-0.0070934272371232
-0.0062605328857898
-0.0056152534671127
-0.0051190117374062
-0.0047173574566841
-0.0043502869084477
-0.0039595169946551
-0.003495133947581
-0.00292140385136
-0.0022183391265571
-0.0013787876814603
-0.000406349543482
0.0006830370984971
0.0018610558472573
0.0030914577655494
0.004335890058428
0.005559145938605
0.0067321951501071
0.0078318351879715
0.0088393967598676
0.0097401607781648
0.0105202430859208
0.0111562944948673
0.0116008892655372
0.0117764063179492
0.0115842698141932
0.0109224254265427
0.009703760035336
0.0078752283006906
0.0054381377995014
0.002462949603796
-0.0009107710793614
-0.0044918525964021
-0.0080659873783588
-0.0114224702119827
-0.014372544363141
-0.0167637560516595
-0.0184939727187156
-0.019521502777934
-0.0198652669787406
-0.0195955540984869
-0.0188192352652549
-0.0176594778895378
-0.0162383820861578
-0.0146734872832894
-0.0130781512707471
-0.0115518886595964
-0.0101674636825919
-0.0089643280953168
-0.0079454742372035
-0.0070782075636088
-0.0063051762990653
-0.0055619874037802
-0.0047919899225234
-0.0039551011286675
-0.0030305767431855
-0.0020150991622358
-0.0009198368061333
0.0002330520655959
0.0014135634992271
0.0025832592509686
0.0036946150939911
0.004696752410382
0.0055462713353335
0.0062178941443562
0.0067092729732394
0.0070361765101552
0.0072195464745163
0.0072687240317463
0.0071678278036415
0.0068717198446393
0.006311853416264
0.0054097743704915
0.0040972284041345
0.0023414394818246
0.0001637297682464
-0.0023632645606994
-0.0051283999346196
-0.0079855266958475
-0.0107576232403516
-0.0132571011781692
-0.0153150297701358
-0.0168059170246124
-0.0176610313355922
-0.0178667623549699
-0.0174544509500265
-0.0164942871779203
-0.015092397108674
-0.013378856703639
-0.0114850159734487
-0.0095224156975746
-0.0075746262446045
-0.0057012634351849
-0.0039435680955648
-0.0023253289982676
-0.0008516665548086
0.0004916107282042
0.0017359014600515
0.0029215682297945
0.0040860143490135
0.0052565075457096
0.0064503476023674
0.0076767411082983
0.0089366706088185
0.0102236103266477
0.0115277767181396
0.0128404423594474
0.0141522623598575
0.015446888282895
0.0166976042091846
0.0178677048534154
0.0189077407121658
0.0197478793561458
0.0202929079532623
0.0204291641712188
0.0200428068637847
0.0190411210060119
0.0173741057515144
0.0150539726018905
0.01216378249228
0.0088519165292382
0.0053172456100583
0.0017872876487672
-0.0015106555074453
-0.0043799122795462
-0.0066777835600078
-0.0083269886672496
-0.0093143749982118
-0.0096804164350032
-0.0095066810026764
-0.0089031541720032
-0.0079926941543817
-0.0068975817412137
-0.0057323267683386
-0.0045948419719934
-0.0035540768876671
-0.0026438869535923
-0.0018658880144357
-0.001196433790028
-0.0005962904542684
-2.215895801782608e-05
0.0005642650648951
0.0011928342282772
0.0018857000395655
0.002657369710505
0.0035120560787618
0.0044424296356737
0.0054324325174093
0.006461588665843
0.0075080031529068
0.0085496976971626
0.0095655675977468
0.0105386925861239
0.0114626800641417
0.0123440837487578
0.0131900152191519
0.0139823034405708
0.0146561758592724
0.0150990337133407
0.0151677057147026
0.0147125888615846
0.0136039610952138
0.0117619559168815
0.0091823656111955
0.0059459079056978
0.0022086626850068
-0.0018208480905741
-0.0059096459299325
-0.0098237376660108
-0.0133450347930192
-0.0162901133298873
-0.0185343548655509
-0.0200315713882446
-0.0208155885338783
-0.0209793914109468
-0.0206433217972517
-0.019928865134716
-0.0189449395984411
-0.0177857056260108
-0.0165315940976142
-0.0152442706748843
-0.0139599470421671
-0.0126887504011392
-0.0114167500287294
-0.010106835514307
-0.0087025696411728
-0.0071377689018845
-0.0053514363244175
-0.0033047152683138
-0.0009904541075229
0.0015673283487558
0.004318275488913
0.0071935127489268
0.0101156495511531
0.013008882291615
0.0158086642622947
0.0184663385152816
0.0209474377334117
0.0232281200587749
0.0252902396023273
0.0271134506911039
0.0286635942757129
0.0298810582607984
0.0306746549904346
0.0309244785457849
0.0305006317794322
0.0292959585785865
0.027256766334176
0.0244010873138904
0.0208229403942823
0.016682369634509
0.0121858557686209
0.0075652352534234
0.0030550728552043
-0.0011367560364305
-0.0048555950634181
-0.0080057866871356
-0.0105354646220803
-0.0124195776879787
-0.0136605408042669
-0.0143000576645135
-0.0144177069887518
-0.014114074409008
-0.0134940445423126
-0.0126552283763885
-0.0116810603067278
-0.0106398481875658
-0.0095857819542288
-0.008554246276617
-0.0075525287538766
-0.0065574110485613
-0.0055236150510609
-0.0043949093669652
-0.0031118828337639
-0.0016179957892745
0.0001306445337831
0.0021543656475842
0.0044460394419729
0.0069694737903773
0.0096561070531606
0.0124092046171426
0.0151135213673114
0.0176368877291679
0.0198281668126583
0.0215274803340435
0.0225856564939022
0.0228778943419456
0.0223085172474384
0.0208154208958148
0.0183840543031692
0.0150707019492983
0.0110175311565399
0.0064421407878398
0.0016075614839792
-0.0032125916332006
-0.0077688302844762
-0.0118569023907184
-0.0153126241639256
-0.0179980508983135
-0.0198023598641157
-0.0206561610102653
-0.020548477768898
-0.019544530659914
-0.0178016256541013
-0.0155649278312921
-0.0131225064396858
-0.0107307713478803
-0.0085600344464182
-0.0066961664706468
-0.0051781795918941
-0.0040315529331564
-0.0032818112522363
-0.0029525272548198
-0.0030567329376935
-0.0035904608666896
-0.0045314561575651
-0.0058379387483
-0.0074440948665142
-0.0092580756172537
-0.0111656729131937
-0.0130383502691984
-0.0147460885345935
-0.0161702651530504
-0.0172116514295339
-0.017797140404582
-0.0178898312151432
-0.017502412199974
-0.016709079965949
-0.0156500395387411
-0.0145233506336808
-0.0135625973343849
-0.0130071304738521
-0.0130705144256353
-0.01390599925071
-0.0155729167163372
-0.0180172808468341
-0.021076001226902
-0.0245006494224071
-0.0279911812394857
-0.0312369018793106
-0.0339612737298011
-0.0359550677239894
-0.0370891094207763
-0.0373139530420303
-0.0366526804864406
-0.0351882465183734
-0.0330471917986869
-0.0303824953734874
-0.0273574758321046
-0.0241300221532583
-0.0208382476121187
-0.0175891444087028
-0.0144502753391861
-0.0114468205720186
-0.008565948344767
-0.0057707894593477
-0.0030232453718781
-0.0003020297735929
0.0023972066119313
0.0050728786736726
0.0077239237725734
0.010346470400691
0.0129271121695637
0.0154420472681522
0.0178635865449905
0.0201670322567224
0.0223336797207593
0.0243513975292444
0.0262140948325395
0.0279205050319433
0.0294699016958475
0.0308475345373153
0.0320010110735893
0.0328256487846374
0.0331733971834182
0.032879889011383
0.0317976474761962
0.0298292879015207
0.0269547961652278
0.0232466384768486
0.0188683774322271
0.0140556152909994
0.0090864775702357
0.0042516086250543
-0.0001735240221023
-0.0039526708424091
-0.006905322894454
-0.008917985484004
-0.0099538266658782
-0.0100537184625864
-0.009323002770543
-0.0079115815460681
-0.0059955213218927
-0.0037597846239805
-0.0013806167989969
0.0009887367486953
0.0032265987247228
0.0052476413547992
0.0070056188851594
0.0084937121719121
0.0097403246909379
0.0108010601252317
0.0117513025179505
0.0126747852191329
0.0136426053941249
0.0146971261128783
0.0158519838005304
0.017096733674407
0.0184007212519645
0.0197237804532051
0.0210304111242294
0.0222958773374557
0.0235022623091936
0.02463292889297
0.0256729014217853
0.0266106445342302
0.0274296794086694
0.028089951723814
0.0285111796110868
0.0285687632858753
0.0281056463718414
0.0269609801471233
0.0250112861394882
0.022207386791706
0.0185926742851734
0.0143050830811262
0.0095659997314214
0.0046532177366316
-0.0001361365430057
-0.0045226165093481
-0.0082757752388715
-0.0112344175577163
-0.0133135747164487
-0.0145002212375402
-0.0148423109203577
-0.0144404359161853
-0.0134436078369617
-0.0120374411344528
-0.0104207266122102
-0.0087783504277467
-0.0072564287111163
-0.0059445425868034
-0.0048696785233914
-0.0040018083527684
-0.0032700602896511
-0.0025859964080154
-0.0018644325900822
-0.0010365222115069
-5.801860243082047e-05
0.0010882043279707
0.0023970110341906
0.003845011582598
0.0053900303319096
0.0069741387851536
0.0085334461182355
0.0100099742412567
0.0113602587953209
0.0125574618577957
0.0135894762352108
0.0144567918032407
0.0151684284210205
0.0157320983707904
0.0161381624639034
0.0163423530757427
0.0162550136446952
0.0157418847084045
0.014635813422501
0.0127569045871496
0.0099457744508981
0.0061126314103603
0.0012827450409531
-0.0043881805613636
-0.0106351170688867
-0.0171297676861286
-0.0235326178371906
-0.0295334495604038
-0.0348739549517631
-0.0393582880496978
-0.0428608357906341
-0.045330636203289
-0.0467846728861331
-0.0472891703248024
-0.0469389222562313
-0.0458484217524528
-0.0441553182899951
-0.0420179739594459
-0.0395956896245479
-0.0370222143828868
-0.0343894101679325
-0.0317455343902111
-0.0291036702692508
-0.0264555905014276
-0.0237828195095062
-0.021060537546873
-0.01826005987823
-0.0153546631336212
-0.0123275984078645
-0.009178290143609
-0.0059238723479211
-0.0026004663668572
0.0007328069768846
0.0039976304396986
0.0071155251935124
0.0100298933684825
0.0127146039158105
0.015163354575634
0.0173645205795764
0.0192749202251434
0.0208075363188982
0.0218413267284631
0.0222493074834346
0.021928709000349
0.0208205860108137
0.0189242046326398
0.0163113698363304
0.0131276678293943
0.0095737092196941
0.0058814021758735
0.002292810473591
-0.0009666746482253
-0.0037180199287831
-0.0058446554467082
-0.0072894375771284
-0.0080458894371986
-0.008156195282936
-0.0077121714130043
-0.0068479143083095
-0.0057184705510735
-0.0044697569683194
-0.0032130880281329
-0.0020135669037699
-0.0008917171508073
0.0001704590395092
0.0012247804552316
0.002345023676753
0.0036060698330402
0.0050687408074736
0.006774487439543
0.008740721270442
0.0109560387209057
0.013381578028202
0.0159580595791339
0.0186122842133045
0.0212590657174587
0.0238028019666671
0.0261480268090963
0.0282187815755605
0.0299713872373104
0.0313898101449012
0.0324728414416313
0.0332232154905796
0.0336355119943618
0.0336813405156135
0.0333002284169197
0.0324045345187187
0.0308998934924602
0.0287149939686059
0.0258288718760013
0.0222869180142879
0.0182027705013752
0.0137468604370951
0.0091279856860637
0.0045738914050161
0.0003070924431085
-0.0034829173237085
-0.0066584991291165
-0.0091394260525703
-0.0109010692685842
-0.0119697842746973
-0.0124175371602177
-0.0123556237667799
-0.0119240889325737
-0.0112760290503501
-0.0105620939284563
-0.009917221032083
-0.0094474842771887
-0.0092179533094167
-0.0092427860945463
-0.0094821052625775
-0.0098540978506207
-0.010260010138154
-0.0106072295457124
-0.0108200209215283
-0.0108411619439721
-0.010633373633027
-0.0101821105927228
-0.0094952639192342
-0.0086000841110944
-0.007539892103523
-0.0063685877248644
-0.0051413606852293
-0.0039061652496457
-0.0027009779587388
-0.0015531219542026
-0.0004759114235639
0.0005308892577886
0.0014717588201165
0.0023441147059202
0.0031286906450986
0.0037789698690176
0.0042130537331104
0.0043137315660715
0.003940550610423
0.0029581002891063
0.0012743212282657
-0.0011312309652566
-0.0042010759934782
-0.0078070387244224
-0.011761019937694
-0.0158308129757642
-0.0197638235986232
-0.0233173891901969
-0.0262909326702356
-0.0285488292574882
-0.0300254076719284
-0.0307161845266819
-0.0306659657508134
-0.0299593210220336
-0.028711512684822
-0.0270584225654602
-0.0251463744789361
-0.0231199376285076
-0.0211073160171508
-0.0192088708281517
-0.0174932070076465
-0.0159969236701726
-0.0147208049893379
-0.0136263035237789
-0.012644113972783
-0.0116921719163656
-0.0106902346014976
-0.0095693282783031
-0.0082780914381146
-0.0067841494455933
-0.0050723874010145
-0.0031424115877598
-0.0010051811113953
0.0013193066697567
0.0038003306835889
0.0063927341252565
0.0090368371456861
0.0116645321249961
0.0142100537195801
0.0166164897382259
0.0188303142786026
0.0207919459789991
0.022430058568716
0.0236576963216066
0.0243735257536172
0.024473138153553
0.0238668639212846
0.0224990248680114
0.0203655194491148
0.0175257455557584
0.0141048924997448
0.01028404943645
0.006279844790697
0.0023211077786982
-0.0013695566449314
-0.0045901671983301
-0.007176739629358
-0.0090224519371986
-0.0100888926535844
-0.0104032009840011
-0.0100448299199342
-0.0091306800022721
-0.0078027267009019
-0.0062154978513717
-0.0045200949534773
-0.0028466263320297
-0.001289845444262
9.72985289990902e-05
0.0013002287596464
0.0023361726198345
0.0032499360386282
0.0041038710623979
0.0049579767510294
0.0058534136041998
0.0068087745457887
0.0078240688890218
0.0088869091123342
0.0099783055484294
0.0110753513872623
0.0121520403772592
0.0131815802305936
0.014138888567686
0.0150019377470016
0.0157548561692237
0.0163930021226406
0.0169269852340221
0.0173829048871994
0.0177906174212694
0.0181564316153526
0.0184365194290876
0.0185279585421085
0.0182794481515884
0.0175188593566417
0.0160900391638278
0.0138880414888262
0.0108862463384866
0.0071502653881907
0.002834690734744
-0.001837195828557
-0.006604098714888
-0.0111963413655757
-0.0153589732944965
-0.0188724789768457
-0.0215754378587007
-0.0233840811997652
-0.0242986623197793
-0.024393793195486
-0.0237991083413362
-0.0226783063262701
-0.0212090983986854
-0.0195621475577354
-0.0178815126419067
-0.0162719208747148
-0.0147940535098314
-0.01346674002707
-0.012273870408535
-0.0111733470112085
-0.0101065319031476
-0.0090076550841331
-0.0078157065436244
-0.0064889695495367
-0.0050148060545325
-0.0034088599495589
-0.0017051855102181
5.5821845307946205e-05
0.0018332888139411
0.0035859523341059
0.0052755260840058
0.0068726921454072
0.0083579644560813
0.0097209801897406
0.0109617263078689
0.0120882429182529
0.0131111796945333
0.0140378195792436
0.0148588111624121
0.0155269922688603
0.0159450452774763
0.0159743186086416
0.0154602890834212
0.0142653016373515
0.0123019386082887
0.0095609184354543
0.0061245569959282
0.0021594362333416
-0.002107658656314
-0.0064213015139102
-0.0105281611904501
-0.0141996061429381
-0.0172453485429286
-0.0195248425006866
-0.020959248766303
-0.0215379018336534
-0.0213148035109043
-0.0203974843025207
-0.0189295951277017
-0.0170692224055528
-0.0149711146950721
-0.0127755440771579
-0.0105983112007379
-0.0085227247327566
-0.0065975119359791
-0.0048375730402767
-0.0032274634577333
-0.0017304136417806
-0.0002967854961752
0.0011305278167128
0.0026046419516205
0.0041571417823433
0.0057877572253346
0.0074670761823654
0.0091471914201974
0.0107759581878781
0.0123101193457841
0.0137212574481964
0.0149952843785285
0.0161300562322139
0.0171320345252752
0.018012348562479
0.0187851414084434
0.0194679684937
0.0200792830437421
0.0206276457756757
0.0210899822413921
0.0213880930095911
0.021383861079812
0.0209005791693925
0.0197589062154293
0.017817884683609
0.015014074742794
0.011386246420443
0.0070781228132545
0.0023217750713229
-0.0025934940204024
-0.0073606455698609
-0.0116930026561021
-0.0153527194634079
-0.0181663893163204
-0.0200305040925741
-0.0209165792912244
-0.020878093317151
-0.0200475510209798
-0.0186178870499134
-0.0168134979903697
-0.0148576535284519
-0.0129442261531949
-0.011221332475543
-0.0097867185249924
-0.008688161149621
-0.007925652898848
-0.0074558295309543
-0.0071976212784647
-0.0070409998297691
-0.0068603791296482
-0.0065284110605716
-0.0059326975606381
-0.0049997819587588
-0.0037146317772567
-0.0021226028911769
-0.0003160238265991
0.0015879014972597
0.0034730974584817
0.0052464790642261
0.006848223041743
0.0082516334950923
0.0094570014625787
0.0104820113629102
0.011352377012372
0.012092912569642
0.0127137396484613
0.0131936985999345
0.0134700452908873
0.0134400008246302
0.0129788275808095
0.0119722420349717
0.0103509351611137
0.0081176944077014
0.0053606140427291
0.002247531665489
-0.0009954617125913
-0.0041135670617222
-0.0068553602322936
-0.0090045919641852
-0.0104066040366888
-0.010982840321958
-0.0107318516820669
-0.009720642119646
-0.0080733010545372
-0.0059608882293105
-0.0035860377829521
-0.0011564206797629
0.0011453363113105
0.003183948341757
0.0048814737237989
0.00621620984748
0.007213884498924
0.0079344818368554
0.0084581887349486
0.0088715869933366
0.009253304451704
0.0096639674156904
0.0101453838869929
0.0107234744355082
0.0114061059430241
0.0121777281165122
0.0130020780488848
0.0138331986963748
0.0146229984238743
0.0153238298371434
0.0158931333571672
0.0162997841835021
0.01652717217803
0.016569098457694
0.0164154227823019
0.0160320494323968
0.0153474677354097
0.0142539981752634
0.0126255210489034
0.0103485425934195
0.0073550269007682
0.0036456072703003
-0.000700038857758
-0.0055266660638153
-0.010618882253766
-0.015723705291748
-0.020578034222126
-0.0249370373785495
-0.0285974889993667
-0.0314141139388084
-0.0333086512982845
-0.0342717319726944
-0.0343590155243873
-0.0336810760200023
-0.0323850810527801
-0.030631560832262
-0.0285772122442722
-0.0263678729534149
-0.0241316445171833
-0.0219677351415157
-0.0199376698583364
-0.0180612839758396
-0.0163177661597728
-0.0146563621237874
-0.0130152786150574
-0.0113371666520833
-0.009576803073287
-0.0077079231850802
-0.005730150733143
-0.0036700661294162
-0.0015746225835755
0.0004998348886147
0.0024971265811473
0.0043669026345014
0.0060714930295944
0.0075950906611979
0.008948478847742
0.0101651353761553
0.0112894438207149
0.01235859002918
0.0133778881281614
0.0142951784655451
0.0149893220514059
0.0152823328971862
0.0149732660502195
0.0138838738203048
0.0119030568748712
0.0090190907940268
0.0053282566368579
0.0010185588616877
-0.0036573477555066
-0.0084103746339678
-0.0129455216228961
-0.0169927477836608
-0.0203306544572114
-0.0227987542748451
-0.024301616474986
-0.0248051416128873
-0.0243202149868011
-0.0228830017149448
-0.0205455962568521
-0.0173734854906797
-0.0134421819821
-0.0088303834199905
-0.0036123106256127
0.0021400339901447
0.008336242288351
0.0148235941305756
0.0213273465633392
0.0274224262684583
0.0325913690030574
0.0363595262169837
0.0384398698806762
0.0388230979442596
0.0377859659492969
0.035828374326229
0.0335716381669044
0.0316535532474517
0.0306458715349435
0.0309971868991851
0.0329803265631198
0.0366270914673805
0.0416703559458255
0.0475447103381156
0.0534804053604602
0.0586659908294677
