bvp
0.1404346227645874
0.1234417557716369
0.1049228310585022
0.0856381505727768
0.0663105100393295
0.0475837513804435
0.0299898367375135
0.013920921832323
-0.0003877133131027
-0.0128521956503391
-0.0235116966068744
-0.0324882082641124
-0.0399458743631839
-0.046059001237154
-0.0509908162057399
-0.0548751465976238
-0.0577977485954761
-0.0597863718867301
-0.0608142130076885
-0.0608084648847579
-0.0596508160233497
-0.0571633428335189
-0.0530935451388359
-0.0471262410283088
-0.038937397301197
-0.0282835140824317
-0.015104591846466
0.0003927648067474
0.0177074745297431
0.0360890962183475
0.0546438321471214
0.0724644213914871
0.0887440294027328
0.1028561517596244
0.1144033521413803
0.1232366114854812
0.1294429004192352
0.133305937051773
0.135245218873024
0.1357372999191284
0.1352358162403106
0.1341078579425811
0.1325932294130325
0.1307902038097381
0.1286681145429611
0.1260998845100402
0.1229034438729286
0.1188834309577941
0.1138679608702659
0.1077354550361633
0.1004286110401153
0.0919581204652786
0.0824003964662551
0.0718931779265403
0.0606283992528915
0.0488363690674304
0.036764595657587
0.0246643833816051
0.0127847362309694
0.0013607288710772
-0.0094055999070405
-0.019361475482583
-0.0284088235348463
-0.0364990383386611
-0.0436206310987472
-0.0497853122651577
-0.0550198704004287
-0.0593671053647995
-0.0628935843706131
-0.065698929131031
-0.0679224506020546
-0.0697439238429069
-0.0713721364736557
-0.0730200260877609
-0.0748790800571441
-0.0771035924553871
-0.0798022374510765
-0.083030492067337
-0.0867792889475822
-0.0909609720110893
-0.0954039618372917
-0.099866434931755
-0.1040673702955246
-0.107724905014038
-0.1105895638465881
-0.112465776503086
-0.1132242158055305
-0.1128070056438446
-0.111221432685852
-0.1085226684808731
-0.1047963947057724
-0.1001495346426963
-0.0947088599205017
-0.0886241942644119
-0.0820710361003875
-0.0752458721399307
-0.068350076675415
-0.061563916504383
-0.055018238723278
-0.0487734153866767
-0.0428099483251571
-0.0370318368077278
-0.0312853679060936
-0.0253906399011611
-0.0191717743873596
-0.0124764889478683
-0.0051891729235649
0.0027586221694946
0.0113826692104339
0.020649217069149
0.0304856449365615
0.0407937914133071
0.0514624565839767
0.0623760558664798
0.0734152346849441
0.0844469666481018
0.0953071415424346
0.1057849153876304
0.1156195923686027
0.1245154738426208
0.132174402475357
0.1383391767740249
0.1428367793560028
0.1456110179424286
0.1467344313859939
0.1463940590620041
0.1448601931333542
0.1424536108970642
0.1395152509212494
0.1363734006881714
0.1333082616329193
0.1305201947689056
0.1281088292598724
0.1260653585195541
0.1242750436067581
0.1225323006510734
0.1205706894397735
0.1180991232395172
0.1148347929120063
0.1105295494198799
0.1049916446208953
0.0981057286262512
0.0898491665720939
0.0803018659353256
0.0696478709578514
0.0581632852554321
0.0461886897683143
0.0340923778712749
0.0222317054867744
0.0109174624085426
0.0003834441304206
-0.0092360265552997
-0.0179110672324895
-0.0256981346756219
-0.0327069759368896
-0.0390643216669559
-0.0448840595781803
-0.0502516627311706
-0.0552221089601516
-0.0598258413374424
-0.0640794709324836
-0.0679979845881462
-0.0716054812073707
-0.0749425590038299
-0.0780680030584335
-0.0810524672269821
-0.0839683264493942
-0.0868817418813705
-0.089843064546585
-0.0928740352392196
-0.0959637463092804
-0.0990811288356781
-0.1021903902292251
-0.1052515506744384
-0.108209028840065
-0.1109823510050773
-0.1134625077247619
-0.1155098527669906
-0.1169498711824417
-0.1175678595900535
-0.1171140372753143
-0.1153308749198913
-0.1120008081197738
-0.1069977283477783
-0.1003213003277778
-0.0921075791120529
-0.0826221704483032
-0.072236880660057
-0.0613888464868068
-0.0505277998745441
-0.0400585643947124
-0.030289489775896
-0.0214011687785387
-0.0134421279653906
-0.006350259296596
6.709247827529907e-06
0.0057869767770171
0.0111369993537664
0.0161562375724315
0.0208677388727664
0.0252118073403835
0.0290668569505214
0.0322834998369216
0.0347191579639911
0.0362677164375782
0.0368808358907699
0.036576047539711
0.0354306139051914
0.0335685536265373
0.0311488062143325
0.0283544212579727
0.0253803450614213
0.0224225670099258
0.0196684803813695
0.0172779150307178
0.0153518877923488
0.0139062292873859
0.0128670446574687
0.0120884170755743
0.0113841062411665
0.0105631640180945
0.0094611188396811
0.0079626021906733
0.006012646947056
0.0036139781586825
0.0008087106980383
-0.0023502218537032
-0.0058229253627359
-0.0095895882695913
-0.0136412559077143
-0.0179629083722829
-0.0225177705287933
-0.0272372346371412
-0.0320140272378921
-0.0366966724395751
-0.0410916991531848
-0.0449815206229686
-0.0481565669178962
-0.0504505261778831
-0.0517676323652267
-0.0520979352295398
-0.0515198074281215
-0.0501876436173915
-0.0483053810894489
-0.0460940115153789
-0.0437627546489238
-0.0414907522499561
-0.0394223108887672
-0.0376677364110946
-0.0362981781363487
-0.0353349484503269
-0.0347388908267021
-0.0344042107462883
-0.0341678783297538
-0.0338404662907123
-0.0332484915852546
-0.0322809964418411
-0.0309347212314605
-0.0293302536010742
-0.0276744738221168
-0.0261855274438858
-0.0250142216682434
-0.0241817757487297
-0.0235457941889762
-0.0228098854422569
-0.0215862914919853
-0.0194880962371826
-0.0162063390016555
-0.0115532651543617
-0.0054835975170135
0.0018939077854156
0.0103139653801918
0.0193681940436363
0.0285422950983047
0.0372764468193054
0.0450370050966739
0.0513815470039844
0.0560038611292839
0.0587526485323905
0.0596231780946254
0.0587335564196109
0.0563058704137802
0.0526604801416397
0.0482069477438926
0.0434101447463035
0.0387340262532234
0.0345821678638458
0.0312495455145835
0.0288941338658332
0.0275295376777648
0.0270363017916679
0.0271953493356704
0.0277413725852966
0.0284211337566375
0.0290418714284896
0.0295031890273094
0.0298079699277877
0.0300495699048042
0.0303814634680748
0.0309776365756988
0.0319893956184387
0.0335106551647186
0.0355628952383995
0.0381006449460983
0.0410347133874893
0.0442689731717109
0.0477417707443237
0.0514569133520126
0.0554906837642192
0.0599745064973831
0.0650600343942642
0.0708753615617752
0.0774848237633705
0.0848583281040191
0.0928452238440513
0.1011564880609512
0.1093734502792358
0.1169874295592308
0.123448759317398
0.128213420510292
0.1308016926050186
0.130872756242752
0.1282913982868194
0.1231587380170822
0.1157968491315841
0.1066954582929611
0.0964349508285522
0.0856031402945518
0.0747247189283371
0.0642139911651611
0.0543508231639862
0.0452766232192516
0.0370105877518653
0.029481740668416
0.0225663036108016
0.0161246471107006
0.0100348629057407
0.0042184023186564
-0.0013439387548714
-0.0066075334325432
-0.0114741502329707
-0.0158158112317323
-0.0195093248039484
-0.0224752034991979
-0.0247056242078542
-0.0262691099196672
-0.0272935461252927
-0.0279363505542278
-0.0283510144799947
-0.0286596361547708
-0.0289404559880495
-0.0292309112846851
-0.0295357294380664
-0.0298301950097084
-0.0300582945346832
-0.0301336236298084
-0.0299514736980199
-0.0294149480760097
-0.0284748654812574
-0.027178144082427
-0.0257057305425405
-0.0243748240172863
-0.0235943906009197
-0.023785438388586
-0.0252903811633586
-0.0282974317669868
-0.0327987112104892
-0.0385875962674617
-0.045292392373085
-0.0524390190839767
-0.0595251247286796
-0.0660855397582054
-0.071740873157978
-0.0762289389967918
-0.0794217213988304
-0.0813287496566772
-0.0820806697010994
-0.0818935185670852
-0.0810245424509048
-0.0797285214066505
-0.0782210603356361
-0.0766537189483642
-0.075103685259819
-0.0735791698098182
-0.0720364078879356
-0.0704002380371093
-0.0685847625136375
-0.0665114820003509
-0.0641208067536354
-0.0613782703876495
-0.058278888463974
-0.0548494756221771
-0.0511479936540126
-0.0472586005926132
-0.043282177299261
-0.0393280759453773
-0.0355132967233657
-0.0319663323462009
-0.0288269221782684
-0.0262354277074337
-0.0243122242391109
-0.0231335163116455
-0.0227122642099857
-0.0229888781905174
-0.0238303989171981
-0.0250383596867322
-0.026371793821454
-0.0275835115462541
-0.0284527298063039
-0.0288042351603508
-0.0285176485776901
-0.0275294296443462
-0.0258301496505737
-0.0234616659581661
-0.0205128788948059
-0.0171095822006464
-0.0134007157757878
-0.0095450431108474
-0.0056956494227051
-0.001981243956834
0.0015097390860319
0.0047367019578814
0.0077033089473843
0.010445661842823
0.0130209373310208
0.0154968500137329
0.0179375112056732
0.0203907173126935
0.0228823721408844
0.0254164282232522
0.0279779322445392
0.030538436025381
0.0330609567463398
0.035501979291439
0.0378148071467876
0.039957296103239
0.041896853595972
0.0436052307486534
0.0450427457690238
0.0461397692561149
0.0467911213636398
0.0468722134828567
0.0462677627801895
0.0448996797204017
0.0427496843039989
0.0398735255002975
0.0364018902182579
0.0325289517641067
0.0284917242825031
0.024541687220335
0.0209149681031703
0.017808511853218
0.015365052036941
0.01366563513875
0.0127251893281936
0.0124925877898931
0.0128615517169237
0.0136882932856678
0.0148087963461875
0.0160564705729484
0.0172797627747058
0.0183571279048919
0.0192083548754453
0.0197990350425243
0.0201364308595657
0.0202606674283742
0.0202350709587335
0.0201361663639545
0.0200426056981086
0.0200226344168186
0.020121406763792
0.0203521829098463
0.020696397870779
0.0211130287498235
0.0215509738773107
0.0219585038721561
0.0222890377044677
0.0225058943033218
0.0225854944437742
0.0225125886499881
0.0222658738493919
0.0218037962913513
0.0210608448833227
0.0199559461325407
0.0184102971106767
0.0163688287138938
0.0138150919228792
0.010775739327073
0.0073199570178985
0.0035573076456785
-0.0003679040819406
-0.0042886156588792
-0.0080316569656133
-0.0114334840327501
-0.0143537390977144
-0.016687786206603
-0.0183759108185768
-0.0194076783955097
-0.0198216699063777
-0.0197002552449703
-0.0191591084003448
-0.0183313935995101
-0.0173520296812057
-0.016347698867321
-0.0154280290007591
-0.0146746523678302
-0.0141330510377883
-0.0138103421777486
-0.0136780645698308
-0.0136781893670558
-0.0137321054935455
-0.0137534476816654
-0.0136632602661848
-0.013402858749032
-0.012941000983119
-0.0122763123363256
-0.0114341489970684
-0.0104557946324348
-0.0093864873051643
-0.0082695763558149
-0.0071426052600145
-0.0060284696519374
-0.0049245133996009
-0.0037982296198606
-0.0025885961949825
-0.0012020580470561
0.0004959888756275
0.0026762299239635
0.0055164396762847
0.0091575905680656
0.0136662870645523
0.0190258771181106
0.025159616023302
0.0319607593119144
0.0392991825938224
0.0469997711479663
0.0548152178525924
0.0624146275222301
0.0693904310464859
0.0752813518047332
0.0796188116073608
0.0820037871599197
0.0822001248598098
0.0802062079310417
0.0762695968151092
0.0708440691232681
0.0645159408450126
0.0579249709844589
0.0516931936144828
0.046364776790142
0.042352870106697
0.0398925170302391
0.0390082672238349
0.0395073369145393
0.041004404425621
0.042976826429367
0.0448409393429756
0.0460339561104774
0.0460838973522186
0.0446550101041793
0.041565716266632
0.0367846935987472
0.0304120630025863
0.0226502269506454
0.0137695223093032
0.0040746331214904
-0.0061319172382354
-0.0165928900241851
-0.0271301120519638
-0.0376523658633232
-0.0481398999691009
-0.0586139187216758
-0.069099485874176
-0.0795939415693283
-0.090048998594284
-0.1003689169883728
-0.110423594713211
-0.1200679689645767
-0.12915800511837
-0.1375615894794464
-0.145164743065834
-0.1518751233816146
-0.1576298326253891
-0.1624062955379486
-0.1662223637104034
-0.1691246032714843
-0.171174868941307
-0.1724387258291244
-0.1729760020971298
-0.1728360056877136
-0.1720570176839828
-0.1706672608852386
-0.1686851680278778
-0.1661194562911987
-0.162971094250679
-0.1592383384704589
-0.1549220830202102
-0.1500278711318969
-0.144566461443901
-0.1385573595762252
-0.1320338398218155
-0.1250455975532531
-0.1176583170890808
-0.1099495962262153
-0.1020014807581901
-0.093893364071846
-0.08569897711277
-0.077489323914051
-0.0693404302000999
-0.061339184641838
-0.0535822696983814
-0.0461682602763175
-0.0391824468970298
-0.0326769053936004
-0.0266565419733524
-0.0210803598165512
-0.0158726051449775
-0.010933943092823
-0.0061516538262367
-0.001410387456417
0.0033974647521972
0.0083625093102455
0.0135517045855522
0.0190055295825004
0.0247389152646064
0.0307442173361778
0.0369929671287536
0.0434369817376136
0.0500109121203422
0.0566373765468597
0.0632324144244194
0.0697083994746208
0.0759780183434486
0.0819627121090889
0.087600752711296
0.0928513556718826
0.0976960659027099
0.1021390333771705
0.1062049344182014
0.109932504594326
0.1133648455142974
0.1165408119559288
0.1194891035556793
0.1222261190414428
0.1247585192322731
0.1270867437124252
0.129202514886856
0.1310827732086181
0.1326891034841537
0.1339728534221649
0.1348787248134613
0.1353455185890197
0.1353088617324829
0.1347084939479828
0.1334978640079498
0.1316537111997604
0.1291836947202682
0.1261311918497085
0.1225780546665191
0.1186415702104568
0.1144628897309303
0.1101913452148437
0.1059665381908416
0.1018986403942108
0.0980559960007667
0.0944659113883972
0.0911231413483619
0.0879985615611076
0.0850450992584228
0.082203134894371
0.0794089138507843
0.0766041055321693
0.0737426728010177
0.0707947090268135
0.0677477568387985
0.0646053850650787
0.0613844618201255
0.0581132322549819
0.0548276379704475
0.0515632592141628
0.0483470857143402
0.0451926961541175
0.04209915548563
0.0390550233423709
0.036045778542757
0.0330597683787345
0.0300899166613817
0.027132736518979
0.0241879057139158
0.0212584789842367
0.0183490719646215
0.0154603533446788
0.0125816389918327
0.0096869720146059
0.0067349625751376
0.0036691618151962
0.0004254365339875
-0.0030493848025798
-0.0067782923579216
-0.0107445502653718
-0.0148925241082906
-0.0191359631717205
-0.0233701653778553
-0.0274849273264408
-0.0313754417002201
-0.0349487662315368
-0.0381280407309532
-0.0408583916723728
-0.0431116670370101
-0.0448873490095138
-0.0462138019502162
-0.0471485294401645
-0.0477716848254203
-0.0481754653155803
-0.0484527722001075
-0.0486846305429935
-0.0489307567477226
-0.0492266938090324
-0.0495835728943347
-0.0499886125326156
-0.0504092238843441
-0.0508007407188415
-0.0511147528886795
-0.0513056851923465
-0.0513351410627365
-0.0511749163269996
-0.0508113168179988
-0.0502513907849788
-0.0495254024863243
-0.0486816242337226
-0.047779157757759
-0.0468838773667812
-0.046065978705883
-0.0453968718647956
-0.0449451133608818
-0.0447728931903839
-0.0449333414435386
-0.0454654470086097
-0.046385258436203
-0.0476760454475879
-0.0492807999253273
-0.0511016584932804
-0.0530112534761428
-0.0548725761473178
-0.0565551854670047
-0.0579433590173721
-0.0589424781501293
-0.0594870261847972
-0.0595465041697025
-0.0591258145868778
-0.0582596994936466
-0.0570024400949478
-0.0554163083434104
-0.0535618588328361
-0.051491379737854
-0.049245536327362
-0.0468506217002868
-0.0443150252103805
-0.0416319109499454
-0.0387935787439346
-0.0358072258532047
-0.0327003747224807
-0.0295175742357969
-0.026314890012145
-0.0231543313711881
-0.0200967136770486
-0.0171938575804233
-0.0144845359027385
-0.0119955353438854
-0.0097440546378493
-0.00773700280115
-0.0059671271592378
-0.0044095208868384
-0.0030230628326535
-0.0017628034111112
-0.0006022248417139
0.0004496807232499
0.0013485429808497
0.0020301933400332
0.0024383296258747
0.0025627806317061
0.002477885922417
0.002361049875617
0.0024769925512373
0.003129051066935
0.0045903814025223
0.0070358053781092
0.0104991579428315
0.0148685351014137
0.0199167691171169
0.0253585055470466
0.0309195704758167
0.0364069081842899
0.0417706556618213
0.047141708433628
0.0528318397700786
0.0593040436506271
0.0671283900737762
0.0769234001636505
0.0892703458666801
0.1045981049537658
0.1230630129575729
0.1444654166698455
0.1682295948266983
0.1934434175491333
0.2189429700374603
0.243424504995346
0.265560895204544
0.2841121256351471
0.2980300784111023
0.3065494298934936
0.3092430233955383
0.306025743484497
0.2971101999282837
0.2829365134239197
0.2641092538833618
0.241360530257225
0.2155245095491409
0.1874937713146209
0.1581469476222992
0.1282616704702377
0.0984455943107605
0.0691105425357818
0.0404888093471527
0.0126759558916091
-0.0143130272626876
-0.0404872000217437
-0.065833956003189
-0.0902932733297348
-0.11375143378973
-0.1360453367233276
-0.1569757759571075
-0.176332950592041
-0.1939260065555572
-0.2096092998981475
-0.2233071327209472
-0.2350334674119949
-0.244899570941925
-0.2531045377254486
-0.2599020898342132
-0.2655445039272308
-0.2702237665653229
-0.274037629365921
-0.2769907712936401
-0.2790211737155914
-0.2800353169441223
-0.2799394130706787
-0.2786633372306824
-0.2761770486831665
-0.272497147321701
-0.2676838934421539
-0.2618350088596344
-0.2550771534442901
-0.2475525438785553
-0.2394047081470489
-0.2307694852352142
-0.2217726111412048
-0.2125322669744491
-0.2031631171703338
-0.1937765479087829
-0.1844737827777862
-0.1753369718790054
-0.1664275527000427
-0.1577869951725006
-0.1494261026382446
-0.1413059830665588
-0.1333265155553817
-0.125336542725563
-0.117170512676239
-0.1086862757802009
-0.0997689962387085
-0.0903064757585525
-0.0801685452461242
-0.0692103654146194
-0.0573028586804866
-0.0443837419152259
-0.0305138081312179
-0.0159174501895904
-0.0009933188557624
0.0137080401182174
0.0275375582277774
0.0398271232843399
0.0499827191233634
0.0575690455734729
0.062361691147089
0.0643523707985878
0.0637037009000778
0.0606707111001014
0.055540882050991
0.0486415699124336
0.0404019728302955
0.0314057990908622
0.0223854333162307
0.0141519159078598
0.0074813812971115
0.0029946267604827
0.0010702610015869
0.0018104612827301
0.0050529390573501
0.010421484708786
0.0174079537391662
0.0254637897014617
0.0340749323368072
0.0428100973367691
0.051343098282814
0.0594511777162551
0.0669968575239181
0.0739068984985351
0.0801568925380706
0.0857606679201126
0.0907611399888992
0.0952240824699401
0.0992372184991836
0.1029119491577148
0.106385663151741
0.1098244339227676
0.1134222596883773
0.117396742105484
0.121984526515007
0.1274319589138031
0.1339694261550903
0.1417645215988159
0.1508715450763702
0.1612129062414169
0.172613650560379
0.1848721355199813
0.1978300511837005
0.2114133387804031
0.2256272733211517
0.2405092418193817
0.2560610771179199
0.2721834778785705
0.2886318564414978
0.30500328540802
0.3207429349422455
0.3351603746414184
0.347467839717865
0.3568523526191711
0.3625750243663788
0.3640758693218231
0.3610537052154541
0.3534960746765136
0.3416601419448852
0.3260172605514526
0.3071802258491516
0.2858365178108215
0.2626990973949432
0.2384712994098663
0.2138182371854782
0.1893335580825805
0.1654985249042511
0.142650157213211
0.1209732294082641
0.1005111113190651
0.0811884701251983
0.0628498643636703
0.0453112088143825
0.028408944606781
0.0120342224836349
-0.0038559585809707
-0.0192487612366676
-0.0340916439890861
-0.0483060032129287
-0.0618034675717353
-0.0745025351643562
-0.0863386839628219
-0.0972769930958747
-0.1073318123817443
-0.1165745854377746
-0.1251162588596344
-0.1330723017454147
-0.1405239701271057
-0.1474894285202026
-0.1539175510406494
-0.1597047448158264
-0.1647243499755859
-0.1688564717769622
-0.1720080971717834
-0.1741237789392471
-0.1751928627490997
-0.1752525269985199
-0.1743836849927902
-0.1727053821086883
-0.1703725159168243
-0.1675684005022049
-0.1644867062568664
-0.1613118350505828
-0.1582071334123611
-0.1553149968385696
-0.152767613530159
-0.1507012248039245
-0.1492651849985122
-0.1486251950263977
-0.1489636003971099
-0.1504687368869781
-0.1533044576644897
-0.1575668007135391
-0.1632435470819473
-0.1701943129301071
-0.1781607270240783
-0.186797946691513
-0.1957118511199951
-0.2044939547777176
-0.2127515971660614
-0.2201281487941742
-0.2263114750385284
-0.231040209531784
-0.2341165840625763
-0.2354246377944946
-0.2349462658166885
-0.2327653616666793
-0.2290538251399994
-0.2240411937236786
-0.2179759293794632
-0.211093857884407
-0.2036015093326568
-0.1956683546304702
-0.187422513961792
-0.1789477467536926
-0.1702803969383239
-0.1614095270633697
-0.1522824764251709
-0.1428182274103164
-0.1329292804002761
-0.1225449293851852
-0.1116254776716232
-0.1001650914549827
-0.0881892442703247
-0.0757526457309722
-0.0629371702671051
-0.0498514249920845
-0.0366341918706893
-0.0234537050127983
-0.0104933083057403
0.0020730271935462
0.0141010656952857
0.0254836305975914
0.0361486971378326
0.0460538119077682
0.0551788657903671
0.0635181069374084
0.0710729286074638
0.077848844230175
0.0838598161935806
0.0891401469707489
0.0937592312693595
0.0978266894817352
0.1014817133545875
0.1048740595579147
0.1081428155303001
0.1113964468240737
0.1147023439407348
0.1180899813771247
0.1215611398220062
0.1250960677862167
0.1286538541316986
0.1321727782487869
0.1355731636285781
0.138762816786766
0.1416479796171188
0.1441500037908554
0.1462216824293136
0.1478544622659683
0.1490758806467056
0.1499464213848114
0.1505585014820099
0.1510288119316101
0.1514808982610702
0.1520268023014068
0.1527565121650695
0.1537326425313949
0.1549830883741378
0.156489610671997
0.1581771969795227
0.1599135100841522
0.1615219265222549
0.1628031432628631
0.1635587811470031
0.1636091321706771
0.1627994775772094
0.1610005646944046
0.1581106036901474
0.154057428240776
0.1487997621297836
0.1423342078924179
0.1347062736749649
0.1260150372982025
0.1164100617170333
0.1060844883322715
0.095264047384262
0.084193930029869
0.0731268301606178
0.0623117685317993
0.0519806891679763
0.0423301570117473
0.0335011519491672
0.0255670249462127
0.0185366086661815
0.0123693980276584
0.0069937855005264
0.0023220106959342
-0.0017389096319675
-0.0052782483398914
-0.008372712880373
-0.0110805183649063
-0.0134420655667781
-0.0154847577214241
-0.0172282829880714
-0.0186878517270088
-0.0198737196624279
-0.0207903590053319
-0.0214354861527681
-0.0217925738543272
-0.0218167100101709
-0.0214202497154474
-0.0204621236771345
-0.0187415815889835
-0.0159991197288036
-0.0119308633729815
-0.0062268218025565
0.001358811976388
0.0109207350760698
0.0223366003483533
0.0352519266307354
0.0491217710077762
0.0632901191711425
0.0770751237869262
0.0898429900407791
0.1010687053203582
0.1103760749101638
0.1175445616245269
0.1224824413657188
0.1251863241195678
0.1257122755050659
0.1241588294506073
0.1206444725394249
0.1152809411287307
0.1081612631678581
0.0993668809533119
0.0889855176210403
0.0771354883909225
0.0639868527650833
0.0497637540102005
0.0347290337085723
0.0191728770732879
0.0034172683954238
-0.0121786892414093
-0.0272357612848281
-0.0413979291915893
-0.0543822944164276
-0.066011756658554
-0.0762229710817337
-0.0850560441613197
-0.0926328599452972
-0.0991286262869834
-0.1047431603074073
-0.1096761524677276
-0.1141061335802078
-0.1181787326931953
-0.1220076978206634
-0.1256809383630752
-0.1292663514614105
-0.1328150629997253
-0.136357307434082
-0.1398940682411193
-0.1433940082788467
-0.14680115878582
-0.1500511169433593
-0.1530859470367431
-0.1558618545532226
-0.1583534181118011
-0.160556674003601
-0.1624848842620849
-0.1641543358564376
-0.165570929646492
-0.1667253077030182
-0.1675894856452942
-0.1681114137172699
-0.1682157516479492
-0.1678171455860138
-0.1668395847082138
-0.1652297228574752
-0.1629599183797836
-0.160027801990509
-0.1564591377973556
-0.1523113995790481
-0.1476727128028869
-0.1426566690206527
-0.1373941153287887
-0.1320250928401947
-0.1267001032829284
-0.1215915530920028
-0.1168984398245811
-0.1128271073102951
-0.1095552891492843
-0.1072066128253936
-0.1058485135436058
-0.1054960414767265
-0.1060990169644355
-0.1075151115655899
-0.1094926074147224
-0.111681044101715
-0.1136687695980072
-0.1150359660387039
-0.1154095530509948
-0.1145109757781028
-0.1121893972158432
-0.1084271445870399
-0.1033120602369308
-0.0969932973384857
-0.0896427631378173
-0.0814343467354774
-0.0725453495979309
-0.0631744861602783
-0.0535603277385234
-0.0439822897315025
-0.0347362384200096
-0.0260927751660347
-0.0182554721832275
-0.0113306120038032
-0.0053113624453544
-7.871538400650024e-05
0.0045780092477798
0.0089268907904624
0.0132579430937767
0.0178515762090683
0.0229474231600761
0.0287126079201698
0.0352160111069679
0.0424183011054992
0.0501834526658058
0.0583069920539855
0.0665504932403564
0.0746745765209198
0.082469530403614
0.0897866263985633
0.0965724736452102
0.1028979569673538
0.1089632511138916
0.1150756999850273
0.121610589325428
0.128955602645874
0.1374427378177642
0.1472850143909454
0.1585319340229034
0.17105033993721
0.1845323145389557
0.1985248625278473
0.2124748229980468
0.2257803976535797
0.2378396838903427
0.2480908036231994
0.2560432851314544
0.2613058388233185
0.2636125385761261
0.2628400325775146
0.2590141296386719
0.2523083388805389
0.2430268973112106
0.2315665781497955
0.2183717191219329
0.2039008140563964
0.1886055320501327
0.1729145348072052
0.1572174131870269
0.1418478190898895
0.1270678043365478
0.1130572706460952
0.0999142006039619
0.0876658856868743
0.0762788131833076
0.065661609172821
0.0556712225079536
0.0461290255188941
0.0368458032608032
0.027654318138957
0.018442329019308
0.0091758668422698
-9.002909064292908e-05
-0.0092132091522216
-0.0179796665906906
-0.0261252354830503
-0.0333516523241996
-0.0393290854990482
-0.0436922907829284
-0.0460579544305801
-0.0460839346051216
-0.0435513816773891
-0.0384311191737651
-0.0309143047779798
-0.0214078109711408
-0.010503439232707
0.0010675911325961
0.01248883549124
0.0229231901466846
0.0315897017717361
0.0378456301987171
0.0412597879767417
0.0416623875498771
0.0391557700932025
0.0340787470340728
0.0269377194344997
0.0183262377977371
0.0088490955531597
-0.0009363591670989
-0.0105569623410701
-0.0196455642580986
-0.027954239398241
-0.0353561826050281
-0.0418337062001228
-0.0474565550684928
-0.0523540824651718
-0.0566832646727561
-0.0605989843606948
-0.0642329826951026
-0.0676823854446411
-0.0710034370422363
-0.0742088332772255
-0.0772761702537536
-0.0801684409379959
-0.0828522145748138
-0.0853028371930122
-0.0874995365738868
-0.0894190147519111
-0.0910328105092048
-0.0923070013523101
-0.0932034403085708
-0.093684621155262
-0.0937221273779869
-0.0933062955737114
-0.0924539640545845
-0.0912108123302459
-0.0896452441811561
-0.0878324508666992
-0.0858343839645385
-0.0836834758520126
-0.0813732966780662
-0.0788609385490417
-0.0760854631662368
-0.0729997754096984
-0.0696057081222534
-0.065977968275547
-0.0622685030102729
-0.0586911141872406
-0.0554898157715797
-0.0528978146612644
-0.0510947704315185
-0.0501714758574962
-0.0501117818057537
-0.0507985055446624
-0.0520434975624084
-0.053629957139492
-0.0553462505340576
-0.0570024847984313
-0.0584396012127399
-0.0595366656780242
-0.060211431235075
-0.0604131966829299
-0.060110405087471
-0.0592757724225521
-0.0578749515116214
-0.0558637902140617
-0.053195372223854
-0.0498316325247287
-0.0457485318183898
-0.0409315377473831
-0.0353750698268413
-0.0290952753275632
-0.0221431348472833
-0.0145979346707463
-0.0065363459289073
0.0020005786791443
0.011006373912096
0.0204689335078001
0.030325274914503
0.0404340922832489
0.0505608431994915
0.060377299785614
0.069486990571022
0.0774726048111915
0.0839496403932571
0.0886127576231956
0.0912631973624229
0.0918117463588714
0.09026600420475
0.0867170095443725
0.0813324004411697
0.0743536204099655
0.0660906583070755
0.0569086596369743
0.0472050234675407
0.0373803898692131
0.0278095267713069
0.0188148133456707
0.0106425210833549
0.0034455405548214
-0.0027196574956178
-0.0078797973692417
-0.0121260769665241
-0.0155964773148298
-0.0184508208185434
-0.0208382532000541
-0.0228699874132871
-0.0246053971350193
-0.0260512195527553
-0.0271687433123588
-0.0278847739100456
-0.0281068347394466
-0.027741951867938
-0.0267159342765808
-0.0249896198511123
-0.0225683636963367
-0.0195048078894615
-0.0158970765769481
-0.0118839740753173
-0.0076380930840969
-0.0033546537160873
0.0007660500705242
0.0045412853360176
0.0078318379819393
0.0105653367936611
0.012744378298521
0.0144343711435794
0.0157411955296993
0.0167906936258077
0.0177122317254543
0.0186215676367282
0.0196007341146469
0.020682256668806
0.0218457952141761
0.0230253972113132
0.0241242479532957
0.0250388327986001
0.0256888847798109
0.0260405912995338
0.0261127930134534
0.0259669981896877
0.0256878659129142
0.0253598224371671
0.0250452272593975
0.0247694235295057
0.024518247693777
0.0242504402995109
0.0239190813153982
0.0234935991466045
0.0229737740010023
0.0223875399678945
0.0217761006206274
0.0211790483444929
0.0206269267946481
0.0201420933008193
0.0197452083230018
0.0194618422538042
0.0193230025470256
0.0193566288799047
0.0195738952606916
0.0199574790894985
0.0204568076878786
0.0209902878850698
0.0214533507823944
0.0217366516590118
0.0217561647295951
0.0214834064245224
0.0209612250328063
0.020299868658185
0.0196557790040969
0.0192016139626503
0.0190973635762929
0.0194670408964157
0.0203816965222358
0.0218515358865261
0.0238298028707504
0.0262221209704875
0.028895391151309
0.031690314412117
0.0344401933252811
0.0369969196617603
0.0392562039196491
0.0411607399582862
0.0426774621009826
0.0437695458531379
0.0443803258240222
0.0444302558898925
0.0438222736120224
0.0424549952149391
0.0402417369186878
0.0371287763118743
0.033109076321125
0.0282316990196704
0.0226060859858989
0.0163981579244136
0.009815851226449
0.0030855685472488
-0.0035754144191741
-0.0099853780120611
-0.0160168744623661
-0.0215983539819717
-0.0266947001218795
-0.0312759801745414
-0.0352946259081363
-0.0386866964399814
-0.0413915328681468
-0.0433707013726234
-0.0446162447333335
-0.0451535023748874
-0.0450443588197231
-0.044387012720108
-0.0433090217411518
-0.0419560745358467
-0.0404782444238662
-0.0390174612402915
-0.0376994013786315
-0.0366257354617118
-0.0358669236302375
-0.035460989922285
-0.0354190692305564
-0.0357358008623123
-0.0363988429307937
-0.0373897179961204
-0.0386757217347621
-0.0402018502354621
-0.0418892353773117
-0.0436380505561828
-0.0453306101262569
-0.0468286797404289
-0.047962300479412
-0.0485219582915306
-0.048267588019371
-0.0469495765864849
-0.0443330556154251
-0.0402311496436595
-0.0345439054071903
-0.0272864084690809
-0.0186020601540803
-0.0087594529613852
0.0018704840913414
0.0128473620861768
0.0236967299133539
0.0339483022689819
0.0431702844798564
0.0509902462363243
0.0571011565625667
0.0612564086914062
0.0632620081305503
0.062980443239212
0.0603566765785217
0.055459976196289
0.0485205017030239
0.0399362854659557
0.0302388686686754
0.0200263578444719
0.0098875928670167
0.0003390070050954
-0.0082179028540849
-0.015518095344305
-0.0214335247874259
-0.0259546041488647
-0.0291608106344938
-0.0311961323022842
-0.0322565510869026
-0.0325769297778606
-0.0324079766869545
-0.0319923385977745
-0.0315490551292896
-0.0312655791640281
-0.0312931649386882
-0.0317406877875328
-0.0326649621129035
-0.0340629816055297
-0.0358716063201427
-0.0379726253449916
-0.0402014479041099
-0.0423626415431499
-0.0442540273070335
-0.04569673538208
-0.0465618073940277
-0.0467820651829242
-0.0463477447628974
-0.0452928468585014
-0.0436803176999092
-0.0415915101766586
-0.039118219166994
-0.036354724317789
-0.0333943478763103
-0.0303312726318836
-0.0272582955658435
-0.0242542047053575
-0.0213669911026954
-0.0186035726219415
-0.0159288328140974
-0.0132729057222604
-0.0105462372303009
-0.0076584424823522
-0.0045355577021837
-0.0011299103498458
0.0025820173323154
0.0066143795847892
0.0109924580901861
0.0157605409622192
0.0209635458886623
0.0266112759709358
0.0326475948095321
0.0389425568282604
0.0453058928251266
0.0515020787715911
0.0572623088955879
0.062304712831974
0.0663619861006736
0.0692145526409149
0.0707282274961471
0.0708799660205841
0.0697591826319694
0.0675506442785263
0.0645074248313903
0.0609152726829052
0.0570537038147449
0.0531634539365768
0.0494243875145912
0.0459458455443382
0.0427719131112098
0.0399005860090255
0.0373097509145736
0.0349799469113349
0.0329113900661468
0.0311383046209812
0.0297352727502584
0.0288083925843238
0.0284764170646667
0.0288489647209644
0.0300006829202175
0.0319417268037796
0.0345894284546375
0.0377464853227138
0.0410941131412982
0.0442118681967258
0.0466341450810432
0.0479395687580108
0.0478447005152702
0.0462639555335044
0.0433198437094688
0.0393123961985111
0.0346619263291358
0.0298381727188825
0.0252890139818191
0.0213804841041564
0.0183527879416942
0.0162914376705884
0.0151186473667621
0.0146147608757019
0.0144682489335536
0.0143391080200672
0.0139176174998283
0.0129657983779907
0.0113364346325397
0.0089678093791008
0.0058609247207641
0.0020597502589225
-0.0023527108132839
-0.0072533413767814
-0.0124881789088249
-0.0178934782743453
-0.0233208052814006
-0.0286563672125339
-0.0338265970349311
-0.0387910045683383
-0.0435295403003692
-0.0480289533734321
-0.0522703304886817
-0.0562220066785812
-0.0598412118852138
-0.0630857348442077
-0.0659318640828132
-0.0683850720524787
-0.070473127067089
-0.072227731347084
-0.0736680775880813
-0.0747926756739616
-0.0755775719881057
-0.0759801119565963
-0.0759495049715042
-0.0754395723342895
-0.0744171515107154
-0.0728669762611389
-0.0707968398928642
-0.0682404637336731
-0.0652539730072021
-0.0619128905236721
-0.0583155825734138
-0.0545823462307453
-0.0508428663015365
-0.0472211465239524
-0.0438251383602619
-0.040739469230175
-0.0380223244428634
-0.0357101634144783
-0.0338230803608894
-0.0323627218604087
-0.0313119068741798
-0.030644379556179
-0.0303368531167507
-0.0303721688687801
-0.0307322070002555
-0.0313902758061885
-0.0323108956217765
-0.0334510840475559
-0.0347551777958869
-0.0361457988619804
-0.0375177413225173
-0.03873972594738
-0.0396658107638359
-0.0401531979441642
-0.0400806441903114
-0.0393620505928993
-0.0379519164562225
-0.0358439311385154
-0.0330670699477195
-0.0296804383397102
-0.0257655009627342
-0.0214199982583522
-0.0167584456503391
-0.0119102075695991
-0.0070027075707912
-0.002136506140232
0.0026312805712223
0.0072884857654571
0.0118546523153781
0.0163588486611843
0.0208208225667476
0.0252413973212242
0.029598269611597
0.0338458679616451
0.0379217863082885
0.0417594388127327
0.0453033931553363
0.0485197678208351
0.0513999946415424
0.0539677813649177
0.0562908127903938
0.0584837421774864
0.0606954395771026
0.0630845054984092
0.0657889246940612
0.0688968151807785
0.0724241733551025
0.0763021111488342
0.0803795605897903
0.0844476968050003
0.0882797092199325
0.0916701853275299
0.0944607704877853
0.0965469628572464
0.0978763252496719
0.098451942205429
0.0983361452817916
0.0976440757513046
0.0965281352400779
0.0951560363173484
0.0936837270855903
0.0922313556075096
0.0908722355961799
0.0896369516849517
0.0885243341326713
0.087507888674736
0.0865357220172882
0.0855320841073989
0.0844045728445053
0.0830527991056442
0.081376776099205
0.0792907550930976
0.0767435505986213
0.0737334117293357
0.070304274559021
0.0665151923894882
0.0623773597180843
0.0577839612960815
0.0524956881999969
0.0462108850479126
0.0386705361306667
0.0297364257276058
0.0194293595850467
0.0079375021159648
-0.00440514087677
-0.0171724818646907
-0.0299184154719114
-0.0422382205724716
-0.0538024194538593
-0.0643670111894607
-0.0737699419260025
-0.0819233134388923
-0.0888032764196395
-0.0944339036941528
-0.0988664329051971
-0.1021610274910926
-0.1043791845440864
-0.1055858582258224
-0.1058486700057983
-0.1052304357290268
-0.1037893593311309
-0.1015980094671249
-0.0987685471773147
-0.0954610705375671
-0.0918741822242736
-0.0882434919476509
-0.0848595201969146
-0.0820749253034591
-0.0802626833319664
-0.0797317326068878
-0.0806448981165885
-0.0829750597476959
-0.0865080282092094
-0.0908809900283813
-0.0956376865506172
-0.1002834141254425
-0.1043289750814437
-0.1073225736618042
-0.1088727042078971
-0.1086577028036117
-0.1064197570085525
-0.1019519567489624
-0.0950906351208686
-0.0857227370142936
-0.0738089382648468
-0.059410311281681
-0.0427068620920181
-0.024006363004446
-0.003744289278984
0.017524242401123
0.0391399264335632
0.0603633746504783
0.0804090425372123
0.0984849855303764
0.1138329431414604
0.1257729828357696
0.1337599158287048
0.1374445557594299
0.1367246359586715
0.1317732781171798
0.1230342462658882
0.1111797466874122
0.0970370844006538
0.0814990326762199
0.0654367059469223
0.0496286675333976
0.0347103402018547
0.0211454834789037
0.0092196408659219
-0.0009500277228653
-0.0093940515071153
-0.0162611790001392
-0.0217811837792396
-0.0262200385332107
-0.0298322867602109
-0.0328233242034912
-0.0353293269872665
-0.0374136567115783
-0.0390786342322826
-0.0402888394892215
-0.0409967117011547
-0.0411632247269153
-0.0407689958810806
-0.0398118905723094
-0.0382955893874168
-0.0362251959741115
-0.0336187295615673
-0.0305213667452335
-0.0270073935389518
-0.0231721736490726
-0.0191216077655553
-0.0149611551314592
-0.0107897836714982
-0.0067050550132989
-0.0028130430728197
0.0007672514766454
0.0039050988852977
0.0064600240439176
0.0082838665693998
0.0092301946133375
0.0091761890798807
0.0080456994473934
0.005822891369462
0.0025610066950321
-0.0016121845692396
-0.0065000541508197
-0.0118560995906591
-0.0174081958830356
-0.0228811055421829
-0.0280158333480358
-0.0325839295983314
-0.0363957025110721
-0.0393064841628074
-0.0412239432334899
-0.0421128571033477
-0.0419918932020664
-0.0409246385097503
-0.0390141122043132
-0.0364001281559467
-0.0332488715648651
-0.0297351963818073
-0.0260255187749862
-0.0222612954676151
-0.0185443237423896
-0.014929749071598
-0.0114275589585304
-0.0080086961388587
-0.0046140626072883
-0.0011678859591484
0.0024047717452049
0.0061607584357261
0.0101284086704254
0.0143074244260787
0.0186726152896881
0.0231744982302188
0.0277402065694332
0.0322808139026165
0.0367063917219638
0.0409432388842105
0.0449427813291549
0.0486794151365757
0.052140861749649
0.0553123168647289
