bvp
0.0017819412751123
0.0026530222967267
0.0036688207183033
0.0048767523840069
0.0063214162364602
0.008044290356338
0.0100788809359073
0.0124419350177049
0.015125760808587
0.0180933829396963
0.0212744735181331
0.0245663207024335
0.0278468616306781
0.0309933647513389
0.0338911265134811
0.0364305712282657
0.0385036878287792
0.0400038287043571
0.0408288910984993
0.0408894382417202
0.0401174612343311
0.038470309227705
0.0359330028295517
0.0325241237878799
0.0283039808273315
0.0233802981674671
0.0179073624312877
0.0120762791484594
0.0060995426028966
0.0001966319978237
-0.0054219849407672
-0.0105754453688859
-0.0151276886463165
-0.0189930647611618
-0.0221402030438184
-0.0245972331613302
-0.0264530852437019
-0.0278425179421901
-0.0289096981287002
-0.0297685749828815
-0.0304797552525997
-0.0310444589704275
-0.0314099080860614
-0.0314827635884285
-0.0311459507793188
-0.0302782114595174
-0.0287815779447555
-0.0266123749315738
-0.0237991958856582
-0.0204423125833272
-0.0167038459330797
-0.0127938166260719
-0.0089512336999177
-0.0054217986762523
-0.0024318546056747
-0.0001563681289553
0.0013109780848026
0.001971686258912
0.0019182302057743
0.0013168333098292
0.0003792904317378
-0.0006720200181007
-0.0016422551125288
-0.0024024844169616
-0.0029153302311897
-0.0032336944714188
-0.0034755012020468
-0.0037877196446061
-0.0043107895180583
-0.0051511130295693
-0.0063623827882111
-0.0079336343333125
-0.0097883585840463
-0.0117985643446445
-0.0138078415766358
-0.0156547464430332
-0.0171910412609577
-0.01829294860363
-0.0188712086528539
-0.0188827253878116
-0.0183355845510959
-0.0172826647758483
-0.0158088058233261
-0.0140175363048911
-0.012018215842545
-0.0099131930619478
-0.0077885640785098
-0.0057116793468594
-0.0037336451932787
-0.0018922466551885
-0.0002123098820447
0.001296465517953
0.0026423847302794
0.0038522141985595
0.0049646897241473
0.0060154367238283
0.007021723780781
0.0079799611121416
0.008877757936716
0.0097100436687469
0.0104893799871206
0.0112468898296356
0.0120245199650526
0.0128639172762632
0.0137979332357645
0.0148458387702703
0.0160134527832269
0.0172994714230299
0.0187042318284511
0.0202352311462163
0.021901324391365
0.0236942619085311
0.0255707949399948
0.0274455733597278
0.0291946809738874
0.0306673273444175
0.0317037254571914
0.0321584306657314
0.0319267176091671
0.0309660788625478
0.0293036289513111
0.027027141302824
0.0242651663720607
0.0211610849946737
0.017847066745162
0.0144295860081911
0.010988151654601
0.007578489370644
0.0042401542887091
0.001010613515973
-0.002062601968646
-0.004919690079987
-0.007493951357901
-0.0097202397882938
-0.0115473764017224
-0.0129512473940849
-0.0139395669102668
-0.0145484581589698
-0.0148385120555758
-0.014888597652316
-0.0147818513214588
-0.0145915150642395
-0.0143805481493473
-0.0142133636400103
-0.0141618121415376
-0.0142945824190974
-0.0146573856472969
-0.0152570754289627
-0.0160570871084928
-0.0169854536652565
-0.0179503131657838
-0.0188544280827045
-0.0196061786264181
-0.0201292894780635
-0.0203693509101867
-0.0202945489436388
-0.0198934562504291
-0.0191750340163707
-0.0181780513375997
-0.0169881302863359
-0.0157430563122034
-0.0146132661029696
-0.0137657113373279
-0.0133264083415269
-0.0133530516177415
-0.0138235632330179
-0.0146412132307887
-0.015652347356081
-0.0166708622127771
-0.0175071712583303
-0.0179980136454105
-0.0180274322628974
-0.0175345595926046
-0.0165136475116014
-0.015014674514532
-0.0131457978859543
-0.0110659003257751
-0.0089582223445177
-0.0069942632690072
-0.005305703729391
-0.0039724549278616
-0.0030224658548831
-0.0024370718747377
-0.002160639502108
-0.0021143341436982
-0.0022087879478931
-0.0023524444550275
-0.0024599730968475
-0.0024598538875579
-0.0022940337657928
-0.0019153449684381
-0.0012920536100864
-0.0004121623933315
0.0007199309766292
0.0020898636430501
0.0036788843572139
0.0054662795737385
0.0074274409562349
0.0095324553549289
0.0117480335757136
0.0140387276187539
0.0163647085428237
0.0186762828379869
0.0209048595279455
0.02295514754951
0.0247078463435173
0.0260327067226171
0.0268048755824565
0.026924081146717
0.0263370387256145
0.0250561796128749
0.0231667440384626
0.0208198372274637
0.0182148590683937
0.0155758541077375
0.0131245795637369
0.0110526569187641
0.0094983344897627
0.0085336416959762
0.0081618009135127
0.0083246445283293
0.0089187333360314
0.0098097920417785
0.0108428187668323
0.0118589308112859
0.0127190500497818
0.0133225787431001
0.0136158503592014
0.0135935703292489
0.0132979340851306
0.0128148198127746
0.012261657975614
0.0117660937830805
0.0114417560398578
0.0113696008920669
0.0115901613608002
0.0121053950861096
0.0128840012475848
0.0138650778681039
0.0149622308090329
0.0160743910819292
0.0171024166047573
0.017964893952012
0.0186094902455806
0.0190173313021659
0.0191979259252548
0.0191791504621505
0.0189978536218404
0.0186870209872722
0.0182563979178667
0.017675295472145
0.0168696008622646
0.0157370548695325
0.0141750294715166
0.0121085718274116
0.0095087569206953
0.0064015826210379
0.0028711147606372
-0.0009439922869205
-0.0048605469055473
-0.0086642438545823
-0.0121268630027771
-0.0150267118588089
-0.0171659030020236
-0.0183821842074394
-0.0185601115226745
-0.0176460854709148
-0.0156658068299293
-0.0127352597191929
-0.009059278294444
-0.0049219168722629
-0.0006674909964203
0.0033369790762662
0.0067527126520872
0.0093164015561342
0.0108714997768402
0.0113764926791191
0.0108914207667112
0.0095534846186637
0.0075521301478147
0.0051056556403636
0.0024374108761548
-0.0002460647374391
-0.0027732234448194
-0.0050199683755636
-0.006910465657711
-0.0084104612469673
-0.0095223188400268
-0.0102793481200933
-0.0107361283153295
-0.0109582059085369
-0.0110132023692131
-0.0109651796519756
-0.0108777191489934
-0.0108267925679683
-0.0109133720397949
-0.0112648718059062
-0.0120233353227376
-0.0133239440619945
-0.0152698950842022
-0.0179079361259937
-0.0212112329900264
-0.0250809099525213
-0.0293625257909297
-0.0338615961372852
-0.0383551008999347
-0.0426047593355178
-0.0463741160929203
-0.0494500771164894
-0.0516671165823936
-0.0529257729649543
-0.0531970523297786
-0.0525158531963825
-0.0509709827601909
-0.0486918538808822
-0.0458311475813388
-0.0425457246601581
-0.0389770045876503
-0.035240314900875
-0.0314297713339328
-0.0276247300207614
-0.0238891430199146
-0.0202735662460327
-0.0168214216828346
-0.0135714393109083
-0.0105564147233963
-0.0078015713952481
-0.0053210537880659
-0.0031122677028179
-0.0011525060981512
0.0005979463458061
0.002187920268625
0.0036692316643893
0.0050942548550665
0.0065102148801088
0.0079452078789472
0.0093899685889482
0.0107845235615968
0.0120183043181896
0.0129452114924788
0.0134102310985326
0.0132826976478099
0.0124873500317335
0.0110247544944286
0.0089774169027805
0.00650245975703
0.0038137100636959
0.0011549517512321
-0.0012305378913879
-0.0031277891248464
-0.0043755024671554
-0.0048855151981115
-0.0046458039432764
-0.0037084687501192
-0.0021742358803749
-0.0001778304576873
0.0021264106035232
0.0045787878334522
0.007029291242361
0.0093518588691949
0.011454302817583
0.013283371925354
0.0148261655122041
0.0161071773618459
0.0171797145158052
0.0181155372411012
0.0189933460205793
0.0198826845735311
0.0208316072821617
0.0218663997948169
0.0229958556592464
0.0242134183645248
0.0255012083798646
0.0268379561603069
0.0282057635486125
0.0295930653810501
0.0309952944517135
0.0324110761284828
0.0338299237191677
0.0352143235504627
0.036485806107521
0.0375239141285419
0.0381790325045585
0.0382939130067825
0.0377320647239685
0.0364093445241451
0.0343162566423416
0.0315221138298511
0.0281649660319089
0.0244331154972314
0.0205402821302413
0.0166990794241428
0.0130997551605105
0.0098978709429502
0.0072077549993991
0.005096604116261
0.0035815183073282
0.0026332512497901
0.0021822834387421
0.0021243235096335
0.0023311180993914
0.002669665031135
0.0030245734378695
0.0033159675076603
0.003505771048367
0.0035916822962462
0.0035981135442852
0.0035701673477888
0.0035659684799611
0.0036434978246688
0.0038465033285319
0.0041944878175854
0.0046782679855823
0.0052631786093115
0.0058972830884158
0.0065200380049645
0.0070737032219767
0.0075157810933887
0.007825338281691
0.0080028371885418
0.0080655189231038
0.0080367857590317
0.007930377498269
0.0077338311821222
0.0073974295519292
0.0068360571749508
0.0059431181289255
0.0046059084124863
0.0027197040617465
0.0002069389447569
-0.0029608951881527
-0.0067462990991771
-0.0110342064872384
-0.0156284905970096
-0.0202653482556343
-0.024645822122693
-0.02847864292562
-0.0315189734101295
-0.0335942395031452
-0.034617967903614
-0.0345945544540882
-0.0336161851882934
-0.0318518169224262
-0.0295255258679389
-0.0268827751278877
-0.0241508111357688
-0.0215060263872146
-0.0190564505755901
-0.016835669055581
-0.0148046445101499
-0.0128648933023214
-0.0108817517757415
-0.0087095275521278
-0.0062156496569514
-0.0033051583450287
5.95971941947937e-05
0.0038508269935846
0.0079795755445957
0.0123091507703065
0.0166726447641849
0.0208940505981445
0.0248121041804552
0.0282961055636405
0.0312488749623298
0.0336057767271995
0.0353351309895515
0.0364349149167537
0.0369206815958023
0.0368087962269783
0.0361039191484451
0.034796118736267
0.0328679457306861
0.0303052607923746
0.0271064601838588
0.0232929158955812
0.0189206544309854
0.0140867885202169
0.0089281387627124
0.0036099813878536
-0.00169537961483
-0.006830595433712
-0.0116659775376319
-0.0161021836102008
-0.0200686641037464
-0.0235246252268552
-0.026463434100151
-0.0289140623062849
-0.0309347230941057
-0.0326016321778297
-0.0339953601360321
-0.035183347761631
-0.0362029112875461
-0.0370539501309394
-0.0377046801149845
-0.0381066352128982
-0.038212850689888
-0.0379916690289974
-0.0374317876994609
-0.0365416519343853
-0.035347755998373
-0.0338922142982482
-0.0322293192148208
-0.0304206851869821
-0.0285272803157567
-0.0266000535339117
-0.0246738996356725
-0.0227647684514522
-0.0208686608821153
-0.018964534625411
-0.017023092135787
-0.015025682747364
-0.012990809045732
-0.0109895979985594
-0.0091364365071058
-0.0075621241703629
-0.0063851960003376
-0.0056895101442933
-0.0055086007341742
-0.0058196578174829
-0.0065499995835125
-0.0075901439413428
-0.0088073089718818
-0.0100612007081508
-0.0112222973257303
-0.0121841114014387
-0.0128626376390457
-0.0131915844976902
-0.0131256897002458
-0.0126482434570789
-0.0117738079279661
-0.010545658878982
-0.0090274242684245
-0.0072872261516749
-0.005379426293075
-0.0033320616930723
-0.0011425064876675
0.0012204684317111
0.003810154274106
0.0066906530410051
0.0099170561879873
0.013511374592781
0.0174466595053672
0.0216382704675197
0.0259384028613567
0.0301450192928314
0.0340313613414764
0.0373837575316429
0.0400316417217254
0.0418649464845657
0.0428415760397911
0.0429859906435012
0.0423815697431564
0.0411598160862922
0.0394839644432067
0.0375237427651882
0.0354229025542736
0.0332700423896312
0.0310870055109262
0.0288332775235176
0.026417639106512
0.0237225610762834
0.0206439159810543
0.0171297695487737
0.0132023524492979
0.0089594088494777
0.0045582968741655
0.0001898477785289
-0.0039513232186436
-0.0076938811689615
-0.0109078204259276
-0.0135117564350366
-0.0154714100062847
-0.0167919136583805
-0.0175086595118045
-0.0176826789975166
-0.0174016971141099
-0.0167796127498149
-0.0159455649554729
-0.0150224352255463
-0.0141054289415478
-0.0132499057799577
-0.0124662155285477
-0.0117178633809089
-0.0109262187033891
-0.009985770098865
-0.0087865125387907
-0.0072336606681346
-0.0052618226036429
-0.0028457762673497
-4.86220233142376e-06
0.0031967824324965
0.006647708825767
0.0101897418498992
0.0136301182210445
0.0167624410241842
0.0193879138678312
0.0213322024792432
0.0224600303918123
0.022692272439599
0.0220257639884948
0.0205454155802726
0.0184136666357517
0.0158348735421895
0.0130090154707431
0.0100962854921817
0.0072058178484439
0.0043995575979352
0.0016953758895397
-0.0009282752871513
-0.0035171210765838
-0.0061172293499112
-0.0087516410276293
-0.0114062577486038
-0.0140275778248906
-0.0165288168936967
-0.0188030004501342
-0.020741444081068
-0.0222510434687137
-0.0232650600373744
-0.0237458162009716
-0.0236805863678455
-0.0230769366025924
-0.0219641607254743
-0.0203995648771524
-0.0184702444821596
-0.0162837170064449
-0.0139518789947032
-0.0115782227367162
-0.0092514092102646
-0.0070388452149927
-0.0049784039147198
-0.0030755032785236
-0.0013088261475786
0.0003590284613892
0.0019704024307429
0.0035620066337287
0.0051555186510086
0.0067539322189986
0.0083417231217026
0.0098818810656666
0.0113157602027058
0.0125735644251108
0.0135895544663071
0.0143140731379389
0.0147197898477315
0.0148025983944535
0.0145796090364456
0.0140859819948673
0.0133696505799889
0.0124795949086546
0.0114473775029182
0.0102742984890937
0.008937562815845
0.0074101933278143
0.0056763724423944
0.0037356703542172
0.0016061039641499
-0.0006699473597109
-0.003025283338502
-0.0053755473345518
-0.0076304469257593
-0.0097049418836832
-0.0115270130336284
-0.0130412336438894
-0.0142109375447034
-0.0150218624621629
-0.015486367046833
-0.0156425386667251
-0.0155454408377408
-0.0152552733197808
-0.0148302298039197
-0.0143258105963468
-0.0137932570651173
-0.0132719641551375
-0.0127795664593577
-0.0123077537864446
-0.0118276569992303
-0.0113001652061939
-0.0106868026778101
-0.0099587114527821
-0.0090991873294115
-0.0080999881029129
-0.0069573791697621
-0.0056737503036856
-0.0042631402611732
-0.0027511254884302
-0.0011702380143105
0.0004416834563016
0.0020471275784075
0.003622428048402
0.0051670856773853
0.0066987723112106
0.0082365851849317
0.0097842784598469
0.0113234026357531
0.0128152659162878
0.0142055507749319
0.0154298665001988
0.0164209455251693
0.0171193033456802
0.0174904018640518
0.017543438822031
0.0173387266695499
0.0169827006757259
0.0166228637099266
0.0164431743323802
0.0166518725454807
0.0174633972346782
0.0190758369863033
0.021638574078679
0.0252108015120029
0.0297247245907783
0.034971710294485
0.0406148247420787
0.0462175346910953
0.0512845329940319
0.0553183108568191
0.0578885450959205
0.0586964935064315
0.0576169230043888
0.0547136478126049
0.0502238385379314
0.0445012226700782
0.0379314832389354
0.0308587811887264
0.0235250387340784
0.0159831177443265
0.0080321263521909
-0.0006978251039981
-0.0105053056031465
-0.0213537663221359
-0.032709851861
-0.043576743453741
-0.0527404323220253
-0.0591044053435325
-0.0619548037648201
-0.0610926263034343
-0.0568479970097541
-0.0500174313783645
-0.0417647808790206
-0.0335027128458023
-0.0267357788980007
-0.0228399392217397
-0.0228025186806917
-0.0270126815885305
-0.0351940877735614
-0.0464948825538158
-0.0596819221973419
-0.0733726620674133
-0.086248017847538
-0.097211092710495
-0.1054805517196655
-0.1106194853782653
-0.1125165671110153
-0.1113417297601699
-0.1074794828891754
-0.1014397293329238
-0.0937656685709953
-0.084963634610176
-0.0754623413085937
-0.0655966252088546
-0.0556112006306648
-0.0456785075366497
-0.0359193012118339
-0.0264156516641378
-0.0172175876796245
-0.0083550885319709
0.0001436583697795
0.0082421377301216
0.0158988684415817
0.0230748113244771
0.0297357812523841
0.0358487479388713
0.0413796529173851
0.046298548579216
0.0505882017314434
0.0542520992457866
0.057319201529026
0.0598410815000534
0.0618821866810321
0.0635094791650772
0.0647845566272735
0.0657522827386856
0.0664243102073669
0.0667697116732597
0.0667203590273857
0.0661871582269668
0.0650819167494773
0.0633406043052673
0.0609434060752391
0.0579255074262619
0.0543764382600784
0.0504317805171012
0.0462595522403717
0.0420418232679367
0.037955418229103
0.0341575220227241
0.0307776536792516
0.0279105547815561
0.0256066359579563
0.0238656606525182
0.0226394031196832
0.0218428317457437
0.0213704388588666
0.0211135372519493
0.020973365753889
0.0208662040531635
0.0207238942384719
0.0204957909882068
0.0201516114175319
0.0196822769939899
0.0190979354083538
0.0184250567108392
0.0177036803215742
0.0169791299849748
0.0162876415997743
0.0156476106494665
0.0150617305189371
0.014523945748806
0.0140274688601493
0.0135715622454881
0.0131630022078752
0.0128104370087385
0.0125123374164104
0.0122415274381637
0.0119325872510671
0.0114799411967396
0.0107508171349763
0.0096119474619627
0.0079627996310591
0.0057590375654399
0.0030163442716002
-0.0001952964812517
-0.0037570493295788
-0.0075114094652235
-0.0112812407314777
-0.014890756458044
-0.0181812681257724
-0.0210226997733116
-0.0233241915702819
-0.0250412784516811
-0.0261751171201467
-0.0267654508352279
-0.0268819350749254
-0.0266146324574947
-0.0260618813335895
-0.0253193713724613
-0.024475559592247
-0.0236079599708318
-0.0227756686508655
-0.0220143683254718
-0.0213372111320495
-0.020737700164318
-0.0201928038150072
-0.0196667928248643
-0.0191144719719886
-0.0184860434383153
-0.0177365094423294
-0.0168357081711292
-0.0157755687832832
-0.0145713239908218
-0.0132528617978096
-0.0118547976016998
-0.0104170087724924
-0.0089922910556197
-0.0076512391678988
-0.0064820470288395
-0.0055886069312691
-0.0050856540910899
-0.0050852107815444
-0.0056754741817712
-0.0068995971232652
-0.0087401662021875
-0.0111146066337823
-0.0138844866305589
-0.0168729610741138
-0.0198806636035442
-0.0227003209292888
-0.0251391772180795
-0.0270468816161155
-0.0283320248126983
-0.0289601664990186
-0.0289438217878341
-0.0283338762819767
-0.0272103548049926
-0.0256704334169626
-0.0238201394677162
-0.0217722095549106
-0.019641239196062
-0.0175286885350942
-0.0155050847679376
-0.0136038456112146
-0.011825542896986
-0.010141672566533
-0.0085020763799548
-0.0068529890850186
-0.0051548229530453
-0.0033867321908473
-0.0015409458428621
0.0003824420273303
0.0023769773542881
0.0044309878721833
0.0065284073352813
0.0086467955261468
0.0107549456879496
0.0128140123561024
0.0147780934348702
0.0165897365659475
0.0181774049997329
0.0194606948643922
0.0203535836189985
0.0207600053399801
0.0205772891640663
0.0197194349020719
0.0181487333029508
0.0158964786678552
0.0130646703764796
0.0098131205886602
0.006338776089251
0.0028528105467557
-0.0004395730793476
-0.0033567398786544
-0.0057552922517061
-0.0075375866144895
-0.0086516086012125
-0.0090861059725284
-0.0088689140975475
-0.0080729648470878
-0.0068157371133565
-0.0052418243139982
-0.0034973677247762
-0.00170623883605
4.5223161578178406e-05
0.0017121694982051
0.0032886732369661
0.0048010982573032
0.0062948744744062
0.0078181643038988
0.0094091407954692
0.011089039966464
0.0128623256459832
0.0147215239703655
0.0166487023234367
0.0186135862022638
0.0205756314098835
0.0224881637841463
0.0242974180728197
0.0259370729327201
0.0273248683661222
0.0283656921237707
0.0289584808051586
0.0290039703249931
0.0284159965813159
0.0271392352879047
0.0251692831516265
0.0225639268755912
0.0194412171840667
0.015970641747117
0.0123563203960657
0.0088088735938072
0.0055166482925415
0.0026282118633389
0.000246544368565
-0.0015710480511188
-0.0028127701953053
-0.0035117687657475
-0.0037407167255878
-0.0035992721095681
-0.0031965784728527
-0.0026332242414355
-0.0019881231710314
-0.0013134628534317
-0.0006336448714137
5.5033713579177856e-05
0.0007780799642205
0.0015671220608055
0.0024444335140287
0.0034161193761974
0.0044736033305525
0.0056001082994043
0.0067768790759146
0.0079845497384667
0.0092000868171453
0.0103946616873145
0.0115376850590109
0.0126028833910822
0.013569202274084
0.0144162941724061
0.0151157500222325
0.0156194726005196
0.0158490594476461
0.0156935546547174
0.0150251500308513
0.0137316947802901
0.0117502165958285
0.0090873278677463
0.005825235042721
0.002115735784173
-0.0018384018912911
-0.0058107115328311
-0.0095788389444351
-0.0129472464323043
-0.0157631319016218
-0.0179257914423942
-0.0193887967616319
-0.0201567690819501
-0.0202818494290113
-0.0198601372539997
-0.0190220363438129
-0.0179131925106048
-0.0166717898100614
-0.0154105741530656
-0.0142068685963749
-0.0131005262956023
-0.0120983710512518
-0.0111826620995998
-0.0103209102526307
-0.0094742383807897
-0.0086036771535873
-0.0076764188706874
-0.006670206785202
-0.0055720941163599
-0.0043777017854154
-0.0030972994863986
-0.0017594499513506
-0.0004043402150273
0.0009262664243578
0.0021965196356177
0.0033803079277276
0.0044584525749087
0.0054093543440103
0.0061954911798238
0.0067500891163945
0.0069733746349811
0.0067440848797559
0.0059439921751618
0.0044898297637701
0.0023616375401616
-0.0003872895613312
-0.0036409441381692
-0.0072375982999801
-0.0109858065843582
-0.0146824214607477
-0.0181302949786186
-0.0211514793336391
-0.0235982351005077
-0.025363590568304
-0.026389617472887
-0.0266730934381485
-0.0262661203742027
-0.0252665933221578
-0.0238012000918388
-0.0220072548836469
-0.0200140997767448
-0.0179297216236591
-0.015839148312807
-0.0138065759092569
-0.0118744671344757
-0.0100635644048452
-0.0083734998479485
-0.0067832176573574
-0.0052571333944797
-0.0037565310485661
-0.0022475500591099
-0.00070415972732
0.0008891506586223
0.0025348346680402
0.0042225252836942
0.0059333760291337
0.0076478789560496
0.0093500269576907
0.0110228704288601
0.0126422652974724
0.0141729246824979
0.0155632067471742
0.0167391188442707
0.0176025722175836
0.0180376153439283
0.0179252605885267
0.0171645116060972
0.01569414883852
0.0135114090517163
0.0106844920665025
0.0073517048731446
0.0037059807218611
-2.66307033598423e-05
-0.0036125045735388
-0.0068414318375289
-0.0095508266240358
-0.0116336848586797
-0.013037871569395
-0.0137634007260203
-0.0138566624373197
-0.0134021276608109
-0.0125128868967294
-0.0113173881545662
-0.0099422521889209
-0.0084985010325908
-0.0070743351243436
-0.0057299523614346
-0.004493401851505
-0.0033609108068048
-0.0023055183701217
-0.0012924681650474
-0.0002916989615187
0.0007183554116636
0.0017519902903586
0.0028165909461677
0.0039113839156925
0.0050301169976592
0.0061678467318415
0.0073237437754869
0.008497392758727
0.0096841538324952
0.0108744818717241
0.0120550170540809
0.0132054090499877
0.0142893139272928
0.0152403339743614
0.0159501638263463
0.016275554895401
0.0160666033625602
0.015200363472104
0.0136083271354436
0.0112939439713954
0.0083375750109553
0.0048888185992836
0.0011483066482469
-0.0026568141765892
-0.0062977583147585
-0.0095650432631373
-0.0122832199558615
-0.0143183981999754
-0.0155828231945633
-0.0160438772290945
-0.0157346539199352
-0.0147524205967783
-0.0132397562265396
-0.0113585945218801
-0.0092685706913471
-0.0071124136447906
-0.0050049871206283
-0.0030238274484872
-0.0012037067208439
0.0004601518157869
0.0019990117289125
0.0034545178059488
0.0048672780394554
0.0062723364681005
0.00770097784698
0.0091796787455677
0.0107188783586025
0.0123047130182385
0.013904133811593
0.015474921092391
0.0169738307595253
0.0183629058301448
0.0196132101118564
0.0207048654556274
0.0216224957257509
0.0223458185791969
0.0228365864604711
0.0230285171419382
0.0228298157453537
0.0221397746354341
0.0208725780248641
0.0189775042235851
0.0164489597082138
0.0133321350440382
0.0097277276217937
0.0057891951873898
0.0017091110348701
-0.0023038168437778
-0.0060509191825985
-0.0093628605827689
-0.0121097955852746
-0.014207724481821
-0.0156224090605974
-0.0163682699203491
-0.0165018178522586
-0.0161100439727306
-0.0152951590716838
-0.0141630079597234
-0.0128191309049725
-0.0113649722188711
-0.0098894815891981
-0.0084608467295765
-0.007121808361262
-0.0058879666030406
-0.0047507630661129
-0.0036855968646705
-0.0026594344526529
-0.001636984758079
-0.00059066247195
0.0004894901067018
0.0015945667400956
0.0027039581909775
0.0037956032902002
0.0048529375344514
0.0058623310178518
0.0068065579980611
0.0076662776991724
0.0084250187501311
0.0090644042938947
0.0095510547980666
0.0098263565450906
0.0098061934113502
0.0093920091167092
0.0084898304194211
0.0070313233882188
0.004990903660655
0.0023956056684255
-0.0006692707538604
-0.0040588844567537
-0.0075826700776815
-0.01103519462049
-0.0142264273017644
-0.0169982872903347
-0.0192335117608308
-0.0208624638617038
-0.0218625422567129
-0.0222503151744604
-0.02207513153553
-0.0214160047471523
-0.0203751772642135
-0.0190649926662445
-0.0175926964730024
-0.0160491354763507
-0.0145005946978926
-0.0129830911755561
-0.0115061085671186
-0.0100670680403709
-0.0086639020591974
-0.0072965621948242
-0.0059623401612043
-0.0046531138941645
-0.0033566625788807
-0.002060258295387
-0.0007543074898421
0.0005648108199238
0.0018926486372947
0.0032171187922358
0.0045225000940263
0.0057941279374063
0.0070215887390077
0.008200129494071
0.0093242079019546
0.010369436815381
0.0112758800387382
0.0119463922455906
0.0122588193044066
0.0120871849358081
0.0113289700821042
0.0099319899454712
0.0079116327688097
0.005353320389986
0.0024020355194807
-0.0007570339366793
-0.003922723699361
-0.0069003063254058
-0.0095166536048054
-0.0116302426904439
-0.0131439175456762
-0.0140220746397972
-0.0142987258732318
-0.0140638370066881
-0.0134359588846564
-0.012539641931653
-0.0114934481680393
-0.0104029076173901
-0.0093552619218826
-0.008414234034717
-0.0076130740344524
-0.0069503863342106
-0.0063945604488253
-0.0058929300867021
-0.0053789252415299
-0.0047800098545849
-0.0040327189490199
-0.0031001700554043
-0.0019787540659308
-0.0006908467039465
0.0007268878398463
0.002231873339042
0.0037809130735695
0.0053359642624855
0.0068674487993121
0.0083478260785341
0.0097391437739133
0.0109841329976916
0.0120018515735864
0.0126898847520351
0.0129409367218613
0.0126681411638855
0.0118213631212711
0.0103923929855227
0.008421529084444
0.0060056573711335
0.0032938988879323
0.0004668298643082
-0.0022884591016918
-0.0047983098775148
-0.0069185066968202
-0.0085460031405091
-0.0096241757273674
-0.0101430537179112
-0.0101342732086777
-0.009659512899816
-0.0087960697710514
-0.0076251239515841
-0.0062279682606458
-0.004688452463597
-0.0030906186439096
-0.0015082163736224
4.71901148557663e-06
0.0014168005436658
0.0027173315174877
0.003910981118679
0.0050123231485486
0.0060434397310018
0.0070329178124666
0.0080128237605094
0.0090123265981674
0.0100495386868715
0.0111271785572171
0.0122365057468414
0.0133617566898465
0.0144767686724662
0.0155430333688855
0.0165175609290599
0.0173614528030157
0.0180381126701831
0.0185024496167898
0.0186908915638923
0.0185212343931198
0.0179046057164669
0.0167643092572689
0.0150558995082974
0.012784069404006
0.0100104492157697
0.0068504428490996
0.0034625022672116
3.061041934415698e-05
-0.0032594860531389
-0.0062423599883913
-0.0087870396673679
-0.0108055938035249
-0.0122576309368014
-0.0131484288722276
-0.0135216312482953
-0.013450096361339
-0.0130258416756987
-0.0123487478122115
-0.0115160075947642
-0.010614326223731
-0.0097125433385372
-0.0088517609983682
-0.0080386009067296
-0.0072520379908382
-0.0064616627059876
-0.0056424690410494
-0.0047784997150301
-0.0038593336939811
-0.002876013983041
-0.0018207808025181
-0.000688977073878
0.0005205129273235
0.0018048272468149
0.0031547904945909
0.0045535117387771
0.0059774927794933
0.0073985597118735
0.008787415921688
0.010118268430233
0.0113654620945453
0.0124872829765081
0.0134104527533054
0.0140315359458327
0.0142340091988444
0.013910531066358
0.0129862865433096
0.0114394212141633
0.0093109272420406
0.0067027253098785
0.0037665371783077
0.0006845323368906
-0.0023543173447251
-0.0051745753735303
-0.0076263509690761
-0.0095913745462894
-0.0109910955652594
-0.0117985177785158
-0.0120425829663872
-0.0117993270978331
-0.0111775379627943
-0.0103031825274229
-0.0093013131991028
-0.0082783931866288
-0.00731050549075
-0.0064389482140541
-0.0056722480803728
-0.0049928557127714
-0.004364495165646
-0.0037397611886262
-0.0030701672658324
-0.0023154164664447
-0.0014498351374641
-0.0004686077591031
0.000609066337347
0.0017460397211834
0.0029008109122514
0.004039161838591
0.0051378314383327
0.0061824498698115
0.0071607548743486
0.008050943724811
0.0088105099275708
0.0093720639124512
0.0096470080316066
0.009536474943161
0.0089524900540709
0.0078428145498037
0.0062043578363955
0.0040841521695256
0.0015759512316435
-0.0011881648097187
-0.0040520527400076
-0.0068513276055455
-0.009428771212697
-0.0116474330425262
-0.0133994342759251
-0.0146118309348821
-0.0152497217059135
-0.0153162740170955
-0.0148516437038779
-0.0139307836070656
-0.0126551315188407
-0.0111352130770683
-0.0094744814559817
-0.00776485260576
-0.0060866172425448
-0.004503228701651
-0.0030527748167514
-0.0017417655326426
-0.0005464674904942
0.0005767857655882
0.0016789454966783
0.0028085159137845
0.0040014553815126
0.0052714589983224
0.00660833530128
0.0079858601093292
0.0093741621822118
0.0107499156147241
0.0120960306376218
0.0133926477283239
0.0146125862374901
0.0157244019210338
0.0166926570236682
0.0174710992723703
0.0179957672953605
0.0181849431246519
0.0179465468972921
0.017190758138895
0.0158470626920461
0.0138830328360199
0.0113178230822086
0.0082263676449656
0.0047366260550916
0.0010211919434368
-0.0027209450490772
-0.0062925685197114
-0.0095249712467193
-0.0122928246855735
-0.0145177049562335
-0.0161641649901866
-0.0172320436686277
-0.0177491884678602
-0.017764052376151
-0.0173388160765171
-0.0165483616292476
-0.0154821453616023
-0.0142387989908456
-0.0129116252064704
-0.011571423150599
-0.010253507643938
-0.0089582903310656
-0.0076692271977663
-0.0063725318759679
-0.0050629926845431
-0.0037408070638775
-0.0024096597917377
-0.0010779022704809
0.0002398241776973
0.0015237869229167
0.0027541478630155
0.0039174072444438
0.0050117964856326
0.0060483580455183
0.0070451661013066
0.0080194761976599
0.0089817540720105
0.0099241519346833
0.0108023453503847
0.0115272486582398
0.0119767403230071
0.0120187271386384
0.011534908786416
0.0104441279545426
0.0087249306961894
0.0064281555823981
0.0036729243583977
0.000629888207186
-0.002503179712221
-0.0055280639789998
-0.0082675833255052
-0.0105770323425531
-0.0123472036793828
-0.0135095473378896
-0.0140485167503356
-0.0140069928020238
-0.0134754516184329
-0.0125751011073589
-0.0114412568509578
-0.01020491681993
-0.0089755710214376
-0.0078286183997988
-0.0067987837828695
-0.0058811525814235
-0.0050401976332068
-0.0042242524214088
-0.0033782948739826
-0.0024507488124072
-0.0013981382362544
-0.0001942394301295
0.0011579217389225
0.0026235142722725
0.004146066494286
0.0056612468324601
0.0071092909201979
0.0084440484642982
0.0096363276243209
0.0106704318895936
0.01153299305588
0.0121982302516698
0.0126182530075311
0.0127236079424619
0.0124343326315283
0.0116802044212818
0.0104233417659997
0.0086706280708312
0.0064735226333141
0.0039244857616722
0.0011525668669492
-0.0016880463808774
-0.0044366368092596
-0.0069431415759027
-0.0090790130198001
-0.0107447188347578
-0.0118759199976921
-0.0124468635767698
-0.0124704772606492
-0.0119955018162727
-0.011101447045803
-0.0098903579637408
-0.0084730377420783
-0.0069556487724184
-0.0054340241476893
-0.0039885998703539
-0.0026731435209512
-0.0015063816681504
-0.0004755854606628
0.0004527568817138
0.0013237851671874
0.0021874685771763
0.0030909180641174
0.0040709557943046
0.0051501840353012
0.0063344212248921
0.007610376458615
0.0089509384706616
0.0103295445442199
0.0117272343486547
0.0131233818829059
0.014484355226159
0.0157584194093942
0.0168709196150302
0.017720453441143
0.0181827563792467
0.0181270278990268
0.0174446050077676
0.0160781554877758
0.0140368854627013
0.0113971196115016
0.0082942768931388
0.0049076862633228
0.0014412008458748
-0.0018951393431052
-0.0049027726054191
-0.0074142552912235
-0.0093109849840402
-0.0105320019647479
-0.0110731748864054
-0.010981461033225
-0.0103455195203423
-0.0092816222459077
-0.0079188756644725
-0.0063875271007418
-0.0048077357932925
-0.0032780298497527
-0.0018684554379433
-0.0006187998224049
0.0004629595205187
0.0013997864443808
0.0022348577622324
0.003012993838638
0.0037662414833903
0.0045108967460691
0.0052530812099576
0.0059957108460366
0.0067417263053357
0.0074941907078027
0.0082568507641553
0.0090358322486281
0.0098375668749213
0.0106603754684329
0.0114873722195625
0.0122888907790184
0.0130324866622686
0.0136915128678083
0.014242123812437
0.0146480575203895
0.014846097677946
0.0147428512573242
0.0142244882881641
0.0131773669272661
0.0115121658891439
0.0091834552586078
0.0062035713344812
0.0026505161076784
-0.001334149390459
-0.0055591920390725
-0.0098070912063121
-0.0138606913387775
-0.0175232198089361
-0.0206278935074806
-0.0230468232184648
-0.024706857278943
-0.0256022624671459
-0.0257908925414085
-0.0253756083548069
-0.0244826935231685
-0.0232449434697628
-0.0217905566096305
-0.0202339421957731
-0.0186640620231628
-0.01713552698493
-0.0156697314232587
-0.0142638571560382
-0.0129015948623418
-0.0115587841719388
-0.0102018509060144
-0.0087896799668669
-0.007286257110536
-0.0056726410984992
-0.0039493381045758
-0.0021341496612876
-0.0002580580767244
0.001639975933358
0.0035158249083906
0.0053234109655022
0.0070215426385402
0.0085810497403144
0.0099895093590021
0.0112503953278064
0.0123719125986099
0.0133492024615406
0.0141497598960995
0.0147055070847272
0.0149119710549712
0.0146411191672086
0.0137716345489025
0.0122253037989139
0.0099917035549879
0.0071352585218846
0.00378840835765
0.0001337965950369
-0.0036184501368552
-0.0072523187845945
-0.0105662550777196
-0.0133912600576877
-0.0156029276549816
-0.0171256475150585
-0.0179318320006132
-0.0180425085127353
-0.0175297930836677
-0.0165127906948328
-0.0151421930640935
-0.0135774398222565
-0.0119632193818688
-0.010411063209176
-0.0089890696108341
-0.0077214892953634
-0.0065971249714493
-0.0055809896439313
-0.004625211469829
-0.003678600070998
-0.0026939469389617
-0.0016322995070368
-0.0004650892224162
0.0008216860005632
0.0022203300613909
0.0036999967414885
0.0052159503102302
0.0067236856557428
0.0081892777234315
0.00958997849375
0.0109045002609491
0.0120983924716711
0.0131119480356574
0.0138570740818977
0.0142256850376725
0.0141064804047346
0.0134066585451364
0.0120766293257474
0.0101318368688225
0.0076597109436988
0.0048039127141237
0.001737164799124
-0.0013604589039459
-0.0043169180862605
-0.0069807483814656
-0.0092288311570882
-0.0109708504751324
-0.0121528301388025
-0.012759044766426
-0.0128117986023426
-0.0123686920851469
-0.0115167442709207
-0.010363426990807
-0.0090242493897676
-0.0076066721230745
-0.0061967652291059
-0.0048556216061115
-0.0036205640062689
-0.0025040199980139
-0.0014899121597409
-0.000531590078026
0.0004412690177559
0.0015049329958856
0.0027213115245103
0.0041239755228161
0.0057157129049301
0.0074759246781468
0.0093690622597932
0.0113494871184229
0.0133654763922095
0.0153646524995565
0.0172970779240131
0.0191120691597461
0.0207523666322231
0.0221478808671236
0.0232086721807718
0.0238251574337482
0.0238817781209945
0.0232775341719388
0.0219453237950801
0.0198683366179466
0.0170915778726339
0.0137229245156049
0.0099212462082505
0.0058785220608115
0.0018046516925096
-0.0020867337007075
-0.0055989888496696
-0.0085776643827557
-0.0109279798343777
-0.0126177947968244
-0.0136703997850418
-0.0141528518870472
-0.0141610177233815
-0.0138024659827351
-0.0131819155067205
-0.0123916445299983
-0.0115051912143826
-0.0105752544477581
-0.0096363229677081
-0.0087068937718868
-0.0077863046899437
-0.0068517546169459
-0.0058675627224147
-0.0048032663762569
-0.0036435869988054
-0.0023854267783463
-0.001031293766573
0.0004128158907406
0.0019359989091753
0.0035220962017774
0.0051501262933015
0.0067936908453702
0.0084211304783821
0.0099982060492038
0.0114923119544982
0.0128757739439606
0.0141256339848041
0.015216514468193
0.0161042232066392
0.0167087130248546
0.0169138982892036
0.0165878497064113
0.0156122520565986
0.0139130149036645
0.0114837512373924
0.0083937365561723
0.0047805975191295
0.0008324575610458
-0.0032342476770281
-0.0071964208036661
-0.0108461361378431
-0.0140103036537766
-0.0165603496134281
-0.0184124521911144
-0.0195305682718753
-0.0199356842786073
-0.0197076685726642
-0.0189709085971117
-0.0178699605166912
-0.0165467746555805
-0.0151263363659381
-0.0137076620012521
-0.0123575730249285
-0.0111098047345876
-0.0099675450474023
-0.0089072491973638
-0.0078868679702281
-0.0068575693294405
-0.0057728746905922
-0.0045930407941341
-0.0032897344790399
-0.0018545241327956
-0.000304362270981
0.0013220990076661
0.0029736040160059
0.0045967423357069
0.0061457627452909
0.0075853252783417
0.0088824350386857
0.0099944220855832
0.0108607811853289
0.0114001911133527
0.0115154217928648
0.0111104780808091
0.0101168463006615
0.0085180439054965
0.0063587329350411
0.0037362209986895
0.000787992728874
-0.0023187033366411
-0.0054005123674869
-0.0082755349576473
-0.0107803670689463
-0.0127834677696228
-0.0141959926113486
-0.0149796875193715
-0.0151472073048353
-0.0147552620619535
-0.0138957127928733
-0.0126856388524174
-0.0112522514536976
-0.0097131906077265
-0.0081643052399158
-0.0066802878864109
-0.0053152358159422
-0.0040956232696771
-0.0030167682562023
-0.0020504449494183
-0.0011545903980731
-0.0002790591679513
0.0006271912716329
0.001607073820196
0.0026895739138126
0.0038881949149072
0.0052016121335327
0.0066153551451861
0.0081061944365501
0.0096483938395977
0.0112149314954876
0.0127728255465626
0.0142808221280574
0.015691015869379
0.0169473607093095
0.0179795734584331
0.0186989326030015
0.0190003588795661
0.0187720190733671
0.0179141964763402
0.0163638051599264
0.0141160869970917
0.0112358871847391
0.0078537389636039
0.0041503934189677
0.0003388777840882
-0.0033573068212717
-0.0067342235706746
-0.0096334889531135
-0.0119511866942048
-0.0136342644691467
-0.0146742863580584
-0.0151014011353254
-0.0149780614301562
-0.0143933147192001
-0.0134543031454086
-0.0122713595628738
-0.0109438858926296
-0.0095545770600438
-0.0081676486879587
-0.0068243644200265
-0.0055383015424013
-0.0042984690517187
-0.0030815978534519
