bvp
0.003338994923979
0.0039985626935958
0.0045883799903094
0.0051040607504546
0.005547871813178
0.0059271855279803
0.006251601036638
0.0065307929180562
0.0067732064053416
0.0069849789142608
0.0071700583212077
0.0073314229957759
0.0074717653915286
0.0075941933318972
0.007702711969614
0.0078004687093198
0.0078865513205528
0.007954261265695
0.0079927640035748
0.0079908845946192
0.0079406378790736
0.0078392503783106
0.0076889488846063
0.0074949241243302
0.0072613405063748
0.006983736064285
0.0066398079507052
0.0061861649155616
0.0055668605491518
0.0047299200668931
0.0036409744061529
0.0022878900635987
0.0006822126451879
-0.0011360936332494
-0.003095360007137
-0.0050976481288671
-0.0070330598391592
-0.0087965372949838
-0.0102992700412869
-0.0114746522158384
-0.0122836083173751
-0.012717742472887
-0.0127960937097668
-0.0125576891005039
-0.0120555777102708
-0.0113530633971095
-0.0105194766074419
-0.009625619277358
-0.0087388325482606
-0.007915910333395
-0.0071947420947253
-0.0065891994163393
-0.0060907611623406
-0.0056742667220532
-0.0053050834685564
-0.0049474453553557
-0.0045701302587985
-0.0041481992229819
-0.0036647936794906
-0.0031128567643463
-0.002493523992598
-0.0018115962157025
-0.0010731833754107
-0.0002884690184146
0.0005260107573121
0.001349264755845
0.0021580851171165
0.0029288029763847
0.003640123642981
0.0042750658467411
0.0048221135511994
0.0052784299477934
0.0056520653888583
0.0059586949646472
0.006215990986675
0.0064396630041301
0.0066421162337064
0.0068341558799147
0.0070254495367407
0.0072196731343865
0.0074099199846386
0.0075809834524989
0.0077164652757346
0.0078047774732112
0.0078409546986222
0.0078252078965306
0.0077592423185706
0.0076399040408432
0.0074521671049296
0.0071644550189375
0.0067288936115801
0.0060903090052306
0.0052029639482498
0.00404669996351
0.0026346081867814
0.001011564861983
-0.0007516797631978
-0.0025662537664175
-0.0043343841098248
-0.0059583340771496
-0.0073491260409355
-0.0084365420043468
-0.0091772964224219
-0.0095579652115702
-0.0095947999507188
-0.0093306582421064
-0.0088275857269763
-0.0081581445410847
-0.0073966616764664
-0.006609296426177
-0.0058462964370846
-0.0051407227292656
-0.0045118723064661
-0.0039680302143096
-0.0035071838647127
-0.0031176595948636
-0.0027802689000964
-0.0024718607310205
-0.0021677887998521
-0.0018427078612148
-0.0014732941053807
-0.0010440174955874
-0.0005512986099347
-2.4640467017889023e-06
0.0005885602440685
0.0012055992847308
0.0018329567974433
0.0024554491974413
0.0030572731047868
0.003622694639489
0.0041381316259503
0.0045936820097267
0.0049834977835416
0.0053060664795339
0.0055654840543866
0.0057713445276021
0.0059361355379223
0.0060723447240889
0.0061895051039755
0.0062920036725699
0.0063801240175962
0.0064527322538197
0.0065077012404799
0.006540744099766
0.0065467059612274
0.0065235910005867
0.0064740423113107
0.0064010131172835
0.0063030421733856
0.0061750789172947
0.0060131158679723
0.0058178063482046
0.0055930353701114
0.0053390152752399
0.005044562742114
0.0046819588169455
0.0042063072323799
0.0035630222409963
0.0027006892487406
0.0015818839892745
0.0001917360350489
-0.0014547081664204
-0.0033092421945184
-0.0052912323735654
-0.0072935074567794
-0.0091972257941961
-0.0108910584822297
-0.012285578995943
-0.013321422971785
-0.0139731224626302
-0.0142476819455623
-0.0141786523163318
-0.0138187240809202
-0.0132316518574953
-0.0124847292900085
-0.0116442125290632
-0.0107715874910354
-0.0099183358252048
-0.0091220252215862
-0.0084049878641963
-0.0077728889882564
-0.0072144814766943
-0.0067058368586003
-0.0062166005373001
-0.0057154349051415
-0.005174589343369
-0.0045734802260994
-0.0039018369279801
-0.0031610114965587
-0.0023614212404936
-0.0015187147073447
-0.0006519071757793
0.0002176007255911
0.0010684379376471
0.0018827464664354
0.0026483975816518
0.0033584469929337
0.0040091890841722
0.0045991679653525
0.0051291724666953
0.0056018303148448
0.0060212356038391
0.0063935285434126
0.0067266887053847
0.0070292353630065
0.0073106037452816
0.0075814211741089
0.0078495424240827
0.0081151919439435
0.0083706136792898
0.0086031090468168
0.0087981801480054
0.0089412592351436
0.0090189408510923
0.0090217757970094
0.0089478073641657
0.0088041834533214
0.0086054475978016
0.0083702960982918
0.0081193288788199
0.0078711677342653
0.0076346294954419
0.0074004996567964
0.007135359570384
0.0067795803770422
0.006255155429244
0.005483666434884
0.0044071907177567
0.0030054410453885
0.0013040013145655
-0.0006284944247454
-0.0026903855614364
-0.0047599948011338
-0.0067117284052073
-0.0084337573498487
-0.0098412968218326
-0.0108825769275426
-0.0115389050915837
-0.011820962652564
-0.0117647284641861
-0.0114273419603705
-0.0108802560716867
-0.0102000525221228
-0.0094593791291117
-0.0087200533598661
-0.0080283442512154
-0.0074117803014814
-0.0068792952224612
-0.006425367668271
-0.0060344450175762
-0.0056828502565622
-0.0053407857194542
-0.0049772369675338
-0.0045651914551854
-0.0040844893082976
-0.0035243134479969
-0.0028854655101895
-0.0021791285835206
-0.001423695939593
-0.0006427802145481
0.0001375922001898
0.0008941978449001
0.0016113468445837
0.0022813337855041
0.0029017901979386
0.0034737265668809
0.0040000239387154
0.0044834446161985
0.004926158580929
0.0053318524733185
0.005706931464374
0.0060564540326595
0.0063785822130739
0.0066652428358793
0.0069076763466
0.0071002254262566
0.0072410432621836
0.0073313913308084
0.0073744882829487
0.0073757176287472
0.0073431855998933
0.0072856778278946
0.0072109033353626
0.0071267895400524
0.007041506934911
0.0069592553190886
0.0068727224133908
0.0067539331503212
0.0065501234494149
0.0061909416690468
0.0056039900518953
0.0047326763160526
0.0035517062060534
0.002075009746477
0.0003550052642822
-0.0015231682918965
-0.0034513459540903
-0.0053120404481887
-0.0069926613941788
-0.0083976713940501
-0.0094578433781862
-0.0101347640156745
-0.0104215620085597
-0.0103431418538093
-0.0099550280719995
-0.0093363067135214
-0.0085768634453415
-0.0077646831050515
-0.0069758589379489
-0.0062658195383846
-0.0056640980765223
-0.005176599137485
-0.0047919638454914
-0.0044863373041152
-0.0042273621074855
-0.0039802584797143
-0.003714284626767
-0.0034046131186187
-0.0030306791886687
-0.0025789076462388
-0.0020488533191382
-0.0014534516958519
-0.0008130874484777
-0.0001496917102485
0.0005168402567505
0.001170365139842
0.0017989416373893
0.002393901348114
0.0029484028927981
0.0034577939659357
0.0039208796806633
0.0043389848433434
0.004713995847851
0.0050484184175729
0.0053458125330507
0.0056090303696691
0.0058386102318763
0.0060333148576319
0.0061910091899335
0.0063094273209571
0.0063872477039694
0.0064253518357872
0.0064286259002983
0.006406424101442
0.0063698864541947
0.0063280626200139
0.0062847682274878
0.00623713247478
0.0061767799779772
0.0060907714068889
0.0059565436094999
0.0057321242056787
0.0053532156161963
0.0047449590638279
0.0038423975929617
0.0026091574691236
0.0010494159068912
-0.0007873710710555
-0.0028102262876927
-0.0048996601253747
-0.006925871130079
-0.0087656062096357
-0.0103144478052854
-0.0114963520318269
-0.0122702224180102
-0.0126292742788791
-0.0125957168638706
-0.012217846699059
-0.0115677285939455
-0.0107330782338976
-0.0098048336803913
-0.0088659990578889
-0.0079832440242171
-0.0072007183916866
-0.006537428125739
-0.0059892092831432
-0.005533286370337
-0.0051348228007555
-0.0047557037323713
-0.0043612197041511
-0.0039220880717039
-0.0034150541760027
-0.0028252443298697
-0.0021499365102499
-0.0013999079819768
-0.0005958629772067
0.0002373694442212
0.0010755280964076
0.0018974370323121
0.0026850150898098
0.0034222570247948
0.004096039570868
0.0046987393870949
0.005229627713561
0.0056937015615403
0.0060996785759925
0.0064587714150547
0.0067835124209523
0.0070843352004885
0.0073649962432682
0.0076221693307161
0.0078489352017641
0.0080368034541606
0.0081771751865744
0.0082653164863586
0.0083042588084936
0.0083052162081003
0.0082839168608188
0.0082547534257173
0.0082267308607697
0.0082027753815054
0.0081806983798742
0.0081548960879445
0.0081175351515412
0.0080580227077007
0.0079598957672715
0.0077943671494722
0.0075155035592615
0.0070627694949507
0.006369593553245
0.005376380868256
0.004047380760312
0.0023855806794017
0.00043900241144
-0.0017030847957357
-0.0039220880717039
-0.006086787674576
-0.0080706803128123
-0.0097661670297384
-0.0110930614173412
-0.0120031358674168
-0.0124847218394279
-0.0125649087131023
-0.0123031353577971
-0.0117778601124882
-0.0110737020149827
-0.0102720893919467
-0.009445134550333
-0.0086524728685617
-0.0079386625438928
-0.007329168729484
-0.0068277814425528
-0.0064188321121037
-0.0060722697526216
-0.0057495846413075
-0.0054116821847856
-0.0050261947326362
-0.0045713633298873
-0.0040381224825978
-0.0034299965482205
-0.0027598370797932
-0.0020463946275413
-0.0013113846071064
-0.0005750757409259
0.0001471276627853
0.0008445412386208
0.0015099130105227
0.002138846553862
0.0027294477913528
0.003282023128122
0.0037990964483469
0.0042854095809161
0.0047459146007895
0.0051812869496643
0.0055854432284832
0.0059488639235496
0.0062640123069286
0.0065271165221929
0.0067376638762652
0.0068988241255283
0.0070161670446395
0.0070938160642981
0.0071334494277834
0.0071377651765942
0.0071135880425572
0.0070714126341044
0.0070230355486273
0.0069794193841516
0.0069477683864533
0.0069265654310584
0.0069001265801489
0.0068354024551808
0.0066821314394474
0.0063765980303287
0.005850697401911
0.0050453748553991
0.003923580981791
0.0024806754663586
0.0007522471714764
-0.0011844914406538
-0.0032195297535508
-0.005226107314229
-0.0070768110454082
-0.008656439371407
-0.0098744835704565
-0.0106779653578996
-0.0110574923455715
-0.0110431471839547
-0.0106963198632001
-0.0100998114794492
-0.0093441046774387
-0.0085133519023656
-0.007677081041038
-0.0068879760801792
-0.006181756965816
-0.0055771302431821
-0.0050759543664753
-0.0046647633425891
-0.0043188105337321
-0.0040067518129944
-0.0036951838992536
-0.0033548553474247
-0.0029653250239789
-0.0025145099498331
-0.0019972813315689
-0.0014163430314511
-0.0007824389031156
-0.0001118119107559
0.000576646416448
0.0012619759654626
0.001921116374433
0.0025304150767624
0.0030682394281029
0.0035182684659957
0.0038732537068426
0.004137959331274
0.0043270541355013
0.0044557130895555
0.0045315637253224
0.0045559927821159
0.0045300922356545
0.004458806477487
0.0043525137007236
0.0042267153039574
0.0041002365760505
0.003993113990873
0.003924389835447
0.0039086444303393
0.0039529362693428
0.0040570488199591
0.0042164297774434
0.0044252453371882
0.0046764155849814
0.0049565555527806
0.0052397777326405
0.0054866722784936
0.0056477948091924
0.0056671593338251
0.0054851523600518
0.0050431443378329
0.0042919269762933
0.0032032940071076
0.0017803274095058
6.34416937828064e-05
-0.0018686628900468
-0.0039059419650584
-0.0059212958440184
-0.0077862525358796
-0.0093856072053313
-0.0106314644217491
-0.0114727541804313
-0.0118972593918442
-0.011928423307836
-0.0116187157109379
-0.0110404621809721
-0.0102751422673463
-0.0094022899866104
-0.0084912283346056
-0.007596316281706
-0.0067541017197072
-0.0059831207618117
-0.0052860197611153
-0.0046525914222002
-0.00406394014135
-0.0034978240728378
-0.0029348419047892
-0.0023635847028344
-0.0017815504688769
-0.0011923124548047
-0.0006024055182933
-1.928955316543579e-05
0.0005503648426383
0.0011018849909305
0.0016324191819876
0.0021398721728473
0.0026226935442537
0.0030809054151177
0.0035161527339369
0.003930814564228
0.0043291109614074
0.0047179050743579
0.0051027871668338
0.0054830494336783
0.0058514098636806
0.0061977691948413
0.006514087319374
0.0067980657331645
0.007052456960082
0.0072810780256986
0.0074867769144475
0.0076725920662283
0.0078434785827994
0.0080067692324519
0.0081701353192329
0.0083381682634353
0.00851162802428
0.0086883651092648
0.0088608879595994
0.0090133175253868
0.009124781936407
0.0091768754646182
0.0091560799628496
0.009048942476511
0.0088360179215669
0.0084885004907846
0.0079681705683469
0.007232959382236
0.006247719284147
0.0049961823970079
0.0034901031758636
0.0017725676298141
-8.416315540671349e-05
-0.0019860989414155
-0.0038316678255796
-0.0055276048369705
-0.0069984719157218
-0.0081901373341679
-0.0090726474300026
-0.0096425525844097
-0.0099207945168018
-0.0099462997168302
-0.0097687728703022
-0.0094422278925776
-0.0090193580836057
-0.0085471961647272
-0.0080650290474295
-0.0076044127345085
-0.0071879690513014
-0.0068263569846749
-0.0065181511454284
-0.0062531060539186
-0.006014869082719
-0.0057827373966574
-0.0055339476093649
-0.0052469056099653
-0.0049045328050851
-0.0044970684684813
-0.0040240669623017
-0.0034932792186737
-0.0029161758720874
-0.0023046801798045
-0.0016711838543415
-0.0010287632467225
-0.0003894912952091
0.0002372835879214
0.0008441730169579
0.0014238022267818
0.0019678985700011
0.0024674038868397
0.0029149057809263
0.0033084226306527
0.0036512520164251
0.0039478139951825
0.0042012827470898
0.004415491130203
0.0045976499095559
0.0047580259852111
0.0049071609973907
0.0050532543100416
0.0052010742947459
0.0053506465628743
0.0054934164509177
0.0056092119775712
0.0056671672500669
0.0056276535615324
0.0054437136277556
0.0050647812895476
0.0044441618956625
0.0035490714944899
0.0023706185165792
0.000930605456233
-0.0007167416624724
-0.00248942989856
-0.0042884540744125
-0.0060099433176219
-0.0075544100254774
-0.0088354581966996
-0.0097907055169343
-0.0103904474526643
-0.010639208368957
-0.0105712860822677
-0.0102420197799801
-0.00971538759768
-0.0090528484433889
-0.0083092655986547
-0.0075337113812565
-0.0067686042748391
-0.0060459868982434
-0.0053852782584726
-0.0047948686406016
-0.0042738197371363
-0.0038109102752059
-0.0033858323004096
-0.002975684357807
-0.002560906112194
-0.0021264764945954
-0.0016616572393104
-0.0011601841542869
-0.0006194044835865
-3.897747956216335e-05
0.0005789659917354
0.0012291849125176
0.0019037583842873
0.0025917419698089
0.0032784310169517
0.0039474051445722
0.0045835971832275
0.0051748510450124
0.0057128593325614
0.0061932373791933
0.0066145304590463
0.0069773024879395
0.0072829527780413
0.0075322887860238
0.0077260397374629
0.0078673735260963
0.0079628592357039
0.0080204484984278
0.0080474512651562
0.0080498792231082
0.0080316867679357
0.0079949051141738
0.0079424511641263
0.0078807082027196
0.0078173475340008
0.0077552245929837
0.007688445970416
0.0076046101748943
0.0074899601750075
0.0073315710760653
0.0071159414947032
0.0068273819051682
0.0064467308111488
0.0059485854580998
0.0052988855168223
0.0044575678184628
0.0033881147392094
0.0020700120367109
0.00050805718638
-0.0012628831900656
-0.0031776214018464
-0.0051466203294694
-0.007066928781569
-0.0088359592482447
-0.0103656901046633
-0.0115922167897224
-0.012478893622756
-0.0130155012011528
-0.0132149336859583
-0.013108161278069
-0.0127394329756498
-0.0121632535010576
-0.011441009119153
-0.010634858161211
-0.0098010059446096
-0.0089847352355718
-0.008217760361731
-0.0075188679620623
-0.0068962057121098
-0.0063478085212409
-0.0058608478866517
-0.0054130461066961
-0.0049770711921155
-0.0045248717069625
-0.0040315766818821
-0.0034804120659828
-0.0028649843297898
-0.0021872227080166
-0.0014550066553056
-0.0006810198538005
0.0001183720305562
0.0009254880715161
0.0017248687800019
0.0025034910067915
0.0032467162236571
0.0039377664215862
0.0045629008673131
0.00511473743245
0.0055916812270879
0.005997231695801
0.006339275278151
0.0066287955269217
0.0068779522553086
0.0070971008390188
0.0072928061708807
0.0074679907411336
0.0076230713166296
0.0077581219375133
0.0078740445896983
0.0079693244770169
0.0080363545566797
0.0080641042441129
0.0080443201586604
0.0079743349924683
0.0078565776348114
0.0076977792195975
0.0075076664797961
0.0072961333207786
0.007068941835314
0.0068224845454096
0.0065391375683248
0.0061857034452259
0.0057162484154105
0.0050792591646313
0.0042276792228221
0.0031289777252823
0.0017746437806636
0.0001877734903246
-0.0015760215464979
-0.0034352291841059
-0.0052929422818124
-0.0070482082664966
-0.0086066704243421
-0.0098897702991962
-0.0108417756855487
-0.0114342663437128
-0.0116676650941371
-0.0115690845996141
-0.011186996474862
-0.0105845322832465
-0.0098334364593029
-0.0090087912976741
-0.0081831198185682
-0.0074195144698023
-0.0067636054009199
-0.0062363464385271
-0.0058331321924924
-0.0055303289555013
-0.0052935099229216
-0.0050832410342991
-0.0048596253618597
-0.0045871627517044
-0.0042393640615046
-0.0038020103238523
-0.0032719906885176
-0.0026514295022934
-0.0019443846540525
-0.0011601606383919
-0.0003180101048201
0.0005522213177755
0.001414826256223
0.0022360363509505
0.0029894388280808
0.0036573745310306
0.0042310142889618
0.0047095185145735
0.0050986688584089
0.0054098460823297
0.0056581227108836
0.0058592776767909
0.0060275280848145
0.0061755869537591
0.0063150781206786
0.006453514099121
0.0065898168832063
0.0067143142223358
0.0068135471083223
0.0068744635209441
0.0068859467282891
0.0068404143676161
0.0067355339415371
0.0065736211836338
0.006358862388879
0.0060929404571652
0.0057679894380271
0.0053592845797538
0.0048248283565044
0.0041154557839035
0.0031890184618532
0.0020201902370899
0.0006076326826587
-0.0010176836512982
-0.0027884994633495
-0.0046073859557509
-0.0063612419180572
-0.0079386727884411
-0.0092448825016617
-0.0102118933573365
-0.0108047230169177
-0.0110232643783092
-0.0108985658735036
-0.0104835014790296
-0.0098413554951548
-0.0090379193425178
-0.0081376796588301
-0.0072003970853984
-0.0062773064710199
-0.0054079247638583
-0.004618402570486
-0.0039218477904796
-0.00331870932132
-0.0027973731048405
-0.0023376292083412
-0.0019156481139361
-0.001507697161287
-0.0010929733980447
-0.0006548515520989
-0.0001803140621632
0.0003399509005248
0.0009112127590924
0.0015345958527177
0.0022048647515475
0.0029079064261168
0.0036222464405
0.0043237637728452
0.00498967198655
0.0056000612676143
0.0061380509287118
0.0065906238742172
0.0069510005414485
0.0072204042226076
0.0074066538363695
0.0075217587873339
0.0075813150033354
0.0076039717532694
0.0076097105629742
0.007616588845849
0.0076352665200829
0.0076642483472824
0.0076904217712581
0.0076960446313023
0.0076676947064697
0.0075997221283614
0.0074917622841894
0.0073462966829538
0.0071671302430331
0.006957396864891
0.0067180930636823
0.0064462437294423
0.0061312494799494
0.0057510272599756
0.0052709383890032
0.0046456730924546
0.0038239944260567
0.002758904825896
0.0014220885932445
-0.000183128286153
-0.0020150083582848
-0.003995350562036
-0.0060199494473636
-0.007973626255989
-0.0097453175112605
-0.0112409042194485
-0.0123930908739566
-0.0131681486964225
-0.0135666821151971
-0.0136157628148794
-0.0133583722636103
-0.0128487590700387
-0.01215251814574
-0.0113434307277202
-0.0104935672134161
-0.0096618626266717
-0.0088883787393569
-0.0081958854570984
-0.0075934091582894
-0.0070759640075266
-0.0066237421706318
-0.0062065031379461
-0.0057907365262508
-0.0053449552506208
-0.004843333736062
-0.0042689759284257
-0.0036152845714241
-0.0028848685324192
-0.0020887190476059
-0.001245898194611
-0.0003812171053141
0.0004786434583365
0.0013081233482807
0.002084928099066
0.0027930424548685
0.0034256121143698
0.0039847986772656
0.0044788271188735
0.0049189729616045
0.0053170211613178
0.0056825606152415
0.0060222363099455
0.0063419570215046
0.0066474750638008
0.0069404691457748
0.0072146318852901
0.0074571520090103
0.0076546128839254
0.0077977566979825
0.007882785052061
0.0079112192615866
0.0078893564641475
0.0078263813629746
0.0077316132374107
0.0076128970831632
0.0074762380681931
0.0073259915225207
0.0071667400188744
0.0070056281983852
0.0068495012819767
0.0066956281661987
0.0065231313928961
0.0062910350970923
0.0059423511847853
0.0054124677553772
0.0046420926228165
0.0035917158238589
0.0022520110942423
0.0006492198444902
-0.0011545945890247
-0.0030681474599987
-0.0049835280515253
-0.0067914305254817
-0.0083933295682072
-0.0097081623971462
-0.0106788128614425
-0.011280694976449
-0.0115255620330572
-0.0114552127197384
-0.0111298579722642
-0.0106181679293513
-0.0099898008629679
-0.0093099595978856
-0.0086357146501541
-0.008011307567358
-0.0074629290029406
-0.0069973417557775
-0.0066058197990059
-0.006270274054259
-0.0059671052731573
-0.0056682233698666
-0.0053434227593243
-0.0049666124396026
-0.0045224032364785
-0.0040077026933431
-0.0034278030507266
-0.0027916291728615
-0.0021093636751174
-0.0013915254967287
-0.0006495418492704
0.0001026126556098
0.0008491085609421
0.0015751310857012
0.0022687660530209
0.0029219640418887
0.003532130504027
0.0041021225042641
0.0046350597403943
0.0051275203004479
0.0055685667321085
0.0059453826397657
0.0062499241903424
0.0064813792705535
0.0066446946002542
0.0067494940012693
0.0068101212382316
0.0068430872634053
0.0068620820529758
0.0068749724887311
0.006884416565299
0.006890557706356
0.0068942941725254
0.0068997596390545
0.006912238895893
0.0069297649897634
0.0069349016994237
0.0068931207060813
0.0067564831115305
0.006469112355262
0.0059741265140473
0.0052240481600165
0.0041930843144655
0.0028845760971307
0.0013313519302755
-0.0004062666557729
-0.0022433125413954
-0.004077261313796
-0.0057998709380626
-0.0073103019967675
-0.0085264816880226
-0.009394739754498
-0.0098970234394073
-0.0100512858480215
-0.0099034272134304
-0.009515618905425
-0.0089559573680162
-0.0082910768687725
-0.0075819832272827
-0.0068817436695098
-0.006232728715986
-0.0056633241474628
-0.0051860087551176
-0.0047975019551813
-0.0044798455201089
-0.0042025642469525
-0.0039281961508095
-0.0036218576133251
-0.0032599724363535
-0.002832441125065
-0.0023386166431009
-0.0017819701461121
-0.0011681121541187
-0.0005059265531599
0.0001918515190482
0.0009093894623219
0.0016286042518913
0.0023304144851863
0.0029972142074257
0.0036155644338577
0.0041779037564992
0.0046842894516885
0.0051421001553535
0.0055583384819328
0.005929741077125
0.0062432903796434
0.0064859390258789
0.0066520581021904
0.0067453426308929
0.0067776683717966
0.006765307392925
0.0067247878760099
0.0066703981719911
0.0066121644340455
0.0065551889128983
0.0065003666095435
0.0064450474455952
0.0063855643384158
0.0063198893330991
0.0062465546652674
0.0061635631136596
0.0060694366693496
0.0059618344530463
0.0058331256732344
0.0056657632812857
0.0054285498335957
0.0050765518099069
0.0045577865093946
0.003824247745797
0.0028414896223694
0.001595311332494
9.803567081689836e-05
-0.0016064229421317
-0.0034431966487318
-0.0053157471120357
-0.0071213068440556
-0.008765859529376
-0.0101733841001987
-0.0112896207720041
-0.0120847783982753
-0.0125554744154214
-0.0127218617126345
-0.0126204788684844
-0.0122976442798972
-0.0118056163191795
-0.0111991595476865
-0.010530836880207
-0.0098461899906396
-0.009179588407278
-0.0085519710555672
-0.0079712653532624
-0.0074342084117233
-0.0069297719746828
-0.0064440984278917
-0.0059631923213601
-0.0054731895215809
-0.0049617062322795
-0.0044189537875354
-0.0038364604115486
-0.0032054425682872
-0.002517850138247
-0.0017704595811665
-0.0009688818827271
-0.000127918086946
0.0007328533101826
0.0015948533546179
0.002441662363708
0.0032552233897149
0.0040132524445652
0.0046924841590225
0.0052759768441319
0.0057580266147851
0.0061431508511304
0.0064427955076098
0.0066730272956192
0.0068519241176545
0.0069967433810234
0.0071219806559383
0.007238233461976
0.0073527516797184
0.0074715306982398
0.0076002678833901
0.0077420957386493
0.0078937718644738
0.0080447681248188
0.0081801619380712
0.0082840044051408
0.0083419308066368
0.008343948982656
0.0082864388823509
0.0081708757206797
0.0079992525279521
0.0077695595100522
0.0074726110324263
0.007089058868587
0.006587250623852
0.0059254644438624
0.0050622620619833
0.0039711231365799
0.0026499228551983
0.0011224516201764
-0.0005641261814162
-0.0023429084103554
-0.0041323117911815
-0.0058440114371478
-0.0073936060070991
-0.0087114637717604
-0.0097492318600416
-0.010480766184628
-0.0109016885980963
-0.0110291130840778
-0.0108991870656609
-0.0105613460764288
-0.0100702522322535
-0.0094785429537296
-0.0088340863585472
-0.0081811109557747
-0.0075596813112497
-0.0070015215314924
-0.0065253167413175
-0.0061334376223385
-0.005811826325953
-0.0055338363163173
-0.0052658943459391
-0.0049733156338334
-0.0046257083304226
-0.0042011551558971
-0.0036880436819046
-0.003083940828219
-0.0023926568683236
-0.0016235418152064
-0.0007946968544274
6.580492481589317e-05
0.0009243371896445
0.0017475691856816
0.0025075708981603
0.0031865185592323
0.0037782127037644
0.0042850258760154
0.0047140731476247
0.0050758644938468
0.0053834021091461
0.0056496853940188
0.0058855004608631
0.0060997400432825
0.0063022649846971
0.0065043158829212
0.0067126490175724
0.0069245002232491
0.0071295914240181
0.007314711343497
0.0074668945744633
0.0075755901634693
0.0076339999213814
0.0076400199905037
0.0075962273404002
0.0075070704333484
0.0073737134225666
0.0071885627694427
0.00693168817088
0.0065708998590707
0.0060657677240669
0.0053747361525893
0.0044638500548899
0.0033159791491925
0.0019380250014364
0.0003639170899987
-0.0013457448221743
-0.0031087878160178
-0.0048318966291844
-0.0064217229373753
-0.0077945124357938
-0.0088850650936365
-0.0096536735072731
-0.0100895930081605
-0.0102100390940904
-0.0100531606003642
-0.0096680773422122
-0.0091094076633453
-0.0084370914846658
-0.0077142822556197
-0.0070000044070184
-0.0063412026502192
-0.0057678739540278
-0.0052904528565704
-0.004900524392724
-0.0045754704624414
-0.0042835879139602
-0.0039897826500236
-0.0036634723655879
-0.0032839928753674
-0.0028399738948792
-0.0023258097935467
-0.0017387878615409
-0.0010797167196869
-0.0003577005118131
0.0004065461689606
0.0011841097148135
0.0019449536921456
0.002662670565769
0.0033164964988827
0.003893001936376
0.0043875412084162
0.0048042549751698
0.0051540858112275
0.005451108328998
0.0057083247229456
0.0059351762756705
0.0061380984261631
0.0063227638602256
0.0064948759973049
0.0066570984199643
0.0068051796406507
0.0069291931577026
0.0070187402889132
0.0070667560212314
0.0070707336999475
0.0070318016223609
0.0069528031162917
0.0068379617296159
0.0066935885697603
0.0065276599489152
0.0063483542762696
0.0061619323678314
0.0059695355594158
0.0057635619305074
0.005524824373424
0.0052203927189111
0.0048036510124802
0.0042186602950096
0.003408818738535
0.002330218674615
0.0009664052631705
-0.0006624935194849
-0.0024989866651594
-0.0044548930600285
-0.0064233224838972
-0.0082929208874702
-0.0099609652534127
-0.0113433897495269
-0.0123825035989284
-0.0130504695698618
-0.0133476871997118
-0.0133012626320123
-0.0129635278135538
-0.0124049801379442
-0.0117027722299098
-0.0109303910285234
-0.0101509969681501
-0.009413574822247
-0.0087505057454109
-0.0081759812310338
-0.0076859015971422
-0.0072608599439263
-0.0068718045949935
-0.0064855962991714
-0.0060694245621562
-0.0055941231548786
-0.0050365310162305
-0.0043833740055561
-0.0036360330414026
-0.0028106635436415
-0.0019330901559442
-0.0010325890034437
-0.00013636960648
0.000733429333195
0.0015595536679029
0.0023294710554182
0.0030359774827957
0.003676758846268
0.0042540598660707
0.0047743036411702
0.0052464725449681
0.0056813871487975
0.0060909241437911
0.0064838239923119
0.0068606911227107
0.007213364355266
0.0075296191498637
0.0077997101470828
0.0080197807401418
0.0081908432766795
0.0083166733384132
0.0084026157855987
0.0084546906873583
0.0084788063541054
0.0084801791235804
0.0084631405770778
0.0084308795630931
0.0083851870149374
0.0083269793540239
0.0082559380680322
0.0081692412495613
0.0080613596364855
0.0079231495037674
0.0077380766160786
0.0074776513502001
0.0070997849106788
0.0065519325435161
0.005779786966741
0.0047404104843735
0.0034149447456002
0.0018164347857236
-8.753733709454536e-06
-0.0019842348992824
-0.0040086810477077
-0.0059652142226696
-0.0077391816303133
-0.0092381378635764
-0.0104031162336468
-0.0112099889665842
-0.0116666816174983
-0.0118084121495485
-0.0116895660758018
-0.0113728623837232
-0.0109195159748196
-0.0103832939639687
-0.0098087387159466
-0.0092309163883328
-0.0086736362427473
-0.0081475526094436
-0.0076512112282216
-0.0071749472990632
-0.0067061623558402
-0.0062341345474123
-0.0057516456581652
-0.0052527291700243
-0.0047301650047302
-0.0041756527498364
-0.0035814670845866
-0.0029430142603814
-0.0022619129158556
-0.0015468479832634
-0.0008109288755804
-6.744405254721642e-05
0.000672134454362
0.0013971329899504
0.0020978318061679
0.0027661679778248
0.0033931699581444
0.0039666919037699
0.0044744363985955
0.0049092322587966
0.0052711851894855
0.0055669695138931
0.0058076400309801
0.0060053272172808
0.0061714882031083
0.0063168881461024
0.0064512253738939
0.0065826838836073
0.0067171780392527
0.0068568824790418
0.0069997985847294
0.0071409363299608
0.0072728283703327
0.0073849931359291
0.0074653155170381
0.0075035369955003
0.0074937231838703
0.007433561142534
0.0073205255903303
0.0071469745598733
0.006896199658513
0.0065405112691223
0.0060429857112467
0.0053633511997759
0.0044660712592303
0.0033300477080047
0.0019598205108195
0.0003927648067474
-0.0013037888566032
-0.0030441666021943
-0.0047384956851601
-0.0063037979416549
-0.0076698092743754
-0.0087814312428236
-0.009601280093193
-0.0101128313690423
-0.0103217922151088
-0.0102553935721516
-0.0099596939980983
-0.0094933789223432
-0.0089198527857661
-0.0082998722791671
-0.0076841283589601
-0.0071075619198381
-0.0065887542441487
-0.0061339074745774
-0.0057410215958952
-0.0054012131877243
-0.0050989547744393
-0.0048140017315745
-0.0045243678614497
-0.0042083864100277
-0.003846471896395
-0.0034235888160765
-0.0029313825070858
-0.0023695803247392
-0.0017460428643971
-0.0010742009617388
-0.0003692612517625
0.0003540782490745
0.0010807877406477
0.0017932353075593
0.0024718202184885
0.0030989523511379
0.0036624078638851
0.0041561662219464
0.0045804446563124
0.0049416334368288
0.0052505955100059
0.0055188457481563
0.0057552093639969
0.0059657851234078
0.006155177950859
0.0063271070830523
0.0064857308752834
0.0066351615823805
0.0067755770869553
0.0069013861939311
0.007004149723798
0.0070756068453192
0.0071090459823608
0.0071014552377164
0.0070543307811021
0.006970171816647
0.0068468879908323
0.0066722682677209
0.006419613957405
0.0060475962236523
0.0055051688104867
0.0047404491342604
0.0037143039517104
0.0024142391048371
0.000860194908455
-0.0008967868052423
-0.0027784686535596
-0.0046875905245542
-0.0065198531374335
-0.0081758648157119
-0.0095715876668691
-0.0106472196057438
-0.0113730216398835
-0.0117490226402878
-0.0117997583001852
-0.011568640358746
-0.0111126415431499
-0.0104953553527593
-0.0097783971577882
-0.0090149026364088
-0.0082489289343357
-0.0075175706297159
-0.0068496782332658
-0.0062615280039608
-0.0057546724565327
-0.0053176656365394
-0.0049295062199234
-0.0045632915571331
-0.0041892905719578
-0.0037788606714457
-0.0033100745640695
-0.0027707703411579
-0.0021582287736237
-0.0014785325620323
-0.0007441826164722
2.9835617169737816e-05
0.0008277208544313
0.0016323945019394
0.0024259912315756
0.0031909313984215
0.0039098728448152
0.0045666815713047
0.0051499530673027
0.0056557897478342
0.0060863187536597
0.0064466022886335
0.0067447954788804
0.0069928667508065
0.0072038536891341
0.0073890630155801
0.0075583113357424
0.0077203516848385
0.0078797172755002
0.0080317938700318
0.008162741549313
0.0082559445872902
0.0082988608628511
0.0082862302660942
0.008221361786127
0.008115604519844
0.0079845180734992
0.0078421123325824
0.0076961941085755
0.0075480067171156
0.007395370863378
0.0072349868714809
0.0070625990629196
0.0068704662844538
0.0066409739665687
0.0063397344201803
0.0059139942750334
0.0052995691075921
0.0044351951219141
0.0032792747952044
0.0018230758141726
9.595882147550584e-05
-0.0018375348299741
-0.0038854801096022
-0.0059395777061581
-0.0078884530812501
-0.0096303112804889
-0.0110816098749637
-0.0121815679594874
-0.0128964204341173
-0.0132243558764457
-0.0131963342428207
-0.0128703266382217
-0.0123213306069374
-0.0116305779665708
-0.0108757391571998
-0.0101228579878807
-0.0094220228493213
-0.0088063636794686
-0.0082911252975463
-0.0078740268945693
-0.0075383386574685
-0.0072553376667201
-0.0069862850941717
-0.0066873305477201
-0.006317320279777
-0.005847209598869
-0.0052676424384117
-0.0045885862782597
-0.003831650596112
-0.0030226209200918
-0.0021875025704503
-0.0013498875778168
-0.0005286014638841
0.00026334321592
0.0010182249825447
0.0017323128413408
0.0024041708093136
0.0030328868888318
0.0036174920387566
0.0041584088467061
0.0046582357026636
0.0051185935735702
0.005536975339055
0.0059086186811327
0.0062302276492118
0.0065018464811146
0.0067274174652993
0.0069143660366535
0.0070713916793465
0.0072042709216475
0.0073136533610522
0.0073984214104712
0.0074598132632672
0.0075010904110968
0.0075253192335367
0.0075354939326643
0.0075364983640611
0.0075342613272368
0.0075302217155694
0.0075165075249969
0.0074759512208402
0.0073835011571645
0.0072060767561197
0.0069031729362905
0.0064301025122404
0.0057440404780209
0.0048127225600183
0.0036235102452337
0.0021900818683207
0.0005550088826566
-0.001212240778841
-0.0030206497758626
-0.0047672381624579
-0.0063524255529046
-0.0076961703598499
-0.008746787905693
-0.0094810910522937
-0.0099005438387393
-0.0100268423557281
-0.0098971780389547
-0.0095595084130764
-0.0090684201568365
-0.0084806634113192
-0.0078507279977202
-0.0072271474637091
-0.0066478345543146
-0.0061356211081147
-0.0056970752775669
-0.0053249271586537
-0.0050029726698994
-0.0047109792940318
-0.0044277976267039
-0.0041334489360451
-0.003810551483184
-0.0034448099322617
-0.0030253541190177
-0.0025448757223784
-0.0019993460737168
-0.0013893240829929
-0.0007225950248539
-1.4770659618079662e-05
0.0007132001919671
0.0014396532205864
0.0021470186766237
0.0028229304589331
0.0034567243419587
0.0040371813811361
0.004554443527013
0.0050019640475511
0.0053776451386511
0.0056848642416298
0.005931400693953
0.0061267428100109
0.0062798126600682
0.006398506462574
0.0064905653707683
0.0065634623169898
0.0066236476413905
0.0066772159188985
0.0067310421727597
0.0067907557822763
0.006855203770101
0.0069127711467444
0.0069442461244761
0.0069310734979808
0.0068622794933617
0.0067338277585804
0.0065427245572209
0.0062819020822644
0.0059362789615988
0.0054794801399111
0.0048743248917162
0.0040787640027701
0.0030556132551282
0.0017847339622676
0.0002753022126853
-0.0014289766550064
-0.0032557575032114
-0.0051152929663658
-0.0069118826650083
-0.0085552409291267
-0.0099691934883594
-0.0110966190695762
-0.0119035821408033
-0.012382079847157
-0.0125485891476273
-0.0124388057738542
-0.0121012916788458
-0.0115918768569827
-0.0109679829329252
-0.0102818524464964
-0.0095740919932723
-0.0088714910671114
-0.0081914504989981
-0.0075474078767001
-0.006948600988835
-0.0063966820016503
-0.0058845463208854
-0.0053977090865373
-0.0049166018143296
-0.0044202432036399
-0.0038907937705516
-0.0033159051090478
-0.0026881741359829
-0.0020050457678735
-0.0012713535688817
-0.000500094378367
0.0002929111942648
0.0010941287036985
0.0018901786534115
0.002663780702278
0.0033953229431062
0.0040684011764824
0.0046738199889659
0.0052100764587521
0.0056812791153788
0.0060939961113035
0.0064549488015472
0.0067708175629377
0.0070482157170772
0.0072916699573397
0.0075021153315901
0.0076793483458459
0.0078264735639095
0.0079508898779749
0.0080601805821061
0.0081574618816375
0.0082414103671908
0.0083090532571077
0.0083558345213532
0.0083749135956168
0.008359795436263
0.0083073200657963
0.0082182381302118
0.0080961538478732
0.007945074699819
0.0077665806747972
0.0075580473057925
0.0073117823339998
0.0070136007852852
0.0066396431066095
0.0061532836407423
0.0055066053755581
0.0046490058302879
0.0035404281225055
0.002164973411709
0.000540901441127
-0.0012778283562511
-0.0032088456209748
-0.0051519246771931
-0.0070000342093408
-0.0086526777595281
-0.0100299380719661
-0.0110808340832591
-0.0117839081212878
-0.012144255451858
-0.0121897310018539
-0.0119664883241057
-0.0115342149510979
-0.0109602138400077
-0.0103120254352688
-0.009650663472712
-0.0090253185480833
-0.0084693469107151
-0.0079981507733464
-0.0076091671362519
-0.0072841853834688
-0.006993964780122
-0.0067040505819022
-0.006380122154951
-0.0059927348047494
-0.005521822720766
-0.0049584894441068
-0.0043037179857492
-0.0035676411353051
-0.0027689486742019
-0.0019314783858135
-0.0010792727116495
-0.0002327654510736
0.0005924504948779
0.0013844682835042
0.002134162466973
0.0028356441762298
0.0034861175809055
0.0040841833688318
0.0046286978758871
0.0051192971877753
0.0055574295111
0.0059469733387231
0.006292781792581
0.0065974937751889
0.0068602613173425
0.0070790559984743
0.0072544440627098
0.0073912618681788
0.0074962489306926
0.0075740069150924
0.0076256180182099
0.007650792133063
0.0076514724642038
0.0076335649937391
0.007604596670717
0.0075702001340687
0.0075326696969568
0.007491320837289
0.0074421153403818
0.0073753474280238
0.0072761606425046
0.007129518315196
0.0069220708683133
0.0066379560157656
0.0062543605454266
0.0057401731610298
0.0050579248927533
0.0041706729680299
0.0030526192858815
0.0016987959388643
0.0001305404584854
-0.001603014068678
-0.0034258528612554
-0.0052416920661926
-0.0069494303315877
-0.0084602199494838
-0.0097083849832415
-0.0106559786945581
-0.0112918624654412
-0.0116272289305925
-0.0116906175389885
-0.0115231610834598
-0.0111737130209803
-0.0106945084407925
-0.0101378113031387
-0.0095518231391906
-0.0089760404080152
-0.0084385918453335
-0.0079543236643075
-0.0075234780088067
-0.0071355053223669
