bvp
-0.0021971373353153
-0.00184047059156
-0.0015887874178588
-0.0014257911825552
-0.0013255116064101
-0.0012581984046846
-0.0011940270196646
-0.0011047015432268
-0.0009640852222219
-0.0007506370311602
-0.0004528844729065
-7.4162264354527e-05
0.0003682539099827
0.0008497261442244
0.0013456641463562
0.0018354374915361
0.0023021423257887
0.0027309446595609
0.0031098197214305
0.0034321094863116
0.0036969711072742
0.0039077517576515
0.0040716691873967
0.0042007518932223
0.0043105999939143
0.0044148992747068
0.0045174360275268
0.0046085007488727
0.0046711866743862
0.0046922396868467
0.0046677542850375
0.0046023642644286
0.0045063216239213
0.0043909945525228
0.0042614224366843
0.0041086566634476
0.0039061801508069
0.0036125518381595
0.0031800395809113
0.0025677431840449
0.0017552509671077
0.0007490336429327
-0.0004205192672088
-0.0017042811959981
-0.0030382270924746
-0.0043491474352777
-0.005564100574702
-0.0066195363178849
-0.007465414237231
-0.0080669624730944
-0.0084074884653091
-0.0084902374073863
-0.0083373878151178
-0.0079860296100378
-0.0074823265895247
-0.0068759159184992
-0.0062147970311343
-0.0055417595431208
-0.0048937601968646
-0.0043017491698265
-0.0037880660966038
-0.0033624193165451
-0.0030197156593203
-0.0027411771006882
-0.0024982509203255
-0.0022586230188608
-0.0019920584745705
-0.0016750989016145
-0.0012947998475283
-0.0008489575702697
-0.0003434240352362
0.0002102898433804
0.0007982703391462
0.0014067217707633
0.0020195220131427
0.0026156259700655
0.0031725503504276
0.0036718952469527
0.0041015688329935
0.0044562607072293
0.0047376230359077
0.0049531427212059
0.0051144966855645
0.0052359062246978
0.0053322236053645
0.0054174177348613
0.0055028023198246
0.0055948006920516
0.0056948130950331
0.0058007379993796
0.005906356498599
0.0059996731579303
0.0060643809847533
0.0060844826512038
0.0060490621253848
0.0059550842270255
0.0058076255954802
0.0056176246143877
0.0053969961591064
0.0051506329327821
0.004868371412158
0.004523143172264
0.0040759700350463
0.0034849310759454
0.0027172567788511
0.0017594245728105
0.0006199756171554
-0.0006707936991006
-0.0020613521337509
-0.003483906853944
-0.0048635900020599
-0.0061275884509086
-0.0072131603956222
-0.0080741299316287
-0.0086844563484191
-0.0090377889573574
-0.0091443313285708
-0.0090279076248407
-0.0087231360375881
-0.0082720760256052
-0.007720723748207
-0.0071147107519209
-0.0064958203583955
-0.005901082418859
-0.005361414514482
-0.0048970044590532
-0.0045125638134777
-0.0041978042572736
-0.0039322697557508
-0.0036892276257276
-0.0034381251316517
-0.0031485501676797
-0.0027959374710917
-0.0023667784407734
-0.0018605873920023
-0.0012873017694801
-0.0006625965470448
-5.132867954671383e-06
0.0006638725753873
0.0013209637254476
0.0019420561147853
0.0025057685561478
0.0029967287555336
0.0034067521337419
0.0037349388003349
0.0039876885712146
0.0041775121353566
0.0043205581605434
0.0044341008178889
0.0045344270765781
0.0046341074630618
0.0047396249137818
0.004852797370404
0.0049743731506168
0.0051039857789874
0.0052363043650984
0.0053592161275446
0.0054571842774748
0.005516726989299
0.0055293845944106
0.0054912315681576
0.0054017272777855
0.005264155101031
0.0050869192928075
0.004882862791419
0.0046647815033793
0.0044391327537596
0.0042011700570583
0.0039330790750682
0.0036050959024578
0.0031785478349775
0.0026118590030819
0.0018706701230257
0.0009386769961565
-0.0001752129755914
-0.0014353384030982
-0.0027831487823277
-0.0041453400626778
-0.0054441103711724
-0.006606017705053
-0.0075689628720283
-0.0082879569381475
-0.0087386034429073
-0.0089190434664487
-0.0088484734296798
-0.0085613783448934
-0.0081035178154706
-0.0075298892334103
-0.0068992101587355
-0.0062660691328346
-0.0056752683594822
-0.0051595917902886
-0.0047383438795804
-0.0044146762229502
-0.0041753011755645
-0.0039953980594873
-0.0038447219412773
-0.0036913314834237
-0.0035054585896432
-0.0032640462741255
-0.0029513903427869
-0.0025572043377906
-0.0020786700770258
-0.001525156549178
-0.0009180071647278
-0.0002844656119123
0.0003486757050268
0.0009590802364982
0.0015308305155485
0.0020538929384201
0.0025220264215022
0.0029321683105081
0.0032856236211955
0.0035873509477823
0.0038427668623626
0.0040566930547356
0.0042354823090136
0.004387816414237
0.0045220688916742
0.0046430435031652
0.0047508561983704
0.0048421323299407
0.0049126814119517
0.0049598710611462
0.0049836188554763
0.0049872081726789
0.0049772565253078
0.0049607460387051
0.0049400008283555
0.0049073128029704
0.0048402920365333
0.0047009410336613
0.0044424859806895
0.0040219710208475
0.003409820375964
0.0025932544376701
0.0015789400786161
0.0003969864919781
-0.0008978671976365
-0.0022313217632472
-0.0035199709236621
-0.004683369770646
-0.005654327571392
-0.00638581905514
-0.0068537150509655
-0.0070566721260547
-0.00701509648934
-0.0067673255689442
-0.0063621010631322
-0.0058507323265075
-0.0052818013355135
-0.0046988031826913
-0.0041384911164641
-0.003627847880125
-0.0031814440153539
-0.0028020837344229
-0.0024845188017934
-0.0022186185233294
-0.0019897988531738
-0.0017795549938455
-0.0015675122849643
-0.0013329832581803
-0.0010582492686808
-0.0007331602973863
-0.000353887793608
8.2191894762218e-05
0.0005758497864007
0.0011200387962162
0.0016967605333775
0.0022799493744969
0.0028416560962796
0.0033576437272131
0.0038113188929855
0.0041959998197853
0.0045126359909772
0.0047644432634115
0.0049556186422705
0.0050938501954078
0.0051895678043365
0.0052523626945912
0.0052908160723745
0.005314259789884
0.0053304452449083
0.0053413701243698
0.0053427568636834
0.0053265397436916
0.0052844607271254
0.0052113863639533
0.0051058875396847
0.0049696033820509
0.004808057565242
0.0046307402662932
0.0044478503987193
0.0042645055800676
0.004075186792761
0.0038614924997091
0.0035951775498688
0.0032436794135719
0.0027727836277335
0.002148765604943
0.0013460642658174
0.0003570520784705
-0.0008028415031731
-0.0020939407404512
-0.0034548237454146
-0.0048115514218807
-0.0060892822220921
-0.0072198510169982
-0.0081466389819979
-0.0088283261284232
-0.0092417933046817
-0.0093854377046227
-0.0092795826494693
-0.0089618954807519
-0.0084820138290524
-0.0078973276540637
-0.0072677470743656
-0.0066485935822129
-0.0060836425982415
-0.0056003956124186
-0.0052079167217016
-0.0048978575505316
-0.0046489844098687
-0.0044329306110739
-0.0042191613465547
-0.0039789746515452
-0.0036880981642752
-0.0033284660894423
-0.0028896911535412
-0.0023697828873991
-0.001776517368853
-0.0011287024244666
-0.0004533741157501
0.0002206134377047
0.0008687737281434
0.0014744329964742
0.0020285928621888
0.0025281871203333
0.0029742163605988
0.0033694258891046
0.0037168678827583
0.004019621759653
0.0042808698490262
0.0045051872730255
0.0046998397447168
0.0048735486343503
0.0050335535779595
0.0051831947639584
0.0053204759024083
0.0054377615451812
0.0055237109772861
0.0055675711482763
0.0055628488771617
0.0055084088817238
0.0054096681997179
0.0052796299569308
0.005134969484061
0.0049879094585776
0.0048392806202173
0.0046753911301493
0.0044693881645798
0.0041850302368402
0.003779980354011
0.0032121127005666
0.002450990723446
0.001489449176006
0.0003509413218125
-0.0009108646772801
-0.0022212974727153
-0.0034976676106452
-0.0046612792648375
-0.0056461137719452
-0.0064032291993498
-0.0069025941193103
-0.0071349665522575
-0.0071131936274468
-0.0068692369386553
-0.0064475429244339
-0.0059002125635743
-0.0052852062508463
-0.0046629318967461
-0.0040881829336285
-0.0036012241616845
-0.00322329509072
-0.0029563081916421
-0.0027840873226523
-0.0026754881255328
-0.0025911908596754
-0.0024918764829635
-0.0023441687226295
-0.0021244203671813
-0.00182036368642
-0.0014296689769253
-0.0009571369737386
-0.0004141058307141
0.0001797943841665
0.0007970235310494
0.0014069038443267
0.0019812963437289
0.002497719367966
0.0029418217018246
0.0033101262524724
0.0036082314327359
0.0038447040133178
0.0040278760716319
0.004166757222265
0.0042712483555078
0.00435137655586
0.0044184522703289
0.0044853528961539
0.0045613748952746
0.0046462584286928
0.0047308094799518
0.0048022181726992
0.0048493300564587
0.004866745788604
0.0048553077504038
0.0048174657858908
0.0047498941421508
0.0046367142349481
0.0044471551664173
0.0041394094005227
0.0036693508736789
0.0030021627899259
0.0021238313056528
0.0010486674727872
-0.0001810778630897
-0.0015042411396279
-0.0028518559411168
-0.0041541075333952
-0.0053443564102053
-0.0063630421645939
-0.0071615157648921
-0.0077063823118805
-0.0079847797751426
-0.0080069191753864
-0.0078032915480434
-0.0074189407750964
-0.0069062430411577
-0.0063162869773805
-0.0056919450871646
-0.0050662811845541
-0.0044653136283159
-0.0039103785529732
-0.0034176525659859
-0.0029957201331853
-0.0026431658770889
-0.0023487922735512
-0.0020936287473887
-0.0018522461177781
-0.0015962395118549
-0.0013012510025873
-0.0009522405453026
-0.000544115086086
-8.015125058591366e-05
0.0004300018772482
0.000973523245193
0.0015370137989521
0.0021050157956779
0.0026576835662126
0.0031731624621897
0.0036332556046545
0.0040271505713462
0.0043518655002117
0.0046113533899188
0.0048144394531846
0.0049720462411642
0.005095106549561
0.0051932865753769
0.0052749775350093
0.0053475606255233
0.0054162479937076
0.005483235232532
0.0055482382886111
0.0056081498041749
0.0056560086086392
0.0056820902973413
0.0056775864213705
0.0056384964846074
0.0055661192163825
0.0054634376429021
0.0053306142799556
0.0051608444191515
0.0049358112737536
0.0046231620945036
0.0041801128536462
0.0035626448225229
0.0027362499386072
0.0016863925848156
0.0004260900896042
-0.0010042608482763
-0.0025433984119445
-0.0041154362261295
-0.0056351395323872
-0.0070163328200578
-0.0081835212185978
-0.00908197555691
-0.0096820006147027
-0.009977800771594
-0.0099838655441999
-0.0097310412675142
-0.009263384155929
-0.0086345197632908
-0.0079026371240615
-0.0071252482011914
-0.0063544809818267
-0.0056347497738897
-0.0050018341280519
-0.0044789942912757
-0.0040724454447627
-0.0037706384900957
-0.0035459799692034
-0.003359627444297
-0.0031710474286228
-0.0029473558533936
-0.0026674903929233
-0.0023219306021928
-0.0019100590143352
-0.0014375360915437
-0.0009145645890384
-0.0003536198055371
0.0002316496102139
0.0008248522644862
0.0014067760203033
0.0019587639253586
0.0024657440371811
0.0029173518996685
0.0033085867762565
0.0036397750955075
0.0039157937280833
0.0041454648599028
0.0043409615755081
0.0045154942199587
0.004678932018578
0.0048357984051108
0.0049880589358508
0.0051390696316957
0.0052941590547561
0.00545598519966
0.0056194881908595
0.0057727987878024
0.0059032780118286
0.0060033029876649
0.006070096977055
0.0060997707769274
0.0060821291990578
0.0059987902641296
0.0058229467831552
0.0055206329561769
0.0050544724799692
0.0043912096880376
0.0035122348926961
0.00242310622707
0.0011577854165807
-0.0002252629492431
-0.0016533930320292
-0.0030498765408992
-0.0043405890464782
-0.0054599489085376
-0.0063571371138095
-0.0069998758845031
-0.0073750731535255
-0.0074889720417559
-0.0073668146505951
-0.0070495470426976
-0.0065874853171408
-0.0060334093868732
-0.0054376879706978
-0.0048443805426359
-0.0042866342701017
-0.0037850530352443
-0.0033509479835629
-0.0029892739839851
-0.0026976633816957
-0.0024638697504997
-0.0022652610205113
-0.0020724174100905
-0.0018553853733465
-0.0015890881186351
-0.0012564011849462
-0.0008497398812323
-0.0003728190204128
0.0001593502238392
0.0007260720012709
0.0013089564163237
0.0018949094228446
0.0024723820388317
0.0030263271182775
0.0035380781628191
0.003989852964878
0.0043687932193279
0.0046685989946126
0.0048905732110142
0.0050441580824553
0.0051449267193675
0.0052095265127718
0.005250446498394
0.0052746506407856
0.0052861645817756
0.0052891569212079
0.0052898419089615
0.0052954307757318
0.0053086238913238
0.0053222151473164
0.0053175264038145
0.0052640503272414
0.005120217334479
0.004837576765567
0.0043667424470186
0.0036645645741373
0.0027038131374865
0.0014830108266323
3.26414592564106e-05
-0.0015851228963583
-0.0032835870515555
-0.0049616610631346
-0.0065140295773744
-0.0078430632129311
-0.0088738370686769
-0.0095674907788634
-0.009924242272973
-0.0099746072664856
-0.0097672659903764
-0.0093599120154976
-0.0088127711787819
-0.0081836553290486
-0.0075235809199512
-0.0068726046010851
-0.0062578944489359
-0.0056946580298244
-0.0051873070187866
-0.0047294008545577
-0.0043041915632784
-0.0038885704707354
-0.0034608822315931
-0.0030076932162046
-0.0025248180609196
-0.0020147017203271
-0.0014826923143118
-0.0009330242173746
-0.0003674237523227
0.0002130887005478
0.0008062499109655
0.0014074379578232
0.0020086844451725
0.0025990300346165
0.0031665312126278
0.0037001881282776
0.0041915504261851
0.0046351058408617
0.0050257514230906
0.005356908775866
0.0056229280307888
0.0058221039362251
0.0059573045000433
0.0060356454923748
0.0060672806575894
0.006063730455935
0.00603789370507
0.0060045523568987
0.0059779547154903
0.0059664826840162
0.0059687942266464
0.0059764366596937
0.0059819812886416
0.0059835501015186
0.005979876499623
0.0059625320136547
0.0059123886749148
0.0057990988716483
0.0055815316736698
0.00521005038172
0.0046336483210325
0.0038129254244267
0.0027329912409186
0.0014098151586949
-0.0001097023487091
-0.0017519274260848
-0.0034248598385602
-0.0050292173400521
-0.0064696036279201
-0.0076649151742458
-0.0085589243099093
-0.0091278962790966
-0.0093799168244004
-0.0093480003997683
-0.0090820705518126
-0.0086411731317639
-0.0080862613394856
-0.0074741682037711
-0.0068534067831933
-0.0062610921449959
-0.0057202656753361
-0.0052403681911528
-0.0048208693042397
-0.0044527919963002
-0.0041186045855283
-0.0037958452012389
-0.0034642172977328
-0.0031104290392249
-0.0027265108656138
-0.0023060725070536
-0.0018452563090249
-0.0013450718251988
-0.0008100335253402
-0.0002462357515469
0.0003376147942617
0.0009299131343141
0.0015193455619737
0.0020963815040886
0.0026512658223509
0.0031733529176563
0.0036533470265567
0.0040860520675778
0.0044710901565849
0.0048106876201927
0.0051060346886515
0.0053550973534584
0.0055543668568134
0.0057025859132409
0.0058020520955324
0.0058579519391059
0.005878219846636
0.0058727147988975
0.0058496934361755
0.0058127115480601
0.0057617179118096
0.0056960470974445
0.0056175016798079
0.0055318176746368
0.0054436116479337
0.0053467866964638
0.0052175899036228
0.0050129233859479
0.0046753846108913
0.0041460716165602
0.0033805365674197
0.0023613909725099
0.0011048254091292
-0.0003393031656742
-0.0018936351407319
-0.0034641628153622
-0.0049525531940162
-0.0062665930017828
-0.0073282038792967
-0.0080816745758056
-0.0085018016397953
-0.0085974810644984
-0.0084085194393992
-0.0079963915050029
-0.0074321804568171
-0.0067863473668694
-0.0061215665191411
-0.0054876990616321
-0.0049196085892617
-0.0044375727884471
-0.0040475819259881
-0.0037421588785946
-0.0035043312236666
-0.0033110126387327
-0.0031328268814831
-0.0029361951164901
-0.0026911688037216
-0.002379726152867
-0.0019984459504485
-0.0015554936835542
-0.0010662409476935
-0.0005497087258845
-2.5203917175531387e-05
0.0004910919815301
0.0009883953025564
0.0014614535029977
0.0019088475964963
0.0023293909616768
0.0027190162800252
0.0030724089592695
0.0033879373222589
0.0036701506469398
0.0039265928789973
0.0041617937386035
0.0043749036267399
0.0045620114542543
0.004718123935163
0.0048375176265835
0.0049160262569785
0.0049543692730367
0.004958695732057
0.0049392250366508
0.004908971954137
0.0048817214556038
0.0048671634867787
0.004863450769335
0.0048511461354792
0.0047906376421451
0.0046233609318733
0.0042798388749361
0.003694690298289
0.0028238098602741
0.0016588468570262
0.0002344565000385
-0.0013740172144025
-0.0030615606810897
-0.0047109234146773
-0.0062115709297358
-0.0074737854301929
-0.0084350826218724
-0.009061717428267
-0.0093482434749603
-0.0093139884993433
-0.0089978650212287
-0.0084558138623833
-0.0077576544135808
-0.0069777951575815
-0.006183398887515
-0.0054270718246698
-0.0047445748932659
-0.0041545815765857
-0.0036600476596504
-0.0032507134601473
-0.0029059927910566
-0.0025991175789386
-0.0023020857479423
-0.0019901148043572
-0.0016453268472105
-0.0012578150490298
-0.000822624657303
-0.000336779281497
0.0001997326035052
0.0007812114199623
0.0013944691745564
0.0020194551907479
0.0026338512543588
0.003219268284738
0.0037636910565197
0.0042597334831953
0.0047028111293911
0.0050907381810247
0.0054236510768532
0.0057035982608795
0.0059340135194361
0.0061198626644909
0.0062676416710019
0.006383107509464
0.0064682252705097
0.006521581672132
0.0065420530736446
0.0065312907099723
0.006493373773992
0.0064334096387028
0.0063560623675584
0.0062642050907015
0.0061584948562085
0.0060383449308574
0.0059032193385064
0.0057527846656739
0.0055854911915957
0.0053948378190398
0.0051628551445901
0.004854358267039
0.0044179353863
0.0037951651029288
0.0029347171075642
0.0018078966531902
0.0004211373161524
-0.0011796015314757
-0.0029131292831152
-0.0046733166091144
-0.006343375891447
-0.0078126322478055
-0.0089925453066825
-0.0098274014890193
-0.0102973319590091
-0.0104146655648946
-0.0102172447368502
-0.0097626820206642
-0.009123015217483
-0.0083762798458337
-0.0075960638932883
-0.0068440563045442
-0.006166661158204
-0.0055926907807588
-0.0051319245249032
-0.0047763339243829
-0.004503037314862
-0.0042785909026861
-0.0040655815973877
-0.0038300373125821
-0.0035458249039947
-0.0031948359683156
-0.0027668129187077
-0.0022602549288421
-0.00168199010659
-0.0010460007470101
-0.000372058013454
0.0003171485150232
0.0009989634854719
0.001652734586969
0.0022618400398641
0.0028151315636932
0.0033070389181375
0.0037372161168605
0.0041093314066529
0.0044284695759415
0.0047000716440379
0.0049319025129079
0.0051345210522413
0.0053170351311564
0.0054824948310852
0.0056280801072716
0.0057484661228954
0.0058381683193147
0.005892458371818
0.0059078559279441
0.0058827716857194
0.0058196526952087
0.0057265912182629
0.0056150341406464
0.0054952977225184
0.0053737685084342
0.0052542835474014
0.0051409038715064
0.0050346506759524
0.0049242721870541
0.0047805630601942
0.0045591797679662
0.0042087389156222
0.0036806117277592
0.0029380023479461
0.0019630556926131
0.0007622989360243
-0.0006298015359789
-0.0021503414027392
-0.0037131235003471
-0.0052215247415006
-0.006584767717868
-0.0077289910987019
-0.0086007267236709
-0.0091680083423852
-0.0094232559204101
-0.0093860235065221
-0.0091004874557256
-0.0086269425228238
-0.0080326031893491
-0.0073844073340296
-0.0067422492429614
-0.0061530228704214
-0.0056468299590051
-0.0052360789850354
-0.0049171280115842
-0.0046732448972761
-0.0044792494736611
-0.004306118004024
-0.0041230246424674
-0.0038996674120426
-0.0036122894380241
-0.0032501255627721
-0.0028164985124021
-0.00232436042279
-0.0017898790538311
-0.0012279765214771
-0.0006520219612866
-7.478659972548485e-05
0.0004926372203044
0.0010427213273942
0.0015710300067439
0.0020729494281113
0.0025412905961275
0.0029680877923965
0.0033499137498438
0.0036904499866068
0.0039953915402293
0.0042661353945732
0.0045002470724284
0.0046955104917287
0.0048514725640416
0.0049690934829413
0.0050509581342339
0.0051014916971325
0.0051259147003293
0.0051286183297634
0.0051128114573657
0.0050818193703889
0.0050401287153363
0.0049930978566408
0.0049454667605459
0.0048964787274599
0.0048316246829926
0.0047173732891678
0.0045042112469673
0.004137662705034
0.0035722739994525
0.0027819699607789
0.0017657661810517
0.0005514411022886
-0.0008047256269492
-0.0022245272994041
-0.0036186326760798
-0.0048988303169608
-0.0059885503724217
-0.0068289204500615
-0.0073819360695779
-0.0076331389136612
-0.0075933886691927
-0.0072983419522643
-0.0068038208410143
-0.0061769452877342
-0.0054865232668817
-0.0047959801740944
-0.0041582905687391
-0.0036110847722738
-0.003172995056957
-0.002843395806849
-0.0026058843359351
-0.002433938672766
-0.0022959052585065
-0.0021580199245363
-0.0019863918423652
-0.001750846276991
-0.0014327091630548
-0.0010300950380042
-0.0005541251739487
-2.1556508727371693e-05
0.0005493342177942
0.0011392082087695
0.0017266232753172
0.0022901848424226
0.002814473118633
0.0032932753674685
0.0037275808863341
0.0041209980845451
0.0044754180125892
0.0047905910760164
0.0050683165900409
0.0053142253309488
0.005532203707844
0.0057188039645552
0.0058640511706471
0.0059555694460868
0.0059834979474544
0.0059446487575769
0.0058433725498616
0.0056901462376117
0.0055001210421323
0.0052913152612745
0.0050820484757423
0.0048882169649004
0.0047211884520947
0.004587213974446
0.0044875280000269
0.0044161053374409
0.0043536415323615
0.0042624631896615
0.0040890136733651
0.0037736615631729
0.0032629738561809
0.0025207691360265
0.0015364540740847
0.0003297466319054
-0.0010497577022761
-0.0025283324066549
-0.0040183733217418
-0.0054313857108354
-0.0066898986697196
-0.0077341487631201
-0.0085225654765963
-0.0090314000844955
-0.009257398545742
-0.00922008510679
-0.0089606512337923
-0.0085364989936351
-0.0080110095441341
-0.0074426434002816
-0.0068782772868871
-0.0063502583652734
-0.0058759823441505
-0.0054607829079031
-0.0051021412946283
-0.004791896790266
-0.0045161484740674
-0.0042546037584543
-0.0039824172854423
-0.0036758959759026
-0.0033188955858349
-0.0029063487891107
-0.0024431971833109
-0.0019397127907723
-0.0014072371413931
-0.0008562871953472
-0.0002956928219646
0.0002677522134035
0.0008279845933429
0.0013773632235825
0.001906695193611
0.0024079210124909
0.0028753574006259
0.0033046850003302
0.0036932840012013
0.0040413327515125
0.0043493495322763
0.0046141380444169
0.004829459823668
0.0049905334599316
0.0050969878211617
0.0051536448299884
0.0051700277253985
0.0051586697809398
0.0051329550333321
0.0051042451523244
0.0050793741829693
0.0050604767166078
0.0050457562319934
0.0050306422635912
0.0050116470083594
0.0049900584854185
0.0049695675261318
0.0049490565434098
0.004916364327073
0.0048467149026691
0.0047058248892426
0.0044551063328981
0.0040577347390353
0.0034856423735618
0.0027256347239017
0.0017829791177064
0.0006822594441473
-0.0005346490070223
-0.0018124094931408
-0.0030868158210068
-0.0042905244044959
-0.0053600459359586
-0.0062436778098344
-0.006908600218594
-0.0073434766381978
-0.0075560854747891
-0.0075694462284445
-0.0074174529872834
-0.0071392483077943
-0.0067741721868515
-0.006359243299812
-0.0059283687733113
-0.0055111395195126
-0.0051297987811267
-0.0047956653870642
-0.004508277401328
-0.004257280845195
-0.0040257317014038
-0.0037957800086587
-0.0035542866680771
-0.003294114023447
-0.0030120343435555
-0.0027057291008532
-0.0023711505346
-0.002002369845286
-0.001594164641574
-0.0011443382827565
-0.0006546223303303
-0.0001319122966378
0.0004118162905797
0.0009631292778067
0.0015103350160643
0.0020434288308024
0.0025522473733872
0.003023414639756
0.0034391712397336
0.0037822220474481
0.0040432158857584
0.0042235744185745
0.0043325135484337
0.0043829572387039
0.0043899635784327
0.0043706381693482
0.0043420768342912
0.004317367915064
0.0043030399829149
0.0042996676638722
0.0043052486144006
0.0043198280036449
0.0043471637181937
0.0043891374953091
0.0044371727854013
0.0044695986434817
0.0044543952681124
0.0043521407060325
0.0041205510497093
0.0037221543025225
0.0031322594732046
0.0023453286848962
0.0013788033975288
0.0002725622616708
-0.0009155981242656
-0.0021159776952117
-0.0032534310594201
-0.0042547266930341
-0.0050581353716552
-0.0056239487603306
-0.0059394249692559
-0.0060164341703057
-0.0058875391259789
-0.0056004803627729
-0.0052085453644394
-0.0047617396339774
-0.0043018185533583
-0.0038600163534283
-0.0034580703359097
-0.0031099908519536
-0.0028213688638061
-0.0025884700007736
-0.0023989044129848
-0.0022337678819894
-0.0020713922567665
-0.001891384483315
-0.0016782479360699
-0.0014248768566176
-0.0011337992036715
-0.0008133515948429
-0.0004712616791948
-0.0001116323983296
0.0002633630065247
0.0006508474471047
0.0010466689709573
0.0014468631707131
0.0018489947542548
0.0022509100381284
0.0026482148095965
0.0030347667634487
0.0034046177752316
0.0037503894418478
0.0040608113631606
0.0043220231309533
0.0045213499106466
0.004651702940464
0.0047139781527221
0.0047151418402791
0.0046656420454382
0.0045788246206939
0.0044692866504192
0.0043496321886777
0.0042286124080419
0.0041117118671536
0.0040038358420133
0.003912263084203
0.0038447494152933
0.0038003122899681
0.0037611892912536
0.0036955187097191
0.0035657342523336
0.0033342852257192
0.0029686917550861
0.0024473960511386
0.0017630241345614
0.0009234759490936
-4.7299894504249096e-05
-0.0011098672403022
-0.0022123407106846
-0.003296319860965
-0.0043042884208261
-0.0051853647455573
-0.0058999005705118
-0.0064250715076923
-0.0067582568153738
-0.0069141495041549
-0.0069180419668555
-0.0067996205762028
-0.0065878112800419
-0.0063072284683585
-0.0059784627519547
-0.0056208344176411
-0.005253286100924
-0.0048922337591648
-0.0045488150790333
-0.0042277271859347
-0.003927590791136
-0.0036422933917492
-0.0033634738065302
-0.0030835997313261
-0.0027975956909358
-0.0025014581624418
-0.0021894886158406
-0.0018533403053879
-0.0014840104850009
-0.0010749154025688
-0.0006246365373954
-0.0001397460000589
0.0003653563326224
0.0008738500764593
0.001371631748043
0.0018480381695553
0.0022952568251639
0.0027092127129435
0.0030890635680407
0.0034326454624533
0.0037331380881369
0.0039819125086069
0.0041726157069206
0.0043025026097893
0.0043738801032304
0.004394955933094
0.0043772901408374
0.0043323542922735
0.0042700506746768
0.0041987034492194
0.0041258013807237
0.0040590865537524
0.0040072589181363
0.0039793802425265
0.0039809681475162
0.0040063369087874
0.0040326807647943
0.0040220147930085
0.0039285230450332
0.0037057092413306
0.003314227098599
0.002731887390837
0.001961026340723
0.0010283680167049
-2.0335428416728973e-05
-0.0011261508334428
-0.0022237240336835
-0.0032501069363206
-0.0041517228819429
-0.0048864618875086
-0.005424793343991
-0.0057532889768481
-0.0058769867755472
-0.0058175344020128
-0.0056088045239448
-0.0052913101390004
-0.0049057435244321
-0.0044886944815516
-0.0040729050524532
-0.0036873340141028
-0.0033528220374137
-0.0030787766445428
-0.0028651780448853
-0.0027049658820033
-0.0025834215339273
-0.0024775669444352
-0.0023591646458953
-0.0022019722964614
-0.0019890516996383
-0.0017151966458186
-0.0013844597851857
-0.0010060321073979
-0.0005914986832067
-0.0001535839401185
0.0002944181906059
0.0007389514939859
0.0011675803689286
0.0015709116123616
0.0019436491420492
0.0022843263577669
0.0025942407082766
0.0028776139952242
0.0031407661736011
0.0033864744473248
0.0036093750968575
0.0037991267163306
0.003946139011532
0.0040440894663333
0.0040915380232036
0.0040937382727861
0.00406228704378
0.0040124491788446
0.0039586764760315
0.0039093079976737
0.0038639297708868
0.0038134416099637
0.0037401637528091
0.0036201907787472
0.0034271506592631
0.0031321104615926
0.0027040787972509
0.0021185190416872
0.0013689820189028
0.0004727685591205
-0.0005301425699144
-0.0015817657113075
-0.002613807329908
-0.0035583702847361
-0.0043583735823631
-0.0049731903709471
-0.0053807916119694
-0.005578916054219
-0.0055822883732616
-0.0054149259813129
-0.0051041981205344
-0.0046826214529573
-0.0041918214410543
-0.0036793248727917
-0.0031891739927232
-0.0027536931447684
-0.0023905094712972
-0.0021036542020738
-0.0018860239069908
-0.0017227265052497
-0.0015949630178511
-0.0014818083727732
-0.0013603057013824
-0.0012076499406248
-0.001004583784379
-0.000737354857847
-0.0003998625325039
3.026565536856652e-06
0.0004548002034425
0.0009317942894995
0.0014087603194639
0.001862235716544
0.0022736524697393
0.0026317448355257
0.0029322886839509
0.0031769946217536
0.0033728685230016
0.0035310718230903
0.0036649187095463
0.0037865173071622
0.0039029824547469
0.0040163733065128
0.004127328749746
0.0042361039668321
0.0043395096436142
0.004428660031408
0.0044905934482812
0.0045129666104912
0.00448829960078
0.0044150478206574
0.0042958473786711
0.0041335024870932
0.0039264033548533
0.0036667003296315
0.0033403425477445
0.0029267892241477
0.0024025801103562
0.0017499802634119
0.0009637277107685
5.29394019395113e-05
-0.0009594655712135
-0.0020386150572448
-0.0031404285691678
-0.0042154500260949
-0.0052127451635897
-0.0060832644812762
-0.0067847101017832
-0.0072874235920608
-0.0075786495581269
-0.0076640397310256
-0.0075654713436961
-0.0073157176375389
-0.0069524976424872
-0.0065125660039484
-0.0060276887379586
-0.0055257049389183
-0.0050333109684288
-0.0045742439106106
-0.00416363729164
-0.0038054741453379
-0.0034947739914059
-0.0032195455860346
-0.0029621925204992
-0.0027033726219087
-0.0024259807541966
-0.0021160903852432
-0.0017627722118049
-0.0013591372407972
-0.0009032814996317
-0.0003974983701482
0.0001522733364254
0.0007350586820393
0.0013337167911231
0.001926289871335
0.0024896275717765
0.003003604710102
0.0034544754307717
0.0038363016210496
0.0041496003977954
0.0043990798294544
0.0045924494042992
0.0047393618151545
0.0048507815226912
0.0049391239881515
0.0050171762704849
0.0050965291447937
0.0051862956024706
0.0052895257249474
0.0053995489142835
0.0055018682032823
0.0055808573961257
0.005625004414469
0.0056268856860697
0.0055816620588302
0.005488698836416
0.0053523075766861
0.0051756505854427
0.0049514905549585
0.0046584797091782
0.0042647924274206
0.0037358035333454
0.0030440408736467
0.0021786768920719
0.0011502344859763
-1.002138014882803e-05
-0.0012535178102552
-0.0025198573712259
-0.0037440196610987
-0.0048630689270794
-0.0058212513104081
-0.0065751350484788
-0.0070988782681524
-0.0073866620659828
-0.0074508558027446
-0.0073180086910724
-0.0070246588438749
-0.006612560711801
-0.0061235004104673
-0.005596334580332
-0.0050672013312578
-0.0045693046413362
-0.0041292435489594
-0.0037620197981595
-0.0034687335137277
-0.0032388267572969
-0.0030542775057256
-0.0028922155033797
-0.0027276598848402
-0.0025375094264745
-0.0023034641053527
-0.0020132814534008
-0.0016606508288532
-0.0012445723405107
-0.0007689503254368
-0.000242288922891
0.0003215050091966
0.0009026714833453
0.0014776431489735
0.002021174877882
0.0025087455287575
0.0029219919815659
0.0032528406009078
0.0035021211951971
0.0036764587275683
0.0037871771492064
0.0038498258218169
0.0038815822917968
0.0038977162912487
0.0039108395576477
0.0039324210956692
0.0039731655269861
0.0040406766347587
0.0041356137953698
0.0042506675235927
0.0043741250410676
0.0044939322397112
0.004600029438734
0.0046859942376613
0.0047477222979068
0.0047779139131307
0.0047608409076929
0.0046700914390385
0.0044689900241792
0.0041154189966619
0.0035717864520847
0.0028171157464385
0.0018556587165221
0.0007181686814874
-0.0005422346293926
-0.0018567104125395
-0.0031495303846895
-0.0043474896810948
-0.0053876647725701
-0.0062228422611951
-0.0068242265842854
-0.0071815946139395
-0.0073014898225665
-0.0072048823349177
-0.0069260001182556
-0.0065100048668682
-0.0060063740238547
-0.0054609584622085
-0.0049116089940071
-0.0043884012848138
-0.0039154584519565
-0.0035096607170999
-0.0031769340857863
-0.0029115106444805
-0.0026990273036062
-0.0025200999807566
-0.0023525508586317
-0.0021729480940848
-0.0019588635768741
-0.001692269463092
-0.0013630108442157
-0.0009703615214675
-0.0005212686955928
-2.629077062010765e-05
0.0005024907295592
0.0010491833090782
0.0015924416948109
0.0021085278131067
0.0025761011056602
0.0029798541218042
0.0033128182403743
0.0035773473791778
0.0037838611751794
0.0039462149143218
0.0040760627016425
0.0041807582601904
0.0042648315429687
0.004331330768764
0.0043823178857564
0.0044211656786501
0.0044545526616275
0.0044886604882776
0.0045232307165861
0.0045513012446463
0.0045637190341949
0.0045534116216003
0.0045169461518526
0.0044539710506796
0.0043669063597917
0.0042607691138982
0.0041404999792575
0.0040049254894256
0.003840809687972
0.0036215768195688
0.0033111616503447
0.0028709208127111
0.0022675872314721
0.0014803539961576
0.0005071668419986
-0.000630714232102
-0.0018895517569035
-0.0032089909072965
-0.0045187319628894
-0.0057447650469839
-0.0068171164020895
-0.0076793190091848
-0.0082956319674849
-0.0086529972031712
-0.008759755641222
-0.0086432080715894
-0.0083457138389348
-0.0079182041808962
-0.0074110897257924
-0.0068676117807626
-0.0063234232366085
-0.0058077974244952
-0.005342299118638
-0.0049379905685782
-0.0045939949341118
-0.0042988648638129
-0.004033719189465
-0.0037768317852169
-0.0035073799081146
-0.0032049329020082
-0.0028489669784903
-0.0024230817798525
-0.0019190033199265
-0.0013356917770579
-0.0006775788497179
4.341034218668938e-05
0.0008050714386627
0.0015762381954118
0.0023218335118144
0.0030091882217675
0.0036130798980593
0.004117714241147
0.0045168735086917
0.0048139709979295
0.0050210002809762
0.0051546837203204
0.0052323015406727
0.005269730463624
0.0052798371762037
0.0052712908945977
0.005248799920082
0.0052135530859231
0.0051642032340168
0.0050983582623302
0.0050135408528149
0.0049079586751759
0.0047806571237742
0.004631143528968
0.0044603608548641
0.0042722099460661
0.0040730768814682
0.0038701463490724
0.0036708631087094
0.003483401145786
0.003316601505503
0.0031789578497409
0.0030756499618291
0.003001696197316
0.0029341680929064
0.0028305798768997
0.0026356372982263
0.0022933343425393
0.001761071733199
0.0010216075461357
8.839857764542103e-05
-0.000996661488898
-0.0021700863726437
-0.0033555119298398
-0.0044744340702891
-0.0054576606489717
-0.0062518808990716
-0.0068193483166396
-0.0071378988213837
-0.0072062569670379
-0.0070477533154189
-0.0067052976228296
-0.0062312120571732
-0.0056791431270539
-0.0051001003012061
-0.0045403628610074
-0.0040388470515608
-0.0036242399364709
-0.0033133716788142
-0.0031101161148399
-0.0030039979610592
-0.0029703346081078
-0.0029737842269241
-0.0029740096069872
-0.0029313911218196
-0.0028136475011706
-0.0026026063133031
-0.0022962428629398
-0.0019044303335249
-0.00144243624527
-0.0009265724802389
-0.0003730262396857
0.0002015828504227
0.000779200810939
0.0013409117236733
0.001869993051514
0.0023543797433376
0.0027871541678905
0.0031671659089624
0.0034995581954717
0.0037933723069727
0.0040553216822445
0.004284425638616
0.0044730463996529
0.0046128663234412
0.00470034731552
0.0047376686707139
0.0047295144759118
0.0046810116618871
0.0045992722734808
0.0044947364367544
0.0043799122795462
0.0042680548503994
0.0041727176867425
0.0041054389439523
0.0040723634883761
0.0040714759379625
0.0040879021398723
0.0040890178643167
0.0040260353125631
0.0038436916656792
0.0034934289287775
0.0029440044891089
0.0021871956996619
0.0012397554237395
0.0001416297163814
-0.0010488486150279
-0.0022611408494412
-0.0034208730794489
-0.0044592889025807
-0.0053194807842373
-0.0059590619057416
-0.0063531822524964
-0.0064993174746632
-0.0064193261787295
-0.0061544543132185
-0.0057563874870538
-0.0052797179669141
-0.0047767125070095
-0.0042929453775286
-0.0038638273254036
-0.0035122837871313
-0.0032477204222232
-0.0030668671242892
-0.0029551417101174
-0.0028879973106086
-0.0028345172759145
-0.002763571916148
-0.0026497978251427
-0.0024769995361566
-0.0022390079684555
-0.0019384605111554
-0.0015834213700145
-0.0011843476677313
-0.0007534074829891
-0.0003035585395991
0.000153596207383
0.0006084167398512
0.0010517355985939
0.0014731623232364
0.0018611792474985
0.0022052326239645
0.0024978448636829
0.002736851805821
0.002926695626229
0.0030751987360417
0.0031887688674032
0.0032711736857891
0.0033251366112381
0.0033541328739374
0.0033625953365117
0.0033552583772689
0.0033375811763107
0.0033155849669128
0.003293736372143
0.0032732640393078
0.0032531693577766
0.0032331726979464
0.0032154889777302
0.0032039624638855
0.0031997056212276
0.0031931763514876
0.0031586778350174
0.0030567883513867
0.0028428244404494
0.0024760230444371
0.0019257706589996
0.0011771435383707
0.0002383891260251
-0.0008551414357498
-0.002045368310064
-0.0032610888592898
-0.0044288886711001
-0.0054821530357003
-0.0063646296039223
-0.0070304195396602
-0.0074474373832345
-0.0076053645461797
-0.007520311512053
-0.0072307828813791
-0.0067881681025028
-0.0062490850687026
-0.0056707048788666
-0.0051037408411502
-0.0045846635475754
-0.0041334074921905
-0.0037556025199592
-0.0034455456770956
-0.0031892939005047
-0.0029676924459636
-0.0027588279917836
-0.0025394749827682
-0.0022867326624691
-0.0019825948402285
-0.001619131071493
-0.0011982836294919
-0.0007265044841915
-0.0002108106855303
0.0003397235414013
0.0009113290579989
0.0014867207501083
0.0020476959180086
0.0025769991334527
0.0030608575325459
0.003491090843454
0.003865007776767
0.0041846586391329
0.0044570304453372
0.0046929446980357
0.0049023465253412
0.0050888303667306
0.005248486995697
0.0053740665316581
0.0054603740572929
0.0055068647488951
0.0055169388651847
0.0054950513876974
0.0054442603141069
0.005367430858314
0.0052709095180034
0.0051656560972332
0.0050635514780879
0.0049727102741599
0.0048961783759295
0.0048308838158845
0.0047623212449252
0.004660558886826
0.0044837528839707
0.0041855722665786
0.0037235687486827
0.0030694459564983
0.0022180213127285
0.001190077047795
2.9409420676529408e-05
-0.0012029364006593
-0.0024365088902413
-0.0036011149641126
-0.0046349097974598
-0.0054880445823073
-0.0061239469796419
-0.006522012874484
-0.0066822012886404
-0.0066269915550947
-0.006396185606718
-0.0060373730957508
-0.0055987811647355
-0.0051261885091662
-0.0046612303704023
-0.0042393286712467
-0.0038861331995576
-0.0036137513816356
-0.0034202693495899
-0.0032922003883868
-0.0032065398991107
-0.0031319218687713
-0.0030314063187688
-0.0028691617771983
-0.0026206045877188
-0.002280218526721
-0.0018605415243655
-0.0013844189234077
-0.0008773038862273
-0.0003623565426096
