bvp
-0.0100891385227441
-0.0110930912196636
-0.0117520336061716
-0.0120659694075584
-0.012059012427926
-0.0117758167907595
-0.0112754013389348
-0.0106234308332204
-0.0098840426653623
-0.0091145429760217
-0.0083620427176356
-0.0076586967334151
-0.0070199850015342
-0.0064493096433579
-0.0059426301158964
-0.0054896268993616
-0.0050743054598569
-0.0046765571460127
-0.0042743273079395
-0.0038462658412754
-0.0033746697008609
-0.0028483150526881
-0.0022645778954029
-0.0016296226531267
-0.0009567324304953
-0.0002633085241541
0.0004342022584751
0.0011234260164201
0.0017929407767951
0.0024285777471959
0.0030152746476233
0.0035414309240877
0.0040013063699007
0.0043953577987849
0.0047293421812355
0.0050129159353673
0.0052577583119273
0.0054747140966355
0.0056717954576015
0.0058544017374515
0.0060257073491811
0.0061864876188337
0.0063362256623804
0.0064746499992907
0.0066011757589876
0.0067129456438124
0.0068037090823054
0.0068638511002063
0.0068801110610365
0.0068342480808496
0.0067018177360296
0.0064517362043261
0.0060474225319921
0.0054512908682227
0.0046317717060446
0.0035714958794414
0.002275604289025
0.000776998582296
-0.0008631317759864
-0.0025599801447242
-0.0042151808738708
-0.005729354918003
-0.0070144082419574
-0.0080046402290463
-0.0086638880893588
-0.0089859738945961
-0.0089908558875322
-0.0087197758257389
-0.008228400722146
-0.007578129414469
-0.0068300678394734
-0.0060433116741478
-0.0052728955633938
-0.0045634387060999
-0.0039411662146449
-0.0034119114279747
-0.0029671830125153
-0.0025910632684826
-0.0022632831241935
-0.0019606952555477
-0.0016602575778961
-0.0013431445695459
-0.0009966279612854
-0.0006136479787528
-0.0001918619964271
0.0002684289356693
0.0007662423886358
0.0012992360861971
0.0018613501451909
0.0024419920518994
0.00302843330428
0.0036081811413168
0.0041678613051772
0.0046917451545596
0.0051633934490382
0.0055685993283987
0.0058971866965293
0.0061447499319911
0.0063149915076792
0.00641930103302
0.0064728739671409
0.0064906696788966
0.006484885700047
0.0064641358330845
0.0064333230257034
0.0063939662650227
0.0063471342436969
0.0062970626167953
0.006250477861613
0.0062126405537128
0.0061841551214456
0.0061589097604155
0.0061222966760396
0.0060503464192152
0.0059089218266308
0.005651949904859
0.0052229859866201
0.0045645153149962
0.0036316278856247
0.0024036015383899
0.000891636358574
-0.0008564984891563
-0.0027576922439038
-0.0047041596844792
-0.0065805912017822
-0.0082799643278121
-0.0097141880542039
-0.0108211562037467
-0.0115679632872343
-0.0119493138045072
-0.0119839487597346
-0.0117109734565019
-0.0111858826130628
-0.0104758450761437
-0.0096524767577648
-0.0087830517441034
-0.0079241804778575
-0.0071175238117575
-0.0063858139328658
-0.0057335277087986
-0.0051538171246647
-0.0046349456533789
-0.0041622729040682
-0.0037189272698014
-0.00328812119551
-0.0028563034720718
-0.0024149308446794
-0.0019599753431975
-0.0014900569804012
-0.0010049025295302
-0.0005047301528975
1.08995009213686e-05
0.0005445288843475
0.0010999731021001
0.0016800764715299
0.0022845845669507
0.0029078642837703
0.0035408216062933
0.0041789938695728
0.004828234668821
0.0055025168694555
0.0062188715673983
0.0069928900338709
0.007833108305931
0.0087358579039573
0.0096849743276834
0.0106554217636585
0.0116162123158574
0.0125322602689266
0.0133685460314154
0.0140972286462783
0.0147024150937795
0.0151791665703058
0.0155304772779345
0.0157648287713527
0.0158938784152269
0.0159306786954402
0.0158858746290206
0.0157599169760942
0.0155380452051758
0.0151930712163448
0.014690713956952
0.0139934243634343
0.0130653837695717
0.0118804015219211
0.0104297390207648
0.0087260166183114
0.00680279918015
0.0047110756859183
0.0025148820132017
0.0002870056778192
-0.0018975464627146
-0.0039696404710412
-0.0058715632185339
-0.0075589921325445
-0.009001332335174
-0.0101827504113316
-0.0111043378710746
-0.0117843765765428
-0.0122552625834941
-0.0125592937692999
-0.0127434246242046
-0.0128524377942085
-0.0129238069057464
-0.0129866367205977
-0.0130623904988169
-0.0131641505286097
-0.0132941827178001
-0.0134424353018403
-0.0135883009061217
-0.0137058962136507
-0.0137710096314549
-0.0137658109888434
-0.0136790527030825
-0.0135033586993813
-0.0132325254380702
-0.0128617547452449
-0.0123902661725878
-0.0118217431008815
-0.0111627699807286
-0.0104243354871869
-0.0096248835325241
-0.0087884739041328
-0.0079385712742805
-0.0070936596021056
-0.0062675029039382
-0.0054706847295165
-0.0047096828930079
-0.0039856703951954
-0.0032962108962237
-0.0026384703814983
-0.0020118621177971
-0.0014188010245561
-0.0008625015616416
-0.0003438899293541
0.000138018745929
0.0005808896385133
0.0009743277914822
0.0013020844198763
0.0015477938577532
0.001696906518191
0.0017353175207972
0.0016488535329699
0.001425227150321
0.0010568588040769
0.0005424274131655
-0.0001119775697588
-0.0008916854858398
-0.0017732200212776
-0.0027231047861278
-0.0036962288431823
-0.004639308899641
-0.0054984022863209
-0.0062243216671049
-0.0067767621949315
-0.0071289762854576
-0.0072704404592514
-0.0072068646550178
-0.0069579668343067
-0.0065536350011825
-0.0060306023806333
-0.0054298341274261
-0.0047944532707333
-0.0041688117198646
-0.0035971060860902
-0.0031189681030809
-0.002761086449027
-0.0025295135565102
-0.0024107759818434
-0.0023800395429134
-0.0024060038849711
-0.0024507157504558
-0.0024708153214305
-0.0024220910854637
-0.0022657522931694
-0.0019759186543524
-0.001545644365251
-0.0009871874935925
-0.0003263899125158
0.000404620077461
0.0011743735522031
0.0019574062898755
0.0027356245554983
0.0034963665530085
0.0042289057746529
0.0049211867153644
0.0055601196363568
0.006136386655271
0.0066498690284788
0.0071108564734458
0.0075359512120485
0.0079412264749407
0.0083360206335783
0.008720688521862
0.0090889511629939
0.0094315335154533
0.0097391791641712
0.0100055048242211
0.0102280899882316
0.0104054380208253
0.0105312326923012
0.0105910934507846
0.0105644166469573
0.0104278568178415
0.0101575423032045
0.0097309863194823
0.0091293333098292
0.008340579457581
0.0073647550307214
0.0062188054434955
0.0049375374801456
0.0035706991329789
0.0021783614065498
0.0008253320120275
-0.0004242802970111
-0.0015123700723052
-0.002394760493189
-0.0030492041260004
-0.0034768092446029
-0.0036968775093555
-0.003739302046597
-0.0036382521502673
-0.0034294538199901
-0.0031485725194215
-0.0028280210681259
-0.0024940562434494
-0.0021655401214957
-0.0018529216758906
-0.001557134091854
-0.0012702969834208
-0.0009786295704543
-0.0006670355796813
-0.0003255591727793
4.610652104020119e-05
0.0004413579590618
0.0008530244231224
0.0012755785137414
0.0017033237963914
0.0021289526484906
0.002544823102653
0.0029465234838426
0.0033341161906719
0.0037082221824675
0.004066206049174
0.004403599537909
0.0047179823741316
0.0050106071867048
0.0052840504795312
0.0055370884947478
0.0057623549364507
0.0059493700973689
0.0060878754593431
0.0061696032062172
0.0061907800845801
0.0061536361463367
0.006065160036087
0.0059347641654312
0.005772441625595
0.0055878832936286
0.0053890580311417
0.005179489031434
0.0049581844359636
0.0047249072231352
0.0044846022501587
0.0042437105439603
0.0040028886869549
0.0037558688782155
0.0034945886582136
0.0032132961787283
0.0029080519452691
0.0025737979449331
0.0022012286353856
0.0017748124664649
0.0012742723338305
0.0006789544713683
-2.872163895517588e-05
-0.0008615218102931
-0.0018240405479446
-0.0029067520517855
-0.0040828082710504
-0.0053112539462745
-0.0065419366583228
-0.0077188978902995
-0.008785456418991
-0.0096911992877721
-0.010397839359939
-0.0108831981196999
-0.0111426291987299
-0.0111874658614397
-0.0110419876873493
-0.0107401413843035
-0.0103226331993937
-0.0098338844254612
-0.009317398071289
-0.0088094761595129
-0.0083338012918829
-0.007900295779109
-0.0075085321441292
-0.0071519492194056
-0.0068191071040928
-0.0064921034500002
-0.0061465315520763
-0.0057555343955755
-0.0052952198311686
-0.004748139064759
-0.0041041718795895
-0.0033613087143749
-0.0025277100503444
-0.0016208481974899
-0.0006621475331485
0.0003271312452852
0.0013252401258796
0.002306800102815
0.0032415259629487
0.0040983296930789
0.0048530655913054
0.0054944646544754
0.0060249799862504
0.0064569106325507
0.0068072560243308
0.007094170898199
0.0073333326727151
0.0075335553847253
0.0076959887519478
0.0078180935233831
0.0078989304602146
0.0079437140375375
0.0079644136130809
0.0079737799242138
0.0079784328117966
0.0079769203439354
0.0079610031098127
0.0079184249043464
0.0078373616561293
0.0077097578905522
0.0075316177681088
0.0073017571121454
0.0070186401717364
0.0066749523393809
0.006254160311073
0.0057327272370457
0.0050866138190031
0.0042973277159035
0.0033552106469869
0.0022618328221142
0.0010324111208319
-0.0003021007869392
-0.0016949565615504
-0.0030886111781001
-0.0044231750071048
-0.0056424750946462
-0.0066956412047147
-0.0075384778901934
-0.0081390785053372
-0.0084848003461956
-0.0085836192592978
-0.0084607042372226
-0.0081551223993301
-0.0077151907607913
-0.0071923974901437
-0.0066382745280861
-0.0061023575253784
-0.0056267487816512
-0.0052390396595001
-0.0049476404674351
-0.004741539247334
-0.0045944284647703
-0.0044710570946335
-0.0043333466164767
-0.0041464380919933
-0.0038847927935421
-0.0035351470578461
-0.0030957900453358
-0.0025747204199433
-0.0019861487671732
-0.0013473521685227
-0.0006800623377785
-1.192272247863002e-05
0.0006273979088291
0.0012117361184209
0.0017216838896274
0.0021458028350025
0.0024804207496345
0.0027292561717331
0.0029029832221567
0.003017189214006
0.0030885762535035
0.0031316918320953
0.0031585383694618
0.0031797527335584
0.0032056425698101
0.0032457755878567
0.0033042598515748
0.0033747348934412
0.0034427596256136
0.0034929804969578
0.0035133650526404
0.0034951725974678
0.003432581666857
0.0033245463855564
0.0031772728543728
0.0030037453398108
0.00281816534698
0.0026278556324541
0.0024273681920021
0.0021970255766063
0.001907565165311
0.001529223518446
0.0010376311838626
0.0004143398255109
-0.0003518990706652
-0.0012607161188498
-0.0022955080494284
-0.0034210858866572
-0.0045855185016989
-0.0057266559451818
-0.0067806746810674
-0.0076893493533134
-0.0084045035764575
-0.0088909724727272
-0.0091309249401092
-0.0091271148994565
-0.0088992500677704
-0.0084768738597631
-0.0078970734030008
-0.0072053419426083
-0.0064522847533226
-0.0056855552829802
-0.004942656494677
-0.0042483154684305
-0.0036159793380647
-0.0030506765469908
-0.002549931872636
-0.0021032295189797
-0.0016936023021116
-0.0013010647380724
-0.0009053262183442
-0.00048775493633
-3.2388605177402496e-05
0.0004725733306258
0.0010296674445271
0.0016282035503536
0.0022476380690932
0.0028633123729377
0.0034488569945096
0.0039777690544724
0.004426650237292
0.004779321141541
0.0050305984914302
0.0051872376352548
0.0052643045783042
0.0052794851362705
0.0052494783885777
0.0051900167018175
0.0051174303516745
0.005047308281064
0.0049890615046024
0.0049428981728851
0.0049026710912585
0.0048595727421343
0.0048046330921351
0.0047309044748544
0.0046339808031916
0.0045121842995285
0.004367877729237
0.0042069531045854
0.0040360861457884
0.0038605334702879
0.0036831200122833
0.0035053372848778
0.0033309289719909
0.0031679647509008
0.0030245946254581
0.0028994856402277
0.0027743659447878
0.0026149090845137
0.0023787165991961
0.002024620771408
0.001520050340332
0.0008466751314699
4.32401429861784e-06
-0.0009876256808638
-0.0020912869367748
-0.003253212897107
-0.0044101784005761
-0.0054970858618617
-0.0064538158476352
-0.007230581715703
-0.0077927182428538
-0.0081241568550467
-0.0082287462428212
-0.0081290304660797
-0.0078623676672577
-0.0074745840393006
-0.0070125558413565
-0.0065178368240594
-0.0060225999914109
-0.0055487849749624
-0.0051095010712742
-0.004709496628493
-0.0043444060720503
-0.0040010781958699
-0.0036595002748072
-0.0032971007749438
-0.0028961766511201
-0.0024498752318322
-0.0019609213341027
-0.0014361888170242
-0.0008842473616823
-0.0003157451283186
0.0002564727328717
0.0008186101913452
0.0013588070869445
0.0018690644064918
0.0023442700039595
0.002780684037134
0.0031764202285557
0.0035332683473825
0.0038569993339478
0.0041545741260051
0.0044290404766798
0.0046752411872148
0.00488095683977
0.0050328597426414
0.0051213293336331
0.0051418649964034
0.0050954017788171
0.004988744854927
0.0048337900079786
0.0046454248949885
0.0044397162273526
0.0042320350185036
0.0040347189642488
0.003855793736875
0.0037000535521656
0.0035714490804821
0.0034727605525404
0.0034013160038739
0.0033443155698478
0.0032768694218248
0.0031641819514334
0.0029672100208699
0.0026496180798858
0.0021842203568667
0.001557346782647
0.0007711696089245
-0.0001550425076857
-0.0011849681613966
-0.0022674007341265
-0.0033409656025469
-0.0043405080214142
-0.0052042896859347
-0.0058814799413084
-0.0063374885357916
-0.0065560159273445
-0.0065403194166719
-0.0063137621618807
-0.0059165577404201
-0.0053987838327884
-0.0048130671493709
-0.0042098108679056
-0.0036339319776743
-0.0031206109561026
-0.0026924211997538
-0.00235908315517
-0.0021160296164453
-0.0019425156060606
-0.0018053468083962
-0.0016696623060852
-0.0015099385054782
-0.0013128728605806
-0.0010718603152781
-0.000782000599429
-0.0004410921828821
-5.217944271862507e-05
0.000376098556444
0.000831164419651
0.0012994133867323
0.0017678507138043
0.0022235927172005
0.0026538975071161
0.0030477442778646
0.0033984049223363
0.0037053117994219
0.0039702779613435
0.0041900957003235
0.0043551991693675
0.0044546704739332
0.0044816345907747
0.004437664989382
0.0043345135636627
0.0041918498463928
0.0040330989286303
0.0038804891519248
0.0037503426428884
0.0036501006688922
0.0035771019756793
0.0035208805929869
0.0034696839284151
0.003415199695155
0.003350401064381
0.0032660886645317
0.0031533143483102
0.0030078501440584
0.0028294059447944
0.00261488603428
0.0023511021863669
0.0020136251114308
0.0015730637824162
0.001003923243843
0.0002908969763666
-0.0005671778926625
-0.0015542960027232
-0.0026370806153863
-0.0037662526592612
-0.0048792380839586
-0.0059089101850986
-0.0067967176437377
-0.0075013022869825
-0.0079999724403023
-0.0082864426076412
-0.0083678234368562
-0.0082616610452532
-0.0079932557418942
-0.0075938911177217
-0.0070989676751196
-0.0065454971045255
-0.0059700151905417
-0.0054057808592915
-0.0048773265443742
-0.0043951021507382
-0.0039559318684041
-0.0035492810420691
-0.0031634292099624
-0.0027882759459316
-0.0024156784638762
-0.0020389384590089
-0.0016517984913662
-0.0012466475600376
-0.0008146460168063
-0.0003498408477753
0.0001465599052608
0.0006660270737484
0.0011964528821408
0.0017256815917789
0.0022418177686631
0.0027332659810781
0.0031899600289762
0.003602669108659
0.0039618671871721
0.004259374924004
0.0044906297698616
0.0046554245054721
0.0047577414661645
0.0048049539327621
0.0048073264770209
0.0047775809653103
0.004728106316179
0.0046678883954882
0.0046030180528759
0.0045390436425805
0.0044818585738539
0.0044363513588905
0.0044027254916727
0.0043731615878641
0.0043340530246496
0.0042721913196146
0.0041783479973673
0.004048503935337
0.0038859366904944
0.0037025157362222
0.0035152276977896
0.0033373625483363
0.0031699673272669
0.0029992493800818
0.0027991305105388
0.0025359643623232
0.002175144618377
0.0016888631507754
0.0010619089007377
0.0002934373915195
-0.000603248598054
-0.0016001723706722
-0.0026551890186965
-0.0037160720676183
-0.0047264518216252
-0.0056315646506845
-0.0063846064731478
-0.0069523672573268
-0.0073171518743038
-0.0074762455187737
-0.007440963294357
-0.0072344383224844
-0.0068876608274877
-0.0064345016144216
-0.0059087462723255
-0.0053452719002962
-0.0047801993787288
-0.0042460965923964
-0.0037670023739337
-0.0033557924907654
-0.0030114292167127
-0.002718505449593
-0.0024528787471354
-0.0021897591650485
-0.0019087723921984
-0.0015963946934789
-0.0012478950666263
-0.000867391237989
-0.0004645119188353
-4.9551366828382015e-05
0.0003690957091748
0.0007833235431462
0.0011827371781691
0.0015555719146504
0.0018917933339253
0.0021836361847817
0.0024236331228166
0.0026044556871056
0.0027218703180551
0.0027774355839937
0.0027782381512224
0.0027353123296052
0.0026629737112671
0.0025777528062462
0.0024952183011919
0.0024269788991659
0.002379979705438
0.0023559848777949
0.0023510823957622
0.002357714343816
0.0023677442222833
0.0023733938578516
0.002366476226598
0.002339260187
0.0022884327918291
0.0022180676460266
0.0021370891481637
0.0020525290165096
0.0019629772286862
0.0018556715222075
0.0017087789019569
0.0014972826465964
0.0011988234473392
0.0007965476252138
0.0002791614970192
-0.0003568717220332
-0.0011006941786035
-0.0019223993876948
-0.0027758204378187
-0.0036056600511074
-0.0043543083593249
-0.0049677146598696
-0.0054007684811949
-0.0056222947314381
-0.0056193172931671
-0.005399296991527
-0.004988629836589
-0.0044260616414248
-0.0037557242903858
-0.0030258232727646
-0.0022882935591042
-0.0015937213320285
-0.0009837779216468
-0.0004838423337787
-9.87036619335413e-05
0.0001860279589891
0.0003989713732153
0.0005765999667346
0.0007553254254162
0.0009646854596212
0.0012244819663465
0.0015444678720086
0.0019248949829488
0.0023584580048918
0.0028324415907263
0.0033283822704106
0.0038212053477764
0.0042815008200705
0.0046796523965895
0.0049903523176908
0.005197322461754
0.0052950270473957
0.0052871452644467
0.0051857726648449
0.0050105373375117
0.0047852885909378
0.0045344126410782
0.0042800544761121
0.0040404088795185
0.0038302312605082
0.0036612835247069
0.0035396493040025
0.0034621604718267
0.0034152111038565
0.003377447836101
0.0033266127575188
0.0032465851400047
0.003130184719339
0.0029781530611217
0.002796972868964
0.0025969964917749
0.002391280606389
0.0021948816720396
0.0020231045782566
0.001888052211143
0.0017942308913916
0.0017340227495878
0.0016848524101078
0.0016095638275146
0.0014603913296014
0.0011863450054079
0.0007421318441629
9.68840904533863e-05
-0.0007577543146908
-0.0018019228009507
-0.0029874420724809
-0.0042446218430995
-0.0054927640594542
-0.00665028905496
-0.007643723860383
-0.0084155891090631
-0.0089300256222486
-0.0091755287721753
-0.0091658988967537
-0.008938536979258
-0.0085467025637626
-0.0080484114587306
-0.0074984654784202
-0.0069449720904231
-0.0064278310164809
-0.0059756836853921
-0.0056011793203651
-0.0052991919219493
-0.005050241947174
-0.004826477728784
-0.0045973039232194
-0.0043335291557013
-0.0040097753517329
-0.0036059981212019
-0.0031106998212635
-0.0025255605578422
-0.0018658525077626
-0.0011550122871994
-0.0004187391605228
0.0003181449719704
0.0010334982071071
0.0017099729739129
0.0023363535292446
0.0029059823136776
0.0034126718528568
0.0038480777293443
0.0042040334083139
0.0044773877598345
0.0046724127605557
0.0047991666942834
0.004869460593909
0.0048934030346572
0.0048780962824821
0.0048278225585818
0.0047445558011531
0.0046285786665976
0.0044800639152526
0.0043013831600546
0.0040980083867907
0.0038773925043642
0.003647985169664
0.003419084707275
0.0031998069025576
0.0029978901147842
0.0028213101904839
0.0026799377519637
0.0025816177949309
0.0025250839535146
0.0024956185370683
0.0024655254092067
0.0023989821784198
0.0022588893771171
0.0020130032207816
0.0016384632326662
0.0011255394201725
0.0004808665253221
-0.0002704616636037
-0.0010851447004824
-0.0019068382680416
-0.0026750122196972
-0.0033335895277559
-0.0038400855846703
-0.004175323061645
-0.0043477024883031
-0.0043878825381398
-0.004337528720498
-0.0042387908324599
-0.0041286931373178
-0.0040378188714385
-0.0039889211766421
-0.003993391059339
-0.0040488922968506
-0.0041420250199735
-0.0042540580034255
-0.004364525899291
-0.0044521754607558
-0.0044958246871829
-0.0044762976467609
-0.0043795527890324
-0.0041993814520537
-0.0039382888935506
-0.0036061275750398
-0.0032161129638552
-0.0027808409649878
-0.0023109496105462
-0.0018156863516196
-0.0013039587065577
-0.0007845638319849
-0.0002657350851222
0.0002440076787024
0.0007356973364949
0.0012036220869049
0.0016481550410389
0.0020731640979647
0.002481848699972
0.0028742298018187
0.0032464633695781
0.0035920355003327
0.0039028208702802
0.0041698641143739
0.004385876469314
0.0045477948151528
0.004656970500946
0.0047179134562611
0.004737265408039
0.0047226585447788
0.0046811765059828
0.004619525745511
0.0045459475368261
0.0044690938666462
0.0043924837373197
0.004311048425734
0.0042135291732847
0.0040863966569304
0.0039155967533588
0.0036864799913018
0.0033839254174381
0.0029941860120743
0.0025062998756766
0.0019123319070786
0.0012101968750357
0.000408278836403
-0.0004717057745438
-0.0013927516993135
-0.0023031951859593
-0.0031448798254132
-0.0038661339785903
-0.0044304416514933
-0.004817945882678
-0.0050235828384757
-0.0050540729425847
-0.0049247704446315
-0.004657229874283
-0.0042782984673976
-0.0038203669246286
-0.0033188199158757
-0.0028061200864613
-0.0023071020841598
-0.0018371429760009
-0.0014024480478838
-0.0010015782900154
-0.0006277279462665
-0.0002729146799538
6.693994509987533e-05
0.0003890517691615
0.0006832737126387
0.0009338943054899
0.0011241765459999
0.0012413937365636
0.0012807032326236
0.001248461077921
0.0011627497151494
0.0010486873798072
0.0009315822971984
0.0008320057531818
0.0007633598870597
0.0007318182033486
0.0007373840198852
0.0007739206193946
0.0008301374036818
0.0008927998133003
0.0009487591451033
0.0009857922559604
0.0009947530925273
0.0009720546659082
0.0009211507858708
0.000852336292155
0.0007794887060299
0.0007145581766963
0.0006634063902311
0.0006256810156628
0.0005987609038129
0.0005838427459821
0.0005882228724658
0.0006192635628394
0.0006767113809473
0.0007521634106524
0.0008342377841472
0.0009133514831773
0.0009839734993875
0.0010443899082019
0.0010933735175058
0.0011255524586886
0.0011287089437246
0.0010847034864127
0.0009732306352816
0.0007748777861706
0.0004741078009828
6.591022247448564e-05
-0.0004384056665003
-0.0010134946787729
-0.0016272338107228
-0.0022451030090451
-0.002831304911524
-0.0033511540386825
-0.0037748594768345
-0.0040794992819428
-0.0042495052330195
-0.0042787599377334
-0.0041735894046723
-0.003952519968152
-0.0036423522979021
-0.003273872192949
-0.0028780952561646
-0.0024822319392114
-0.0021078132558614
-0.0017729399260133
-0.0014939279062673
-0.0012821153504773
-0.0011395593173801
-0.0010580874513834
-0.0010213360656052
-0.0010077886981889
-0.0009935059351846
-0.0009540565079078
-0.0008667043875902
-0.0007143925176933
-0.0004900055937469
-0.0001970124430954
0.0001544568222016
0.0005523619474843
0.0009840786224231
0.0014342558570206
0.0018838347168639
0.0023139007389545
0.0027113184332847
0.0030704815872013
0.0033910269849002
0.0036749502178281
0.0039243027567863
0.0041398969478905
0.0043217334896326
0.0044704894535243
0.0045889117754995
0.0046824873425066
0.0047596734948456
0.0048305056989192
0.004901195410639
0.0049674841575324
0.0050136535428464
0.0050182351842522
0.0049599083140492
0.0048198224976658
0.0045838756486773
0.0042475378140807
0.0038195049855858
0.0033209663815796
0.0027820137329399
0.0022355047985911
0.0017080181278288
0.0012129868846386
0.0007509845308959
0.0003146135713905
-0.0001086422707885
-0.000538537511602
-0.0010031770216301
-0.0015315287746489
-0.0021413611248135
-0.0028317819815129
-0.0035821320489048
-0.0043560797348618
-0.0051092049106955
-0.0057955593802034
-0.0063720811158418
-0.0068029640242457
-0.0070638768374919
-0.0071448804810643
-0.0070510078221559
-0.006799598224461
-0.0064167026430368
-0.0059368750080466
-0.0054045403376221
-0.0048699481412768
-0.0043787308968603
-0.0039621950127184
-0.0036337170749902
-0.0033900188282132
-0.0032147855963557
-0.0030826451256871
-0.0029625259339809
-0.0028220466338098
-0.0026329304091632
-0.0023743864148855
-0.0020329458639025
-0.0016019215108826
-0.0010843419004231
-0.0004974391777068
0.0001274886308237
0.0007525854744017
0.0013426020741462
0.0018684644019231
0.0023070788010954
0.0026430059224367
0.0028712060302495
0.0029973883647471
0.0030358820222318
0.0030062734149396
0.0029293140396475
0.0028239523526281
0.00270771747455
0.0025989452842622
0.0025160866789519
0.0024718672502785
0.0024680756032466
0.0024968464858829
0.0025447586085647
0.0025951734278351
0.0026309522800147
0.002638985402882
0.0026129854377359
0.0025535740423947
0.0024685589596629
0.0023726357612758
0.0022832045797258
0.0022129619028419
0.0021641408093273
0.0021273929160088
0.0020832931622862
0.002004288136959
0.0018582211341708
0.0016149851726368
0.001254842034541
0.0007741355802863
0.0001858912291936
-0.0004820658941753
-0.0011891837930306
-0.0018862074939534
-0.0025218874216079
-0.0030503002926707
-0.0034359698183834
-0.0036560839507728
-0.0037010493688285
-0.0035731901880353
-0.0032860508654266
-0.0028676383662968
-0.0023622359149158
-0.0018249303102493
-0.0013128138380125
-0.0008777846232987
-0.0005605806945823
-0.0003855106187984
-0.0003581945202313
-0.0004679008270613
-0.0006917017744854
-0.0009969931561499
-0.0013428006786853
-0.0016828537918627
-0.0019711242057383
-0.0021677557379007
-0.0022450743708759
-0.0021925342734903
-0.0020167694892734
-0.0017370766727253
-0.0013804220361635
-0.0009769146563485
-0.0005542304133996
-0.0001322587486356
0.0002779652131721
0.0006699275691062
0.0010371571406722
0.0013733789091929
0.001674500061199
0.0019385032355785
0.0021653398871421
0.0023592978250235
0.0025298185646533
0.0026868975255638
0.0028364132158458
0.0029802802018821
0.0031181857921183
0.0032485662959516
0.0033686254173517
0.0034736427478492
0.0035582433920353
0.0036191209219396
0.0036553237587213
0.0036668602842837
0.0036550529766827
0.0036232937127351
0.0035767569206655
0.0035240680444985
0.0034780069254338
0.0034484821371734
0.0034325751475989
0.0034108639229089
0.0033508627675473
0.0032149269245564
0.0029703024774789
0.0025972889270633
0.0020914617925882
0.0014611108927056
0.0007258264813572
-8.251296821981668e-05
-0.0009209829149767
-0.0017409094143658
-0.0024944508913904
-0.0031393463723361
-0.0036432135384529
-0.0039897714741528
-0.0041813887655735
-0.0042342031374573
-0.0041730990633368
-0.0040299762040376
-0.00383991911076
-0.0036347841378301
-0.0034394818358123
-0.0032712407410144
-0.0031391023658216
-0.0030443775467574
-0.0029822601936757
-0.0029435185715556
-0.0029160995036363
-0.0028858406003564
-0.0028369138017296
-0.0027540242299437
-0.002625725697726
-0.0024465110618621
-0.0022175251506268
-0.0019465408986434
-0.0016460524639114
-0.0013299867277964
-0.0010117545025423
-0.0007040516356937
-0.0004187419835943
-0.0001655925880186
4.989461740478873e-05
0.0002273931750096
0.0003712290490511
0.0004906301037408
0.0005978051340207
0.0007011052803136
0.000800754292868
0.0008922741399146
0.0009717612992972
0.0010387126822024
0.0010974990436807
0.0011573194060474
0.0012298959773033
0.0013270322233438
0.0014592232182621
0.0016343835741281
0.0018568985396996
0.0021262234076857
0.0024346117861568
0.0027662201318889
0.0030973358079791
0.003396539017558
0.0036282045766711
0.0037609215360134
0.0037759824190288
0.0036706458777189
0.0034546884708106
0.0031432146206498
0.0027502633165568
0.0022855771239846
0.0017545255832374
0.0011597604025155
0.0005035179201513
-0.0002096546231769
-0.0009696618071757
-0.0017572428332641
-0.0025434009730815
-0.0032958062365651
-0.0039871861226856
-0.00459720287472
-0.0051089753396809
-0.0055065690539777
-0.0057758400216698
-0.0059073925949633
-0.0058992644771933
-0.005758854560554
-0.0055042998865246
-0.0051634130068123
-0.004769870545715
-0.0043584122322499
-0.0039588510990142
-0.0035891712177544
-0.0032514529302716
-0.0029348575044423
-0.0026245201006531
-0.0023085421416908
-0.0019789766520261
-0.0016309941420331
-0.0012627716641873
-0.0008742465870454
-0.0004650936461985
-3.395392559468746e-05
0.0004209700273349
0.0008994394447654
0.0013961045769974
0.0019013229757547
0.0024053151719272
0.0029003175441175
0.0033786899875849
0.0038298172876238
0.0042396723292768
0.0045934845693409
0.0048792143352329
0.0050898836925625
0.0052246591076254
0.0052895490080118
0.0052971867844462
0.005264573264867
0.005208786111325
0.0051428284496068
0.0050741275772452
0.0050050094723701
0.0049339812248945
0.0048584295436739
0.0047766556963324
0.0046861255541443
0.0045807394199073
0.004452247172594
0.0042945723980665
0.0041062217205762
0.0038898296188563
0.0036495786625891
0.0033867917954921
0.0030966470949351
0.002767915604636
0.0023844349198043
0.0019281288841739
0.0013825662899762
0.0007359709125012
-1.368753146380186e-05
-0.0008532531792297
-0.0017552806530147
-0.0026841983199119
-0.0036014737561345
-0.004468185827136
-0.0052464781329035
-0.0059019681066274
-0.0064070550724864
-0.0067421635612845
-0.006895531900227
-0.0068646543659269
-0.0066588050685822
-0.0062999846413731
-0.0058211358264088
-0.0052626244723796
-0.0046687982976436
-0.0040851333178579
-0.0035551870241761
-0.003116491716355
-0.0027949302457273
-0.0025995995383709
-0.0025218066293746
-0.0025380840525031
-0.0026142026763409
-0.0027093754615634
-0.002782872878015
-0.0028042611666023
-0.0027625367511063
-0.0026676929555833
-0.0025453011039644
-0.0024288771674036
-0.0023508623708039
-0.0023336973972618
-0.0023859133943915
-0.0025025170762091
-0.0026662140153348
-0.002850039396435
-0.0030214139260351
-0.0031472553964704
-0.0032002984080463
-0.0031634618062525
-0.0030291809234768
-0.0027958981227129
-0.0024649125989526
-0.0020380108617246
-0.0015159344766288
-0.000898323720321
-0.0001851620618253
0.0006197525653988
0.0015032698865979
0.0024407743476331
0.0034013884142041
0.0043546198867261
0.005273975431919
0.0061388174071908
0.0069341510534286
0.007649275008589
0.0082775605842471
0.0088164117187261
0.0092669688165187
0.0096338531002402
0.0099225305020809
0.0101345321163535
0.0102651184424757
0.010302560403943
0.0102250343188643
0.0099995946511626
0.0095891831442713
0.0089641716331243
0.0081115150824189
0.0070397844538092
0.0057808794081211
0.0043881176970899
0.0029312435071915
0.0014878426445648
0.0001316507696174
-0.0010770665248855
-0.002095882082358
-0.0029004605021327
-0.0034831403754651
-0.0038516018539667
-0.0040276744402945
-0.0040460061281919
-0.0039501711726188
-0.0037853349931538
-0.003592518158257
-0.003406326752156
-0.0032519905362278
-0.0031412625685334
-0.0030717321205884
-0.0030311746522784
-0.003001810517162
-0.0029606423340737
-0.0028803586028516
-0.0027324385009706
-0.002488249912858
-0.0021224268712103
-0.0016237238887697
-0.0010042949579656
-0.0002983815502375
0.0004456378519535
0.0011730064870789
0.0018281365046277
0.0023595131933689
0.0027253630105406
0.0028985175304114
0.0028690334875136
0.0026450180448591
0.0022514555603265
0.0017271460965275
0.0011211021337658
0.0004883543588221
-0.0001166546717286
-0.000648659421131
-0.0010781642049551
-0.0013938796473667
-0.0016011451371014
-0.001716636470519
-0.0017620594007894
-0.0017595328390598
-0.001728571136482
-0.0016848475206643
-0.0016410700045526
-0.0016083474038168
-0.0015958435833454
-0.0016076141037046
-0.0016394975828006
-0.0016798882279545
-0.0017132443608716
-0.0017252283869311
-0.0017088355962187
-0.0016676193336024
-0.0016148617723956
-0.0015712530585005
-0.0015624652151018
-0.0016161989187821
-0.0017577272374182
-0.0020042972173541
-0.0023602645378559
-0.0028142887167632
-0.0033399136736989
-0.0039004692807793
-0.0044554099440574
-0.0049640946090221
-0.0053880554623901
-0.0056951725855469
-0.0058648837730288
-0.005890741944313
-0.0057791783474385
-0.0055462913587689
-0.0052143149077892
-0.0048085027374327
-0.0043557658791542
-0.0038837096653878
-0.0034168970305472
-0.0029739264864474
-0.0025693688075989
-0.0022157917264848
-0.001921028131619
-0.0016823796322569
-0.0014836792834103
-0.001300839241594
-0.0011122119612991
-0.0009029314387589
-0.0006618312909267
-0.00037961313501
-5.074148066341877e-05
0.0003255910705775
0.0007462325738742
0.0012051716912537
0.0016954352613538
0.0022104107774794
0.0027424688450992
0.0032801546622067
0.0038088196888566
0.0043171695433557
0.0048016626387834
0.005260195583105
0.0056828190572559
0.0060511734336614
0.0063447062857449
0.006546476855874
0.0066454573534429
0.0066366912797093
0.0065216408111155
0.006307718809694
0.0060070301406085
0.0056359572336077
0.0052141076885163
0.004762009717524
0.004300314001739
0.0038506819400936
0.0034338051918894
0.0030631558038294
0.0027403708081692
0.0024561816826462
0.0021943799220025
0.0019361311569809
0.0016628532903268
0.0013556415215134
0.0009924625046551
0.000547743984498
-3.4989789128303528e-06
-0.0006797835812903
-0.0014874370535835
-0.0024151105899363
-0.003432233352214
-0.0044933990575373
-0.0055443597957491
-0.006528387311846
-0.0073944190517067
-0.0081033948808908
-0.0086300680413842
-0.0089622056111693
-0.0090989675372838
-0.0090487049892544
-0.0088265417143702
-0.0084533616900444
-0.0079559003934264
-0.0073649208061397
-0.0067112785764038
-0.0060233445838093
-0.0053261248394846
-0.0046387589536607
-0.0039721559733152
-0.0033310588914901
-0.0027177464216947
-0.0021331361494958
-0.0015763477422297
-0.0010435495059937
-0.0005256275180727
-7.973052561283112e-06
0.0005256549920886
0.0010882171336561
0.0016860158648341
0.0023171887733042
0.0029716549906879
0.0036329310387372
0.0042821248061954
0.0049023395404219
0.005480055231601
0.0060024200938642
0.0064554717391729
0.006826963275671
0.0071100811474025
0.007304401602596
0.0074152522720396
0.0074527505785226
0.0074304621666669
0.0073642693459987
0.0072704148478806
0.0071623977273702
0.0070496052503585
0.0069383671507239
0.0068336371332407
0.0067407726310193
0.0066658817231655
0.0066116852685809
0.0065715261735022
0.0065286681056022
0.0064623705111444
0.0063558076508343
0.0062001496553421
0.005993562284857
0.0057387808337807
0.0054419790394604
0.0051133455708622
0.0047680819407105
0.0044241691939532
0.0040948903188109
0.0037802099250257
0.003463874105364
0.003117223503068
0.0027045039460062
0.0021872024517506
0.001531210495159
0.0007187169976532
-0.0002420400269329
-0.0013163015246391
-0.0024496109690517
-0.0035766183864325
-0.0046308715827763
-0.005555409938097
-0.0063099041581153
-0.0068711685016751
-0.0072304890491068
-0.0073915673419833
-0.0073683662340044
-0.0071840416640043
-0.0068732695654034
-0.0064834877848625
-0.0060697644948959
-0.0056856963783502
-0.0053753340616822
-0.0051682717166841
-0.0050781173631548
-0.0051031131297349
-0.0052277599461376
-0.0054252492263913
-0.0056609623134136
-0.0058970917016267
-0.0060964552685618
-0.0062246993184089
-0.0062520899809896
-0.0061561102047562
-0.0059267403557896
-0.0055716014467179
-0.0051148422062397
-0.0045907720923423
-0.0040376926772296
-0.0034928452223539
-0.0029869775753468
-0.0025392319075763
-0.0021538091823458
-0.0018206054810434
-0.0015212860889732
-0.0012366934679448
-0.0009500463493168
-0.0006471177912317
-0.0003166223177686
4.903401713818312e-05
0.0004513108578976
0.0008822728414088
0.0013252029893919
0.0017587812617421
0.0021618769969791
0.0025190450251102
0.0028244750574231
0.0030811035539954
0.0032968171872198
0.0034814639948308
0.0036454410292208
0.0037974363658577
0.0039403871633112
0.0040693106129765
0.0041722673922777
0.0042305472306907
0.0042173294350504
0.0041000479832291
0.0038487480487674
0.0034454269334673
0.0028898196760565
0.0022009783424437
0.0014141669962555
0.0005744646769016
-0.0002688307431526
-0.0010657353559508
-0.0017690912354737
-0.002338902791962
-0.0027465540915727
-0.002977194963023
-0.003028709674254
-0.0029100372921675
-0.002643116749823
-0.0022647089790552
-0.0018221896607428
-0.0013659228570759
-0.0009429873316548
-0.0005919137620367
-0.0003377340035513
-0.0001886208192445
-0.0001352592371404
-0.0001541054807603
-0.0002134643727913
-0.0002797385095618
-0.0003226657863706
-0.0003177415346726
-0.0002455341164022
-9.241641964763404e-05
0.0001454387092962
0.0004593316698446
0.0008289074758067
0.0012257177149876
0.0016195368953049
0.001984701026231
0.00230258773081
0.0025611533783376
0.0027539767324924
0.0028794901445508
0.0029409788548946
0.0029469109140336
0.0029097718652337
0.0028436547145247
0.0027631875127553
0.0026833699084818
0.0026168010663241
0.0025691138580441
0.0025375403929501
0.0025139609351754
0.0024889239575713
0.0024541898164898
0.002405097708106
0.0023421936202794
0.0022686107549816
0.0021848112810403
0.0020874887704849
0.0019737312104552
0.0018442482687532
0.0017036248464137
0.0015604973305016
0.0014255995629355
0.0013049024855718
0.0011925569269806
0.0010690073249861
0.0009044157341122
0.0006660296348854
0.0003264236729592
-0.0001318692229688
-0.0007149352459236
-0.0014155791141092
-0.0022109481506049
-0.0030626361258327
-0.003920504823327
-0.0047291982918977
-0.0054351580329239
-0.0059914318844676
-0.0063617494888603
-0.0065270499326288
-0.0064899395219981
-0.0062716826796531
-0.005904484540224
-0.0054241665638983
-0.0048658922314643
-0.0042627165094017
-0.0036464917939156
-0.0030515440739691
-0.0025164643302559
-0.0020787387620657
-0.0017662640893831
-0.0015916298143565
-0.0015483198221772
-0.0016086307587102
-0.0017287828959524
-0.0018616479355841
-0.0019674832001328
-0.0020170346833765
-0.001991051249206
-0.0018802415579557
-0.0016853037523105
-0.0014147192705422
-0.0010806750506162
-0.0006966596702113
-0.000277891755104
0.0001581888645887
0.0005939702969044
0.0010152385802939
0.0014133241493254
0.001785745145753
0.0021351433824747
0.002464008051902
0.0027691072318702
0.0030426026787608
0.0032777555752545
0.0034724031575024
0.0036287177354097
0.0037524863146245
0.0038526847492903
0.0039384812116622
0.00401431042701
0.0040779821574687
0.0041236681863665
0.0041463957168161
0.0041450290009379
0.0041234674863517
0.0040891557000577
0.0040485700592398
0.0040028127841651
0.0039468454197049
0.0038724155165255
