bvp
-0.0018226548563688
-0.001594936591573
-0.0013717302354052
-0.0011376653565093
-0.0008804163662716
-0.0005912379710935
-0.0002657262375578
9.579036850482224e-05
0.000488074903842
0.0009022529120557
0.0013292687945067
0.0017633190145716
0.0022012793924659
0.0026375581510365
0.0030603550840169
0.0034538849722594
0.0038031390868127
0.0040958025492727
0.0043221744708716
0.0044774678535759
0.0045655453577637
0.0045991269871592
0.0045950044877827
0.0045683211646974
0.0045308456756174
0.0044917599298059
0.0044575459323823
0.0044325250200927
0.0044195898808538
0.0044181873090565
0.0044220788404345
0.0044212415814399
0.0044066025875508
0.0043728840537369
0.0043170559220016
0.0042335665784776
0.0041092727333307
0.0039193499833345
0.0036249770782887
0.0031768220942467
0.0025260187685489
0.0016385831404477
0.0005094974767416
-0.0008284724317491
-0.0023082580883055
-0.0038439698982983
-0.0053478023037314
-0.00673867482692
-0.0079443603754043
-0.0089049972593784
-0.0095800328999757
-0.0099539374932646
-0.0100359478965401
-0.0098552629351615
-0.0094566186890006
-0.0088953543454408
-0.0082302382215857
-0.0075175371021032
-0.0068065607920289
-0.0061338450759649
-0.0055198166519403
-0.0049721398390829
-0.0044910265132784
-0.0040716594085097
-0.0037047835066914
-0.0033768482971936
-0.0030699798371642
-0.0027632068376988
-0.0024356073699891
-0.0020698807202279
-0.0016550901345908
-0.0011874223127961
-0.0006687130080536
-0.0001051246654242
0.0004943960811942
0.0011219016741961
0.0017716300208121
0.0024343521799892
0.0030916056130081
0.0037170697469264
0.0042830044403672
0.0047669662162661
0.0051565272733569
0.0054502403363585
0.0056550162844359
0.0057829478755593
0.0058494741097092
0.0058724833652377
0.0058711087331175
0.0058632614091038
0.0058628879487514
0.0058790454640984
0.0059161130338907
0.0059728706255555
0.0060421535745263
0.006112870760262
0.0061723464168608
0.0062085781246423
0.0062129539437592
0.0061812666244804
0.0061113853007555
0.0059985616244375
0.0058308141306042
0.0055866474285721
0.0052359821274876
0.00474384566769
0.004077082965523
0.0032146093435585
0.0021568473894149
0.0009274294134229
-0.0004322880413383
-0.0018682547379285
-0.0033153383992612
-0.0047008134424686
-0.0059529677964746
-0.0070113111287355
-0.00783362518996
-0.0083974357694387
-0.0086980313062667
-0.008747492916882
-0.008574403822422
-0.0082198968157172
-0.0077296439558267
-0.0071476502344012
-0.0065154838375747
-0.0058737965300679
-0.0052620763890445
-0.0047151199541985
-0.0042574102990329
-0.0038988071028143
-0.0036332656163722
-0.0034403959289193
-0.0032895095646381
-0.0031443843618035
-0.0029680852312594
-0.0027290598955005
-0.0024065244942903
-0.0019923811778426
-0.0014910224126651
-0.0009172379504889
-0.0002920712577179
0.0003595665330067
0.0010095140896737
0.0016294990200549
0.002196226734668
0.0026945234276354
0.0031180570367723
0.0034690741449594
0.0037566844839602
0.0039938213303685
0.0041938060894608
0.0043661575764417
0.0045139836147427
0.0046365913003683
0.0047346833162009
0.0048124799504876
0.0048756687901914
0.0049277679063379
0.0049680080264806
0.0049918945878744
0.0049937958829104
0.00497034098953
0.0049216127954423
0.0048489510081708
0.0047516589984297
0.0046232305467128
0.0044473949819803
0.004196508321911
0.0038343456108123
0.0033242362551391
0.0026407244149595
0.0017789944540709
0.0007575823692604
-0.0003847455373033
-0.0015945055056363
-0.0028094288427382
-0.0039645605720579
-0.0049979076720774
-0.0058553544804453
-0.0064962026663124
-0.006898702122271
-0.0070622623898088
-0.0070051485672593
-0.0067594735883176
-0.0063660005107522
-0.0058693885803222
-0.0053128595463931
-0.0047332001850008
-0.0041596139781177
-0.0036173486150801
-0.0031308210454881
-0.0027215604204684
-0.0024030390195548
-0.0021759551018476
-0.0020259777083992
-0.0019262784626334
-0.0018439594423398
-0.0017467862926423
-0.0016086362302303
-0.0014117648825049
-0.0011451333994045
-0.0008029893506318
-0.0003860995639115
9.77161107584834e-05
0.000635142379906
0.0012080250307917
0.0017932141199707
0.0023648994974792
0.0028987522237002
0.0033750110305845
0.0037806066684424
0.0041101668030023
0.0043647629208862
0.0045496765524148
0.0046727275475859
0.0047441888600587
0.0047776801511645
0.0047883233055472
0.0047885472886264
0.0047857328318059
0.0047819749452173
0.0047746733762323
0.0047578630037605
0.004723965190351
0.0046654292382299
0.0045739701017737
0.0044357795268297
0.0042269020341336
0.0039140935987234
0.003460120409727
0.0028297938406467
0.001996963750571
0.0009534003911539
-0.0002834812039509
-0.0016674376092851
-0.0031252682674676
-0.0045650047250092
-0.0058913063257932
-0.0070221163332462
-0.007897974923253
-0.0084837703034281
-0.0087692253291606
-0.0087687252089381
-0.0085169393569231
-0.0080617954954504
-0.0074580051004886
-0.006762487348169
-0.0060312524437904
-0.0053148409351706
-0.0046518119052052
-0.004063818603754
-0.0035558720119297
-0.0031226256396621
-0.0027563397306948
-0.0024502596352249
-0.0021969624795019
-0.0019857168663293
-0.0018008484039455
-0.0016209582099691
-0.0014205231564119
-0.0011749929981306
-0.0008657539729028
-0.000482257688418
-2.302438952028752e-05
0.0005039820680394
0.0010822939220815
0.0016898887697607
0.0023048506118357
0.0029096195939928
0.0034890626557171
0.0040266457945108
0.0045054787769913
0.0049126259982585
0.0052416757680475
0.0054929531179368
0.0056734657846391
0.0057969372719526
0.0058821262791752
0.0059489952400326
0.0060141589492559
0.0060874391347169
0.0061714029870927
0.0062633412890136
0.0063573447987437
0.0064461538568139
0.0065221711993217
0.0065756640397012
0.0065931337885558
0.0065590040758252
0.006455959752202
0.0062618060037493
0.0059471884742379
0.0054758256301283
0.0048087290488183
0.0039149243384599
0.0027844649739563
0.0014366857940331
-7.934658788144588e-05
-0.0016919354675337
-0.0033163039479404
-0.0048629250377416
-0.0062480210326612
-0.0074047548696398
-0.0082882484421134
-0.008875947445631
-0.009168367832899
-0.0091887461021542
-0.0089789861813187
-0.0085926391184329
-0.0080873630940914
-0.0075199739076197
-0.0069443527609109
-0.0064083212055265
-0.005948391277343
-0.0055854665115475
-0.0053229420445859
-0.0051489728502929
-0.005043152719736
-0.0049823820590972
-0.0049435589462518
-0.0049052527174353
-0.0048487852327525
-0.0047589470632374
-0.0046254340559244
-0.0044450890272855
-0.0042238477617502
-0.0039752759039402
-0.0037152452860027
-0.0034587231930345
-0.0032208249904215
-0.0030162055045366
-0.0028552648145705
-0.0027434476651251
-0.002686213934794
-0.0026939730159938
-0.0027816863730549
-0.0029644584283232
-0.0032522077672183
-0.0036440733820199
-0.0041237534023821
-0.0046587768010795
-0.0052048647776246
-0.0057135531678795
-0.0061408206820487
-0.0064545474015176
-0.0066381166689097
-0.0066887820139527
-0.0066131595522165
-0.0064235981553792
-0.006136979907751
-0.0057749822735786
-0.0053641973063349
-0.0049341786652803
-0.004511285573244
-0.0041110273450613
-0.0037354212254285
-0.0033769588917493
-0.0030245352536439
-0.0026661464944481
-0.0022878861054778
-0.001872825436294
-0.0014021098613739
-0.0008577434346079
-0.0002249088138341
0.0005080169066786
0.001350212842226
0.0023067174479365
0.0033747162669897
0.004541746340692
0.0057875392958521
0.0070856036618351
0.0084026837721467
0.00970025267452
0.0109380092471838
0.0120767364278435
0.0130829745903611
0.0139344530180096
0.0146207241341471
0.0151410568505525
0.0155042447149753
0.0157273672521114
0.0158310234546661
0.0158360823988914
0.0157648585736751
0.0156428907066583
0.0154990078881382
0.015363466925919
0.0152637073770165
0.0152214979752898
0.0152544640004634
0.015378963202238
0.0156109128147363
0.0159636978060007
0.0164450034499168
0.0170548819005489
0.0177842192351818
0.018611442297697
0.0194982271641492
0.0203894823789596
0.0212210677564144
0.021931005641818
0.0224681049585342
0.02279544621706
0.0228890534490346
0.0227348152548074
0.0223266333341598
0.0216665156185627
0.0207651574164628
0.0196397732943296
0.0183085016906261
0.016787052154541
0.0150907021015882
0.0132345473393797
0.0112274978309869
0.009067103266716
0.0067430362105369
0.0042477361857891
0.0015874747186899
-0.0012119431048631
-0.0041064489632844
-0.0070384601131081
-0.0099416356533765
-0.0127460425719618
-0.0153834465891122
-0.0177916530519723
-0.0199190899729728
-0.0217297971248626
-0.0232071094214916
-0.0243554320186376
-0.0252007003873586
-0.0257897526025772
-0.0261859931051731
-0.0264593362808227
-0.0266755074262619
-0.0268898122012615
-0.0271431524306535
-0.0274590980261564
-0.0278440304100513
-0.0282911490648984
-0.0287875160574913
-0.0293205603957176
-0.0298802144825458
-0.0304561145603656
-0.0310331154614686
-0.0315910689532756
-0.0321098007261753
-0.0325731858611106
-0.0329683348536491
-0.0332821160554885
-0.0334984995424747
-0.0335968397557735
-0.0335509069263935
-0.033330287784338
-0.0329040475189685
-0.0322444327175617
-0.0313291996717453
-0.0301432535052299
-0.0286796074360609
-0.0269375294446945
-0.0249175243079662
-0.0226180404424667
-0.0200397670269012
-0.0171947591006755
-0.0141103910282254
-0.0108246663585305
-0.0073793707415461
-0.0038168672472238
-0.0001799445599317
0.0034871436655521
0.0071356650441884
0.0107085695490241
0.0141390953212976
0.0173521749675273
0.0202687457203865
0.0228145625442266
0.0249316487461328
0.0265872366726398
0.0277779083698987
0.0285290963947772
0.0288903824985027
0.0289296321570873
0.0287283565849065
0.0283753387629985
0.0279569383710622
0.0275483410805463
0.0272076837718486
0.0269721820950508
0.0268572624772787
0.0268574953079223
0.026949094608426
0.0270962193608284
0.0272587053477764
0.0273972675204277
0.0274757649749517
0.0274621173739433
0.0273295566439628
0.0270587690174579
0.0266402326524257
0.0260770786553621
0.0253873001784086
0.0246018171310424
0.0237588267773389
0.0228979103267192
0.0220547653734684
0.0212564878165721
0.0205184184014797
0.0198440719395875
0.0192281361669302
0.0186580494046211
0.0181122496724128
0.0175610966980457
0.01697245426476
0.016317406669259
0.0155748426914215
0.0147347236052155
0.0137985125184059
0.0127773806452751
0.0116895027458667
0.0105564463883638
0.009399383328855
0.0082375574856996
0.0070884134620428
0.0059665525332093
0.0048838490620255
0.0038507990539073
0.0028733182698488
0.00194688513875
0.0010540802031755
0.0001652920618653
-0.0007588546723127
-0.0017622467130422
-0.0028851702809333
-0.0041567115113139
-0.0055900514125823
-0.0071790749207139
-0.008895818144083
-0.0106911994516849
-0.0125006278976798
-0.0142527939751744
-0.0158779397606849
-0.0173145737498998
-0.0185160804539918
-0.0194555446505546
-0.0201263930648565
-0.0205408353358507
-0.0207275599241256
-0.0207269079983234
-0.0205838344991207
-0.0203411858528852
-0.0200351662933826
-0.0196945238858461
-0.0193425267934799
-0.0189980939030647
-0.0186750888824462
-0.0183815937489271
-0.0181183107197284
-0.0178758837282657
-0.0176363047212362
-0.0173801947385072
-0.0170930661261081
-0.0167650654911994
-0.0163878444582223
-0.0159543436020612
-0.0154603794217109
-0.0149054303765296
-0.0142932832241058
-0.0136323058977723
-0.0129351448267698
-0.0122185535728931
-0.0115009509027004
-0.0107960980385541
-0.010107897222042
-0.0094324834644794
-0.0087660457938909
-0.0081105399876832
-0.0074734073132276
-0.0068638743832707
-0.006288543343544
-0.0057479562237858
-0.0052366098389029
-0.0047484929673373
-0.0042857811786234
-0.0038645388558506
-0.0035144216381013
-0.0032741269096732
-0.0031850184313952
-0.003282789606601
-0.0035860412754118
-0.0040872567333281
-0.0047537852078676
-0.005534385330975
-0.0063635976985096
-0.0071669812314212
-0.0078701972961425
-0.0084078311920166
-0.0087297782301902
-0.0088061597198247
-0.0086297765374183
-0.0082148509100079
-0.0075924713164567
-0.0068045551888644
-0.0058992002159357
-0.0049266787245869
-0.0039329309947788
-0.0029534143395721
-0.002012641634792
-0.0011271912371739
-0.0003073757980018
0.0004424792714416
0.0011250942479819
0.0017516528023406
0.0023402539081871
0.0029116203077137
0.0034840367734432
0.004069235175848
0.0046714171767234
0.0052884463220834
0.0059132785536348
0.0065370360389351
0.0071538910269737
0.0077620949596166
0.0083581767976284
0.0089322486892342
0.009470303542912
0.0099591864272952
0.0103907035663723
0.0107633993029594
0.0110803646966815
0.0113455429673194
0.0115618407726287
0.0117316422984004
0.0118590341880917
0.0119501519948244
0.0120095126330852
0.0120387021452188
0.0120412930846214
0.0120258126407861
0.0120015852153301
0.0119738020002841
0.0119425766170024
0.0119035253301262
0.011847835034132
0.0117611037567257
0.0116197345778346
0.0113879088312387
0.0110198883339762
0.0104685220867395
0.0096985027194023
0.0086984131485223
0.0074849966913461
0.006101680919528
0.0046153930015861
0.0031097815372049
0.0016717805992811
0.0003763592103496
-0.0007213288918137
-0.0015867829788476
-0.0022062929347157
-0.0025868010707199
-0.0027533392421901
-0.002743496093899
-0.0025996037293225
-0.0023623774759471
-0.0020690276287496
-0.0017536008963361
-0.0014455128693953
-0.0011658658040687
-0.000926004955545
-0.000730357482098
-0.000579077634029
-0.000468059326522
-0.000389359309338
-0.0003335073124617
-0.000291081611067
-0.000252277473919
-0.0002068511676043
-0.0001452660071663
-5.962949944660068e-05
5.556270480155945e-05
0.0002024736604653
0.0003795343800447
0.0005825149128213
0.0008065438014455
0.0010474185692146
0.0013006323715671
0.0015583878848701
0.0018079194705933
0.0020333554130047
0.0022194066550582
0.00235485448502
0.0024353931657969
0.0024648909457027
0.0024535846896469
0.0024141003377735
0.0023581620771437
0.0022953711450099
0.0022325972095131
0.0021728500723838
0.0021170584950596
0.0020700306631624
0.0020423226524144
0.0020432684104889
0.0020721084438264
0.0021122598554939
0.0021284385584294
0.0020685675553977
0.001873580738902
0.001492675859481
0.0008953595533967
7.660780102014542e-05
-0.0009415063541382
-0.0021110663656145
-0.0033636693842709
-0.0046196235343813
-0.0057988120242953
-0.0068287285976111
-0.0076500824652612
-0.0082237310707569
-0.0085362950339913
-0.0086006727069616
-0.0084514692425727
-0.0081367464736104
-0.0077097904868423
-0.0072231162339448
-0.0067233201116323
-0.0062465169467031
-0.0058160522021353
-0.005442960653454
-0.0051284404471516
-0.0048671411350369
-0.0046483632177114
-0.004455049522221
-0.0042655724100768
-0.0040594767779111
-0.0038220058195292
-0.0035448283888399
-0.0032251644879579
-0.0028650020249187
-0.0024703072849661
-0.0020496072247624
-0.0016120170475915
-0.001166001195088
-0.0007191279437392
-0.0002783894306048
0.0001489432761445
0.0005549726774916
0.0009330136235803
0.0012809967156499
0.0016023511998355
0.0019019991159439
0.0021815577056258
0.0024390458129346
0.0026708771474659
0.0028718991670757
0.0030363018158823
0.0031612999737262
0.0032497951760888
0.0033100503496825
0.0033531326334923
0.0033901820424944
0.0034318082034587
0.003486952278763
0.0035579395480453
0.0036353291943669
0.0036957468837499
0.0037014177069067
0.003603680524975
0.0033531840890645
0.0029120617546141
0.0022623245604336
0.0014102493878453
0.000387649750337
-0.000751273939386
-0.0019368869252502
-0.0030919476412236
-0.0041396422311663
-0.0050122067332267
-0.0056595508940517
-0.0060557182878255
-0.0061992486007511
-0.0061085135675966
-0.0058178924955427
-0.0053753228858113
-0.0048375995829701
-0.0042627356015145
-0.0037011788226664
-0.0031886186916381
-0.0027433026116341
-0.0023688157089054
-0.0020593390800058
-0.0018033179221674
-0.001585982274264
-0.0013927635736763
-0.0012115855934098
-0.0010312142549082
-0.0008375978795811
-0.0006143562495708
-0.0003492252435535
-3.949296660721302e-05
0.0003085094504058
0.0006828657351434
0.0010692998766899
0.0014542362187057
0.0018279898213222
0.0021863300353288
0.0025283060967922
0.0028524014633148
0.0031555290333926
0.0034345837775617
0.0036867023445665
0.0039097657427191
0.0041057947091758
0.0042816521599888
0.0044439206831157
0.0045945169404149
0.0047302953898906
0.0048443032428622
0.0049285674467682
0.0049777943640947
0.0049911872483789
0.0049717267975211
0.0049241632223129
0.0048536830581724
0.0047668213956058
0.0046729599125683
0.0045840148814022
0.0045121139846742
0.004464944358915
0.0044383835047483
0.0044095339253544
0.0043362719006836
0.0041650352068245
0.0038427994586527
0.0033306675031781
0.002615544013679
0.0017126665916293
0.0006588674150407
-0.0004953297320753
-0.0016900836490094
-0.0028588529676198
-0.0039334157481789
-0.0048527182079851
-0.0055712629109621
-0.0060623288154602
-0.0063179600983858
-0.0063496581278741
-0.0061876447871327
-0.005875201895833
-0.0054606832563877
-0.0049927523359656
-0.0045184534974396
-0.0040785586461424
-0.0037007401697337
-0.0033959816209971
-0.0031598899513483
-0.0029777721501886
-0.0028306520543992
-0.0026995930820703
-0.0025678542442619
-0.0024209064431488
-0.0022459912579506
-0.0020333568099886
-0.001778514124453
-0.001483458909206
-0.0011563610751181
-0.0008098499383777
-0.0004574519116431
-0.0001102663518395
0.0002236807486042
0.0005392868188209
0.0008344309753738
0.0011087586171925
0.0013625514693558
0.0015973190311342
0.0018166499212384
0.0020258920267224
0.0022307811304926
0.0024351337924599
0.0026381916832178
0.0028330977074801
0.0030080070719122
0.0031501841731369
0.0032508778385818
0.003308426355943
0.0033291561994701
0.0033264139201492
0.003317124210298
0.0033171290997415
0.0033377516083419
0.0033815139904618
0.0034373009111732
0.0034809517674148
0.0034799254499375
0.0033963718451559
0.0031915982253849
0.0028347056359052
0.0023102140985429
0.0016219038516283
0.0007941575022414
-0.0001304694451391
-0.001097529893741
-0.0020477988291531
-0.0029243789613246
-0.0036793733015656
-0.0042781634256243
-0.0047017526812851
-0.0049461615271866
-0.0050171851180493
-0.0049264393746852
-0.004692843183875
-0.0043449201621115
-0.003919736482203
-0.0034581986255943
-0.0029997916426509
-0.0025787523481994
-0.0022197635844349
-0.0019354198593646
-0.0017284885980188
-0.0015946474159136
-0.0015226270770654
-0.0014943201094865
-0.0014870652230456
-0.0014777223113924
-0.0014457715442404
-0.0013744133757427
-0.0012527017388492
-0.0010781426681205
-0.0008555529057048
-0.0005927759921178
-0.0002973857626784
2.2963184164837003e-05
0.0003582863137125
0.0006962614133954
0.0010241741547361
0.0013301321305334
0.0016035260632634
0.0018364517018198
0.0020260456949472
0.0021756009664386
0.0022948766127228
0.0023991474881768
0.0025040265172719
0.0026188157498836
0.0027436139062047
0.0028698397800326
0.0029809609986841
0.0030528074130415
0.0030551797244697
0.0029558963142335
0.002726646605879
0.0023485857527703
0.0018171283882111
0.001144980546087
0.0003614856104832
-0.0004893419682048
-0.0013511166907846
-0.0021622013300657
-0.0028673517517745
-0.0034261748660355
-0.0038151014596223
-0.0040268041193485
-0.0040694363415241
-0.0039652064442634
-0.0037464867345988
-0.0034488011151552
-0.0031048352830111
-0.002742321928963
-0.0023833559826016
-0.0020432421006262
-0.0017308052629232
-0.0014506431762129
-0.0012038561981171
-0.0009876800468191
-0.0007973239989951
-0.0006284359842538
-0.0004774357657879
-0.0003398741828277
-0.000209143734537
-7.76899978518486e-05
6.150838453322649e-05
0.0002154597314074
0.0003910892410203
0.0005927014863118
0.0008191500091925
0.0010637424420565
0.0013177627697587
0.0015759996604174
0.0018401395063847
0.0021149187814444
0.0023990795016288
0.0026811906136572
0.0029442105442285
0.003172090742737
0.0033530758228152
0.0034814223181456
0.0035592662170529
0.0035959612578153
0.0036046113818883
0.003599680494517
0.0035957633517682
0.0036045401357114
0.0036307461559772
0.0036695473827421
0.00370429828763
0.0037043876945972
0.0036273542791604
0.0034276221413165
0.0030679735355079
0.0025283736176788
0.0018101637251675
0.0009369659237563
-4.677957622334361e-05
-0.0010809445520862
-0.0020979605615139
-0.0030313760507851
-0.0038235131651163
-0.0044319122098386
-0.0048336987383663
-0.0050256447866559
-0.0050194645300507
-0.004838375840336
-0.0045183254405856
-0.0041068675927817
-0.0036552604287862
-0.003209407441318
-0.0028043701313436
-0.0024619428440928
-0.0021902443841099
-0.0019848239608108
-0.0018310982268303
-0.0017082630656659
-0.0015937087591737
-0.0014663375914096
-0.0013091523433104
-0.0011118852999061
-0.0008715649601072
-0.000590511248447
-0.000275757513009
5.9496727772057056e-05
0.0003968857345171
0.0007181262481026
0.0010112219024449
0.0012729878071695
0.0015069477958604
0.0017199183348566
0.0019196693319827
0.002113026799634
0.0023033693432807
0.0024889360647648
0.0026651220396161
0.0028293267823755
0.0029824329540133
0.0031253769993782
0.0032549961470067
0.0033636945299804
0.0034438464790582
0.0034929425455629
0.0035145450383424
0.0035151762422174
0.0035011814907193
0.003476568032056
0.0034400669392198
0.0033817186485975
0.0032812904100865
0.0031103738583624
0.0028371487278491
0.0024329780135303
0.0018815626390278
0.0011860192753374
0.0003680618247017
-0.0005369523423723
-0.0014829700812697
-0.0024164319038391
-0.0032827914692461
-0.0040327687747776
-0.0046259155496954
-0.0050341617316007
-0.005246125627309
-0.0052690161392092
-0.0051260930486023
-0.0048512569628655
-0.0044835624285042
-0.0040621683001518
-0.0036207858938723
-0.0031849283259361
-0.0027755305636674
-0.0024129948578774
-0.0021142652258276
-0.0018865206511691
-0.0017247279174625
-0.0016134775942191
-0.001530508743599
-0.0014519118703901
-0.0013580619124695
-0.0012367179151624
-0.0010821900796145
-0.0008924101712182
-0.0006667315028607
-0.0004059121711179
-0.0001116467174142
0.0002144566969946
0.0005680383183062
0.0009371314663439
0.0013024087529629
0.001642782241106
0.0019407109357416
0.0021856056991964
0.0023762537166476
0.0025205574929714
0.002632179763168
0.0027254121378064
0.002809640020132
0.0028867553919553
0.0029539123643189
0.0030093055684119
0.0030564565677195
0.0031049305107444
0.0031666527502238
0.0032480286899954
0.0033431090414524
0.0034329805057495
0.0034894060809165
0.0034784160088747
0.0033630640245974
0.0031074418220669
0.0026845163665711
0.0020854128524661
0.0013237150851637
0.0004334751283749
-0.000535165076144
-0.0015200596535578
-0.0024519364815205
-0.0032635340467095
-0.0039021549746394
-0.0043384158052504
-0.00456682452932
-0.0046011614613235
-0.0044688829220831
-0.0042055747471749
-0.003849830944091
-0.0034404250327497
-0.003015759633854
-0.0026123255956918
-0.0022601033560931
-0.0019774842076003
-0.0017691267421469
-0.0016255690716207
-0.0015237649204209
-0.0014331574784591
-0.0013269284972921
-0.0011898430529981
-0.0010193869238719
-0.0008231114479713
-0.0006141072371974
-0.0004061051586177
-0.0002087453030981
-2.421680255793035e-05
0.0001516640186309
0.0003247543354518
0.0004993707407265
0.0006789588369429
0.0008675032877363
0.0010691202478483
0.0012875711545348
0.0015255294274538
0.0017811864381656
0.0020450511947274
0.002301593311131
0.0025339121930301
0.0027270154096186
0.0028696486260741
0.0029572320636361
0.002995500806719
0.0030003197025507
0.0029903617687523
0.0029764680657535
0.0029550904873758
0.002907165326178
0.0027998154982924
0.0025931163690984
0.0022522914223372
0.0017576853279024
0.0011083265999332
0.0003223408712074
-0.0005646341014653
-0.001504371757619
-0.0024424903094768
-0.0033232858404517
-0.0040936707518994
-0.0047088195569813
-0.0051380610093474
-0.0053680380806326
-0.0054032476618885
-0.0052639478817582
-0.0049800523556768
-0.0045836204662919
-0.0041060075163841
-0.003580225398764
-0.0030424147844314
-0.0025283498689532
-0.0020676127169281
-0.0016796748386695
-0.001371954800561
-0.0011395101901143
-0.0009676306508481
-0.0008362794178538
-0.0007238137768581
-0.0006088160444051
-0.0004717988194897
-0.0002989348722621
-8.453987538814545e-05
0.0001719584688544
0.0004698114935308
0.0008047265582717
0.0011645677732303
0.0015301026869565
0.0018801260739564
0.0021968176588416
0.0024693135637789
0.0026944899000227
0.00287497183308
0.003016838338226
0.0031285248696804
0.0032195567619055
0.0032986002042889
0.0033725791145116
0.003447443479672
0.0035281155724078
0.0036162128672003
0.0037072768900543
0.0037907052319496
0.0038546128198504
0.0038928291760385
0.0039081638678908
0.0039095380343496
0.0039047235623002
0.003891478292644
0.0038509282749146
0.0037478029262274
0.0035384327638894
0.0031821255106478
0.0026508867740631
0.0019362622406333
0.0010535552864894
4.172173794358969e-05
-0.0010423149215057
-0.0021331370808184
-0.0031659591477364
-0.0040830667130649
-0.0048382575623691
-0.0054001128301024
-0.005754564423114
-0.0059058489277958
-0.0058749690651893
-0.0056959246285259
-0.0054089715704321
-0.0050524473190307
-0.0046584154479205
-0.0042529921047389
-0.0038559199310839
-0.0034784013405442
-0.0031245045829564
-0.0027964008040726
-0.0024976129643619
-0.0022316316608339
-0.0019978701602667
-0.0017890119925141
-0.0015928113134577
-0.0013967466074973
-0.0011915166396647
-0.0009710926096886
-0.0007307498017325
-0.0004664574516937
-0.000176087138243
0.0001404075883328
0.0004828975652344
0.0008511802298016
0.0012407209724187
0.0016392134130001
0.0020282762125134
0.0023877243511378
0.0026996254455298
0.0029510960448533
0.0031361293513327
0.0032575575169175
0.0033275398891419
0.0033645520452409
0.0033885282464325
0.0034162227530032
0.0034566740505397
0.0035097680520266
0.003571496810764
0.0036395639181137
0.003711758647114
0.0037815200630575
0.0038378224708139
0.0038692727684974
0.0038686266634613
0.003835508134216
0.0037768750917166
0.0037037895526736
0.0036242632195353
0.0035361945629119
0.0034238607622683
0.0032577379606664
0.0029983539134263
0.0026063071563839
0.0020554650109261
0.0013411371037364
0.0004795419517904
-0.0004963665269315
-0.001539995195344
-0.0025948698166757
-0.0036008437164127
-0.0045005930587649
-0.0052449963986873
-0.005798758007586
-0.0061454763635993
-0.0062883053906261
-0.0062461490742862
-0.0060490239411592
-0.005733978934586
-0.0053407927043735
-0.0049072285182774
-0.0044658500701189
-0.0040436028502881
-0.0036617624573409
-0.0033349911682307
-0.0030700792558491
-0.0028640823438763
-0.0027038655243813
-0.0025698076933622
-0.0024411589838564
-0.0022990144789218
-0.0021273938473314
-0.0019146759295836
-0.0016551599837839
-0.0013493634760379
-0.001002854318358
-0.0006244885735213
-0.0002253160346299
0.0001815523719415
0.0005810469156131
0.0009572578128427
0.0012962645851075
0.0015895911492407
0.0018358468078076
0.0020390909630805
0.0022055762819945
0.0023420646321028
0.002455175621435
0.002550087403506
0.0026299129240214
0.0026965830475091
0.0027533129323273
0.002807792276144
0.0028709087055176
0.0029497719369828
0.0030434695072472
0.0031459175515919
0.0032504466362297
0.0033517756965011
0.0034448560327291
0.00352109153755
0.0035647293552756
0.0035517502110451
0.0034510667901486
0.0032290734816342
0.0028580096550285
0.0023240954615175
0.0016319848364219
0.0008067555027082
-0.0001068100100383
-0.0010515705216675
-0.0019695849623531
-0.0028094013687223
-0.0035283097531646
-0.0040939659811556
-0.0044863340444862
-0.0046989182010293
-0.0047379471361637
-0.0046205595135688
-0.0043731401674449
-0.0040283417329192
-0.0036210608668625
-0.0031858817674219
-0.0027558493893593
-0.0023586913011968
-0.0020118388347327
-0.0017228132346644
-0.001493529882282
-0.0013215376529842
-0.0011978482361882
-0.0011066653532907
-0.0010286676697432
-0.0009449330973438
-0.0008398643694818
-0.00070254819002
-0.0005266988300718
-0.0003107624361291
-5.777552723884583e-05
0.0002263666247017
0.000535435101483
0.0008645397028885
0.0012090606614947
0.0015607681125402
0.0019054042641073
0.0022246921434998
0.0025009056553244
0.0027218342293053
0.0028843483887612
0.0029944186098873
0.0030637732706964
0.0031055249273777
0.0031305330339819
0.0031457606237381
0.0031551728025078
0.0031610359437763
0.0031644394621253
0.0031668692827224
0.0031713226344436
0.0031800782307982
0.0031918976455926
0.0032029270660132
0.0032095208298414
0.0032074067275971
0.0031881690956652
0.003137070685625
0.0030305706895887
0.0028354602400213
0.0025153290480375
0.0020412213634699
0.0013990775914862
0.0005927557358518
-0.0003542189951986
-0.0013973169261589
-0.0024739804212003
-0.0035145715810358
-0.0044569871388375
-0.0052552744746208
-0.0058788773603737
-0.0063086622394621
-0.0065363021567463
-0.0065662004053592
-0.0064161019399762
-0.0061160461045801
-0.0057057151570916
-0.0052294321358203
-0.0047306530177593
-0.0042482162825763
-0.0038126050494611
-0.0034399540163576
-0.0031295767985284
-0.0028705727308988
-0.0026506453286856
-0.0024590790271759
-0.0022845165804028
-0.0021126705687493
-0.0019280451815575
-0.0017176652327179
-0.0014727714005857
-0.0011892189504578
-0.0008679594611749
-0.0005145191680639
-0.0001371959224343
0.0002548455959185
0.0006532890256494
0.0010525900870561
0.0014493933413177
0.0018376464722678
0.0022050067782402
0.0025360302533954
0.0028186903800815
0.0030476776883006
0.0032242557499557
0.0033552907407283
0.0034511857666075
0.0035235290415585
0.0035840184427797
0.0036424794234335
0.0037036356516182
0.0037672179751098
0.0038327393122017
0.003903571749106
0.0039849216118454
0.0040783947333693
0.0041803582571446
0.0042848503217101
0.0043857581913471
0.0044746329076588
0.0045357923954725
0.0045434888452291
0.004463808145374
0.0042596738785505
0.0038966168649494
0.0033494906965643
0.002609736751765
0.0016905914526432
0.0006289242301136
-0.0005168248899281
-0.0016749446513131
-0.0027745724655687
-0.0037579864729195
-0.0045840060338377
-0.0052254451438784
-0.005668006837368
-0.0059115476906299
-0.0059700924903154
-0.0058687538839876
-0.0056385230273008
-0.005312715191394
-0.0049262084066867
-0.0045134336687624
-0.0041039129719138
-0.0037183098029345
-0.0033661799971014
-0.0030461002606898
-0.0027504027821123
-0.0024723822716623
-0.002209628932178
-0.0019618126098066
-0.0017270708922296
-0.0015008337795734
-0.0012768132146447
-0.0010480465134605
-0.0008076929952949
-0.0005502236308529
-0.0002727817045524
2.43261456489563e-05
0.0003385179443284
0.000666789303068
0.0010076471371576
0.0013604826526716
0.0017211595550179
0.0020786710083484
0.0024175136350095
0.0027234824374318
0.0029880311340093
0.003209235612303
0.0033896430395543
0.0035324664786458
0.0036395695060491
0.0037127309478819
0.0037554088048636
0.0037729411851614
0.0037716128863394
0.0037587957922369
0.0037450329400599
0.0037428205832839
0.0037601382937282
0.0037966326344758
0.0038459899369627
0.0039000967517495
0.0039517721161246
0.003993728198111
0.0040140035562217
0.0039919824339449
0.0038970804307609
0.0036913489457219
0.0033379714004695
0.0028119585476815
0.0021064663305878
0.0012345527065917
0.0002297500614076
-0.000855628575664
-0.0019581709057092
-0.0030146229546517
-0.0039694402366876
-0.0047771204262971
-0.0054035647772252
-0.0058282860554754
-0.0060462295077741
-0.0060674757696688
-0.0059136399067938
-0.0056146634742617
-0.0052094007842242
-0.0047441227361559
-0.0042649237439036
-0.0038095032796263
-0.0034024505876004
-0.0030551643576472
-0.002770381513983
-0.0025468859821558
-0.0023802970536053
-0.0022604586556553
-0.0021704114042222
-0.0020898315124213
-0.0019980501383543
-0.001874801586382
-0.0017028333386406
-0.0014722611522302
-0.0011833368334919
-0.0008460734970867
-0.0004769935621879
-9.405537275597452e-05
0.0002884482091758
0.0006610516575165
0.001015605055727
0.0013432194245979
0.0016365707851946
0.0018925569020211
0.0021123043261468
0.0022989162243902
0.0024555292911827
0.0025858636945486
0.002695070579648
0.0027886070311069
0.0028709245380014
0.0029452508315443
0.0030136699788272
0.0030777051579207
0.0031410206574946
0.0032114177010953
0.0032968777231872
0.0033999239094555
0.0035160477273166
0.0036328432615846
0.0037279054522514
0.0037684028502553
0.0037140971980988
0.0035228724591434
0.0031574731692671
0.0025932323187589
0.0018252670997753
0.0008731621783226
-0.0002192589454352
-0.0013902697246521
-0.0025685704313218
-0.0036808578297495
-0.0046605220995843
-0.0054563181474804
-0.0060373926535248
-0.0063933352939784
-0.0065305698662996
-0.0064683933742344
-0.0062366030178964
-0.0058734780177474
-0.0054226662032306
-0.0049286847934126
-0.0044319117441773
-0.0039645293727517
-0.0035478756763041
-0.0031910152174532
-0.0028901509940624
-0.00263058161363
-0.0023935865610837
-0.0021638835314661
-0.0019317143596708
-0.0016911999555304
-0.0014388166600838
-0.0011724306968972
-0.0008897115476429
-0.0005866477731615
-0.0002589394571259
9.478454012423754e-05
0.0004716438706964
0.0008653711993247
0.0012682393426075
0.001673694467172
0.0020782372448593
0.0024795187637209
0.0028713173232972
0.0032418244518339
0.0035766400396823
0.00386225245893
0.0040892786346375
0.0042543965391814
0.0043600802309811
0.0044150450266897
0.0044341031461954
0.004434126894921
0.0044291857630014
0.0044280746951699
0.0044328989461064
0.0044395397417247
0.004442754201591
0.0044421018101274
0.0044415448792278
0.0044437609612941
0.0044470974244177
0.0044478150084614
0.0044426466338336
0.0044279335997998
0.0043956055305898
0.004328821785748
0.0042002890259027
0.0039737047627568
0.0036090123467147
0.0030708112753927
0.0023365733213722
0.0014040363021194
0.0002973411465063
-0.0009327642619609
-0.0022172739263623
-0.0034803436137735
-0.0046482803300023
-0.0056569832377135
-0.0064574796706438
-0.0070185516960918
-0.0073288260027766
-0.0073979413136839
-0.0072549199685454
-0.0069442396052181
-0.006519351620227
-0.0060341851785779
-0.005536017473787
-0.0050605339929461
-0.0046283151023089
-0.0042456416413187
-0.0039096735417842
-0.0036140726879239
-0.0033532057423144
-0.0031224554404616
-0.0029143225401639
-0.0027157498989254
-0.0025102533400058
-0.0022825088817626
-0.0020212451927363
-0.0017197004053741
-0.0013755927793681
-0.0009913390967994
-0.0005743416259065
-0.0001359664602205
0.0003119606990367
0.0007601845427416
0.0012013593222945
0.0016272705979645
0.0020277493167668
0.0023925113491714
0.0027132276445627
0.0029841815121471
0.0032030236907303
0.0033718489576131
0.0034978692419826
0.0035925284028053
0.003667970187962
0.0037337427493184
0.0037962095811963
0.0038592878263443
0.0039257500320672
0.0039979219436645
0.0040754787623882
0.004152497742325
0.0042183650657534
0.0042623397894203
0.0042782491073012
0.004266383126378
0.0042321220971643
0.00418371707201
0.0041304947808384
0.0040802797302603
0.0040353941731154
0.0039876345545053
0.003914242144674
0.0037786914035677
0.0035376804880797
0.0031505497172474
0.0025864434428513
0.0018294411711394
0.0008838837966322
-0.0002221183385699
-0.0014373394660651
-0.0026918582152575
-0.0039059072732925
-0.0050016697496175
-0.0059131234884262
-0.0065926471725106
-0.0070152757689356
-0.0071793310344219
-0.0071031041443347
-0.0068197371438145
-0.0063728131353855
-0.0058134645223617
-0.0051978481933474
-0.0045834686607122
-0.0040233889594674
-0.0035586957819759
-0.003212422132492
-0.0029883305542171
-0.0028731771744787
-0.0028401184827089
-0.0028536384925246
-0.0028749778866767
-0.0028675969224423
-0.0028028178494423
-0.0026624659076333
-0.0024375191424041
-0.0021260136272758
-0.0017330910777673
-0.0012732078321278
-0.0007709313649684
-0.0002574807731434
0.0002357567718718
0.00068308156915
0.0010676828678697
0.0013833036646246
0.0016338296700268
0.0018304500263184
0.0019889478571712
0.0021269721910357
0.002260205335915
0.0023987831082195
0.0025459579192101
0.0027009304612874
0.0028627254068851
0.0030289911665022
0.0031925165094435
0.0033428114838898
0.0034708557650446
0.003570610191673
0.0036383019760251
0.0036732614971697
0.0036793719045817
0.0036654798313975
0.0036440063267946
0.0036271754652261
0.0036226143129169
0.0036296378821134
0.0036356328055262
0.0036137741990387
0.0035241015721112
0.0033186445944011
0.0029509952291846
0.0023885346017777
0.0016228285385295
0.0006747719598934
-0.0004066819092258
-0.0015518749132752
-0.0026814322918653
-0.0037173829041421
-0.0045926696620881
-0.0052590398117899
-0.0056923003867268
-0.0058925892226397
-0.0058788191527128
-0.0056802472099661
-0.0053311428055167
-0.0048715411685407
-0.0043485392816364
-0.0038113868795335
-0.0033036386594176
-0.0028591121081262
-0.002500423695892
-0.0022364524193108
-0.0020612101070582
-0.0019568749703466
-0.0018978927982971
-0.00185473554302
-0.0017990582855418
-0.0017081492114812
-0.0015663905069231
-0.0013640613760799
-0.0010955459438264
-0.0007607740117236
-0.0003688081051222
6.143352948129177e-05
0.0005040423711761
0.0009310298482887
0.0013192235492169
0.0016564634861424
0.0019417101284489
0.0021800140384584
0.0023789196275174
0.0025473698042333
0.0026942954864352
0.0028274087235331
0.0029528990853577
0.0030761826783418
0.0032029647845774
0.003337001428008
0.0034758963156491
0.0036107306368649
0.0037301785778254
0.0038253201637417
0.0038915628101676
0.0039273644797503
0.0039317584596574
0.0039026364684104
0.0038389989640563
0.0037466357462108
0.0036398754455149
0.0035364914219826
0.0034511410631239
0.0033910397905856
0.0033523892052471
0.0033149684313684
0.0032380591146647
0.0030655213631689
0.0027399233076721
0.002217830857262
0.0014809272252023
0.000541030196473
-0.0005618642317131
-0.001766086788848
-0.0029958160594105
-0.0041705099865794
-0.0052165109664201
-0.0060762735083699
-0.006711889989674
-0.0071039772592484
-0.0072509399615228
-0.0071712802164256
-0.0069034993648529
-0.0064992811530828
-0.0060135596431791
-0.0054965992458164
-0.0049899984151124
-0.0045257396996021
-0.0041260095313191
-0.0038018049672245
-0.00355114787817
-0.0033597275614738
-0.0032042327802628
-0.0030566467903554
-0.0028886389918625
-0.002675840863958
-0.0024021435528993
-0.0020634811371564
-0.001668895361945
-0.0012366489972919
