bvp
-0.0072330012917518
-0.0075158597901463
-0.0075725186616182
-0.0074244178831577
-0.0071040345355868
-0.0066563421860337
-0.0061343233101069
-0.0055899443104863
-0.0050659594126045
-0.0045917886309325
-0.0041830465197563
-0.0038423852529376
-0.0035606785677373
-0.0033199999015778
-0.0030985521152615
-0.0028744300361722
-0.0026276921853423
-0.0023424793034791
-0.0020076155196875
-0.0016163785476237
-0.0011695182183757
-0.0006789977196604
-0.0001661904389038
0.0003446518676355
0.00083263812121
0.00128391594626
0.001692580524832
0.0020598694682121
0.0023929816670715
0.002702523721382
0.0029984985012561
0.0032877207268029
0.0035735992714762
0.0038565869908779
0.0041347187943756
0.0044046458788216
0.0046619148924946
0.0048992312513291
0.0051050642505288
0.0052669811993837
0.0053787594661116
0.0054434295743703
0.0054693967103958
0.0054664807394146
0.005445365794003
0.0054160528816282
0.0053843921050429
0.0053512221202254
0.0053133880719542
0.0052619632333517
0.0051800040528178
0.0050432011485099
0.0048200068995356
0.0044710459187626
0.003954064566642
0.0032359368633478
0.0023054187186062
0.0011798872146755
-9.547651279717684e-05
-0.0014539187541231
-0.002817393746227
-0.0041086697019636
-0.0052601448260247
-0.0062171295285224
-0.0069398945197463
-0.0074077015742659
-0.0076207676902413
-0.0075980694964528
-0.0073749083094298
-0.0070001240819692
-0.0065295747481286
-0.0060171689838171
-0.0055074160918593
-0.0050316150300204
-0.0046076592989265
-0.0042419014498591
-0.0039309784770011
-0.0036634451244026
-0.0034221480600535
-0.0031873467378318
-0.0029402766376733
-0.002665361855179
-0.0023499797098338
-0.0019852188415825
-0.0015696120681241
-0.0011109538609161
-0.0006232896121218
-0.0001231636852025
0.0003728105220943
0.0008501051925122
0.0012974576093256
0.0017073466442525
0.0020778609905391
0.0024136898573487
0.0027219678740948
0.0030071607325226
0.0032709296792745
0.0035150358453392
0.0037434978876262
0.0039617447182536
0.0041720001026988
0.0043688328005373
0.0045405095443129
0.0046757292002439
0.0047694309614598
0.0048235869035124
0.004845168441534
0.0048445248976349
0.0048333769664168
0.0048214513808488
0.0048143388703465
0.0048137065023183
0.0048176916316151
0.0048215384595096
0.0048200702294707
0.0048093390651047
0.0047835446894168
0.0047294772230088
0.0046243155375123
0.0044377609156072
0.0041357302106916
0.0036846795119345
0.0030573930125683
0.0022402079775929
0.0012393959332257
8.358806371688843e-05
-0.001178614445962
-0.0024837364908307
-0.0037595857866108
-0.0049329856410622
-0.0059380419552326
-0.0067241927608847
-0.0072647267952561
-0.0075607858598232
-0.0076357396319508
-0.0075250994414091
-0.0072697140276432
-0.006913321558386
-0.0065009891986846
-0.0060751009732484
-0.0056702774018049
-0.0053105494007468
-0.005008100066334
-0.0047630020417273
-0.0045649865642189
-0.0043960735201835
-0.0042322613298892
-0.0040459763258695
-0.0038128844462335
-0.0035200181882828
-0.0031679118983447
-0.0027665439993143
-0.0023298526648432
-0.0018719821237027
-0.0014062640257179
-0.0009449917124584
-0.0004977312055416
-6.975838914513588e-05
0.0003368762263562
0.0007211231277324
0.0010819752933457
0.0014187106862664
0.0017323903739452
0.0020272517576813
0.0023083952255547
0.0025769595522433
0.0028283183928579
0.0030545166227966
0.0032480875961482
0.0034050589893013
0.0035252477973699
0.0036102999001741
0.0036634393036365
0.0036911419592797
0.0037029488012194
0.0037096715532243
0.0037225179839879
0.0037525105290114
0.0038083554245531
0.0038923358079046
0.0039944257587194
0.0040868101641535
0.0041234507225453
0.0040461225435137
0.0037958123721182
0.00332817947492
0.0026267576031386
0.0017066693399101
0.0006097352597862
-0.0006026639021001
-0.0018563198391348
-0.0030724678654223
-0.0041774250566959
-0.0051098251715302
-0.005822641775012
-0.006284249946475
-0.0064845751039683
-0.0064403726719319
-0.0061903125606477
-0.0057834042236208
-0.0052702743560075
-0.0046998169273138
-0.004116702824831
-0.0035574836656451
-0.0030477626714855
-0.0026012335438281
-0.0022203980479389
-0.001899120863527
-0.0016252677887678
-0.0013824839843437
-0.001151546719484
-0.0009123156778514
-0.000648052082397
-0.000350056332536
-1.794134732335806e-05
0.0003437736304476
0.0007279135752469
0.0011247757356613
0.001523362705484
0.0019137501949444
0.0022875682916492
0.0026373541913926
0.0029573370702564
0.0032445231918245
0.003497508354485
0.0037151658907532
0.0039001763798296
0.0040639312937855
0.0042240899056196
0.0043971044942736
0.0045933621004223
0.0048149116337299
0.0050546955317258
0.0052980235777795
0.0055254334583878
0.0057176118716597
0.0058619868941605
0.0059568835422396
0.0060112583450973
0.0060418369248509
0.0060691894032061
0.0061129014939069
0.0061866170726716
0.006293976213783
0.0064258598722517
0.0065600755624473
0.0066638928838074
0.0066987369209527
0.0066270059905946
0.0064192898571491
0.0060586649924516
0.0055417707189917
0.0048789861612021
0.004094033036381
0.0032219951972365
0.0023057414218783
0.0013905786909162
0.000517884735018
-0.000280566047877
-0.0009887772612273
-0.0016118683852255
-0.00217389408499
-0.0027090418152511
-0.0032533723860979
-0.0038376906886696
-0.0044814366847276
-0.0051915869116783
-0.00596554717049
-0.0067928805947303
-0.0076552336104214
-0.0085276579484343
-0.0093817738816142
-0.0101880691945552
-0.0109166605398058
-0.0115378955379128
-0.012024387717247
-0.0123570077121257
-0.0125322742387652
-0.0125636272132396
-0.0124759171158075
-0.0122977420687675
-0.0120540652424097
-0.0117614530026912
-0.0114270113408565
-0.0110493525862693
-0.0106211807578802
-0.0101337656378746
-0.0095818266272544
-0.0089668277651071
-0.008296588435769
-0.0075813550502061
-0.0068310890346765
-0.0060571189969778
-0.0052746264263987
-0.00450184289366
-0.0037566283717751
-0.0030527701601386
-0.0023976385127753
-0.0017920823302119
-0.0012311453465372
-0.0007046244572848
-0.0001995076891034
0.0002962418366223
0.000792495207861
0.0012983169872313
0.0018224408850073
0.0023721777833998
0.002950623165816
0.0035508382134139
0.0041502933017909
0.0047103865072131
0.0051802168600261
0.0055028516799211
0.0056247478350996
0.0055069713853299
0.0051341513171792
0.0045180628076195
0.0036953897215425
0.0027222344651818
0.0016684774309396
0.0006114356219768
-0.0003717923536896
-0.0012109689414501
-0.0018487130291759
-0.0022475197911262
-0.0023947958834469
-0.0023024436086416
-0.0020017004571855
-0.0015353332273662
-0.0009504035115242
-0.0002943435683846
0.0003875652328133
0.0010554352775216
0.0016781655140221
0.0022359360009431
0.0027207816019654
0.0031353109516203
0.0034909923560917
0.0038073398172855
0.0041095563210546
0.004421045538038
0.0047555970959365
0.0051164128817617
0.0055003594607114
0.005902174860239
0.0063166785985231
0.0067393267527222
0.007165452465415
0.0075886035338044
0.0079991808161139
0.008384664542973
0.008732165209949
0.0090322606265544
0.009281413629651
0.0094824684783816
0.0096432724967598
0.0097720138728618
0.0098724383860826
0.0099440198391675
0.0099859219044446
0.0099997231736779
0.0099882427603006
0.0099524781107902
0.0098897367715835
0.0097921267151832
0.0096438620239496
0.0094189792871475
0.0090823313221335
0.0085960207507014
0.0079304678365588
0.0070756468921899
0.0060457596555352
0.0048737535253167
0.0036023929715156
0.0022804434411227
0.0009618890471756
-0.0002969541819766
-0.0014418403152376
-0.0024252270814031
-0.003211420495063
-0.0037812811788171
-0.0041345432400703
-0.0042883339338004
-0.0042730644345283
-0.0041283359751105
-0.0038982836995273
-0.0036256993189454
-0.0033489577472209
-0.0031024101190268
-0.0029147232417017
-0.0028046453371644
-0.0027784791309386
-0.0028298182878643
-0.0029402165673673
-0.0030822134576737
-0.0032254711259156
-0.0033422727137804
-0.0034105414524674
-0.0034163128584623
-0.0033547196071594
-0.0032282334286719
-0.0030440324917435
-0.002811404177919
-0.0025401748716831
-0.0022423663176596
-0.001934383297339
-0.0016343302559107
-0.0013557460624724
-0.0011040903627872
-0.0008782229851931
-0.000674303388223
-0.0004894225858151
-0.0003237556666135
-0.0001824782229959
-7.927371188998222e-05
-3.931205719709397e-05
-9.720586240291595e-05
-0.000289246905595
-0.0006436519324779
-0.0011735740117728
-0.0018748175352811
-0.0027254021260887
-0.0036853945348411
-0.0046993941068649
-0.0057025565765798
-0.0066281487233936
-0.0074150064028799
-0.0080141192302107
-0.0083932299166917
-0.0085399188101291
-0.008462781086564
-0.0081883091479539
-0.0077554858289659
-0.0072110430337488
-0.0066035687923431
-0.0059774592518806
-0.0053710220381617
-0.0048164096660912
-0.0043372935615479
-0.0039466717280447
-0.0036462373100221
-0.0034252197947353
-0.0032605458982288
-0.0031215599738061
-0.0029771644622087
-0.0028011952526867
-0.0025748084299266
-0.0022871552500873
-0.0019354376709088
-0.0015238134656101
-0.001060823444277
-0.0005572962108999
-2.6598572731018063e-05
0.000514380808454
0.0010458913166075
0.0015484052710235
0.0020073261111974
0.0024156686849892
0.0027728183194994
0.0030809380114078
0.0033392561599612
0.0035374637227505
0.0036522913724184
0.0036488599143922
0.0034858123399317
0.003124609356746
0.0025420964229851
0.0017395261675119
0.0007422043127007
-0.0004050759016536
-0.0016396241262555
-0.0028838510625064
-0.004055474884808
-0.0050795851275324
-0.0058967554941773
-0.0064686145633459
-0.0067804707214236
-0.006838590838015
-0.0066642463207244
-0.0062887016683816
-0.0057509765028953
-0.0050962418317794
-0.0043723378330469
-0.0036254066508263
-0.0028965375386178
-0.0022197922226041
-0.0016204055864363
-0.001112530240789
-0.0006971219554543
-0.0003612437285482
-8.104275912046432e-05
0.0001723896712064
0.0004280502907931
0.0007118736393749
0.0010444524232298
0.0014399120118469
0.0019056489691138
0.0024419827386736
0.0030424180440604
0.0036947249900549
0.0043806592002511
0.0050751506350934
0.0057486603036522
0.0063728396780788
0.0069265915080904
0.0073991497047245
0.0077888830564916
0.0081007126718759
0.0083447378128767
0.0085344091057777
0.0086825136095285
0.008797931484878
0.0088862292468547
0.0089523587375879
0.009002573788166
0.0090435473248362
0.0090779447928071
0.0091007370501756
0.0091015696525573
0.0090709719806909
0.0090039912611246
0.0088995248079299
0.0087582403793931
0.0085811428725719
0.008368769660592
0.0081207640469074
0.0078373188152909
0.0075230877846479
0.007188884075731
0.006848432123661
0.0065140896476805
0.0061921514570713
0.0058748237788677
0.0055322330445051
0.0051110782660543
0.0045412783510982
0.0037474962882697
0.0026631010696291
0.0012451666407287
-0.0005137412808835
-0.0025808128993958
-0.0048838746733963
-0.0073172086849808
-0.0097544267773628
-0.0120657663792371
-0.0141331776976585
-0.0158603619784116
-0.017179200425744
-0.0180552080273628
-0.018491506576538
-0.018525768071413
-0.0182190220803022
-0.0176432374864816
-0.0168721582740545
-0.0159756354987621
-0.0150169432163238
-0.0140497237443923
-0.013112835586071
-0.0122275464236736
-0.0113999294117093
-0.0106255626305937
-0.0098924469202756
-0.009180380962789
-0.0084612295031547
-0.007706363685429
-0.0068966834805905
-0.006026436574757
-0.0051013305783271
-0.0041345660574734
-0.0031424884218722
-0.0021412624046206
-0.0011445712298154
-0.0001623672433197
0.0007991571910679
0.0017366830725222
0.0026471642777323
0.0035252554807811
0.0043652197346091
0.0051656221039593
0.0059301839210093
0.00666362978518
0.0073671215213835
0.0080367727205157
0.0086652934551239
0.0092444410547614
0.0097668701782822
0.0102276690304279
0.0106243528425693
0.0109553597867488
0.011220121756196
0.0114212147891521
0.0115653108805418
0.0116614224389195
0.0117193963378667
0.0117507018148899
0.0117674367502331
0.0117770079523324
0.0117783425375819
0.0117639852687716
0.0117243165150284
0.0116496793925762
0.0115313939750194
0.0113632660359144
0.0111419418826699
0.0108658988028764
0.010533726774156
0.0101393405348062
0.009665080346167
0.0090778293088078
0.0083305928856134
0.0073701776564121
0.0061499597504734
0.0046430798247456
0.0028526636306196
0.000817930791527
-0.0013867518864572
-0.0036612749099731
-0.0058943443000316
-0.007978000678122
-0.0098185939714312
-0.011344751343131
-0.0125139420852065
-0.0133152082562446
-0.0137652438133955
-0.0139002799987792
-0.0137678887695074
-0.013420864008367
-0.0129139274358749
-0.0123026054352521
-0.0116426749154925
-0.010987757705152
-0.010383017361164
-0.0098568871617317
-0.0094161201268434
-0.0090472158044576
-0.008722853846848
-0.0084093250334262
-0.0080718155950307
-0.0076785609126091
-0.0072051021270453
-0.0066368165425956
-0.0059688729234039
-0.0052042305469512
-0.0043517109006643
-0.0034271830227226
-0.0024560478050261
-0.0014711774419993
-0.0005056246300227
0.0004135690978728
0.0012662826338782
0.0020384578965604
0.002723146462813
0.0033210543915629
0.0038385735824704
0.0042855665087699
0.0046751461923122
0.0050239930860698
0.0053501147776842
0.005668977741152
0.0059905834496021
0.0063177957199513
0.006646070163697
0.0069647757336497
0.0072605614550411
0.0075217336416244
0.0077395583502948
0.0079071773216128
0.0080212503671646
0.008084662258625
0.0081052808091044
0.0080914162099361
0.0080480696633458
0.0079768635332584
0.007878765463829
0.0077567528933286
0.0076156817376613
0.0074565270915627
0.007266947068274
0.0070152385160326
0.0066518271341919
0.0061171799898147
0.0053529283031821
0.0043135909363627
0.0029782825149595
0.0013604024425148
-0.0004891357384622
-0.0024863744620233
-0.0045245708897709
-0.0064887623302638
-0.0082711707800626
-0.0097828619182109
-0.0109617039561271
-0.0117778545245528
-0.0122341345995664
-0.0123601909726858
-0.0122044198215007
-0.0118276271969079
-0.0112973432987928
-0.0106797274202108
-0.0100317001342773
-0.0093972021713852
-0.0088058961555361
-0.0082740746438503
-0.0078082284890115
-0.0074069891124963
-0.0070596346631646
-0.0067444518208503
-0.0064311092719435
-0.0060891308821737
-0.0056973258033394
-0.0052462997846305
-0.0047349259257316
-0.0041669816710054
-0.0035495639313012
-0.00289176707156
-0.0022034526336938
-0.0014944090507924
-0.0007740422151982
-5.175475962460041e-05
0.0006625367095693
0.001359014539048
0.002030509058386
0.0026752185076475
0.0032957547809928
0.0038940282538533
0.004467049613595
0.0050070052966475
0.0055034374818205
0.0059452783316373
0.0063230972737073
0.00663239415735
0.0068763182498514
0.0070644579827785
0.0072085009887814
0.007319102063775
0.0074048023670911
0.007471814751625
0.007524887099862
0.0075678760185837
0.0076034613884985
0.0076333107426762
0.0076571647077798
0.0076706507243216
0.00766471773386
0.0076272441074252
0.0075458055362105
0.0074089509434998
0.0072032208554446
0.0069091813638806
0.0065011172555387
0.0059490632265806
0.0052213678136467
0.0042906496673822
0.0031435028649866
0.0017887474969029
0.0002603852190077
-0.0013849243987351
-0.0030745905824005
-0.0047285803593695
-0.0062671219930052
-0.0076175425201654
-0.0087222568690776
-0.0095464885234832
-0.0100798346102237
-0.0103315506130456
-0.0103268008679151
-0.0101046040654182
-0.0097132278606295
-0.0092043513432145
-0.0086272694170475
-0.0080229761078953
-0.0074221421964466
-0.0068484200164675
-0.0063210264779627
-0.0058525819331407
-0.0054456545040011
-0.0050916518084704
-0.0047728097997605
-0.0044666538015007
-0.0041500623337924
-0.0038018177729099
-0.0034055465366691
-0.0029525703284889
-0.0024423995055258
-0.0018806839361786
-0.0012761800317093
-0.0006379194674082
2.584455069154501e-05
0.0007049439591355
0.001384146278724
0.0020451268646866
0.0026710308156907
0.0032485658302903
0.0037684026174247
0.0042252745479345
0.0046175112947821
0.0049465396441519
0.0052170436829328
0.0054371836595237
0.0056171864271163
0.0057667284272611
0.0058935452252626
0.0060039772652089
0.0061043011955916
0.0062006153166294
0.0062963496893644
0.0063903764821588
0.0064779887907207
0.006553083192557
0.0066092628985643
0.0066397273913025
0.0066378028132021
0.0065986104309558
0.0065191248431801
0.0063955364748835
0.0062210331670939
0.0059848767705261
0.0056707300245761
0.0052564712241292
0.0047178207896649
0.0040320288389921
0.0031801951117813
0.002152377506718
0.0009557618759572
-0.0003798590041697
-0.0018035853281617
-0.0032506952993571
-0.0046523991040885
-0.0059440908953547
-0.0070694047026336
-0.0079828966408967
-0.0086544249206781
-0.0090728849172592
-0.0092454925179481
-0.0091927498579025
-0.0089441463351249
-0.0085383020341396
-0.0080233365297317
-0.0074520418420434
-0.0068738516420125
-0.0063283881172537
-0.0058423429727554
-0.0054291528649628
-0.005090067628771
-0.0048156175762414
-0.0045876214280724
-0.0043819299899041
-0.0041720597073435
-0.0039337826892733
-0.0036488794721663
-0.0033049909397959
-0.0028938453178852
-0.0024138782173395
-0.0018743943655863
-0.0012939078733325
-0.0006943654734641
-9.63567872531712e-05
0.0004839879111386
0.0010362103348597
0.0015547352377325
0.0020373915322124
0.0024839765392243
0.0028950476553291
0.0032711895182728
0.0036133714020252
0.0039238007739186
0.0042055207304656
0.0044616856612265
0.0046952073462307
0.0049073966220021
0.0050965147092938
0.0052577699534595
0.0053848843090236
0.0054723429493606
0.0055171996355056
0.00552065577358
0.0054890662431716
0.0054332329891622
0.00536550860852
0.0052943271584808
0.0052186571992933
0.0051272828131914
0.0050030415877699
0.0048268451355397
0.0045780194923281
0.0042332857847213
0.0037683974951505
0.0031627451535314
0.0024047584738582
0.0014965555164963
0.0004571466706693
-0.0006762174889445
-0.0018500736914575
-0.0030018789693713
-0.004069454036653
-0.0049977097660303
-0.0057427156716585
-0.0062754191458225
-0.0065840114839375
-0.0066742575727403
-0.0065696677193045
-0.0063101490959525
-0.0059455716982483
-0.0055270078592002
-0.0051001096144318
-0.0047006453387439
-0.0043524228967726
-0.0040675099007785
-0.0038466174155473
-0.0036791474558413
-0.0035452370066195
-0.0034206870477646
-0.0032820398919284
-0.0031095275189727
-0.0028884480707347
-0.0026104650460183
-0.0022745912428945
-0.0018860943382605
-0.001453929580748
-0.0009892180096358
-0.0005047612939961
-1.396972220391035e-05
0.0004702854785136
0.0009358365205116
0.0013718716800212
0.0017702903132885
0.0021253856830298
0.0024331007152795
0.002693094080314
0.0029119444079697
0.0031025307253003
0.0032786394003778
0.0034494623541831
0.0036174252163618
0.0037793740630149
0.0039304140955209
0.0040669781155884
0.0041853412985801
0.0042786500416696
0.0043372856453061
0.0043508457019925
0.0043085287325084
0.0041976054199039
0.0040018511936068
0.0037028754595667
0.0032847255934029
0.0027400362305343
0.0020742497872561
0.001304117264226
0.0004532188177108
-0.0004496258334256
-0.0013689557090401
-0.0022629145532846
-0.0030877753160893
-0.0038038976490497
-0.0043796570971608
-0.0047936821356415
-0.0050365114584565
-0.0051112407818436
-0.0050326357595622
-0.0048251049593091
-0.0045196614228188
-0.0041495473124086
-0.0037462259642779
-0.0033388324081897
-0.0029552939813584
-0.0026194369420409
-0.0023448301944881
-0.0021320276428014
-0.0019712899811565
-0.001846517319791
-0.0017370274290442
-0.0016195088392123
-0.0014728327514603
-0.0012825705343857
-0.0010417064186185
-0.0007494187448173
-0.0004097446799278
-2.853479236364365e-05
0.0003892591921612
0.0008376049809157
0.0013058313634246
0.0017786812968552
0.0022389208897948
0.0026700815651565
0.0030590398237109
0.0033983753528445
0.0036875931546092
0.0039320066571235
0.0041395565494894
0.0043177613988518
0.0044722924940288
0.0046060043387115
0.0047186445444822
0.0048093516379594
0.0048792902380228
0.0049295611679553
0.0049564386717975
0.0049504581838846
0.0048991502262651
0.0047879009507596
0.0045988643541932
0.0043117059394717
0.0039064306765794
0.0033657767344266
0.0026777975726872
0.0018415511585772
0.0008735752198845
-0.000190037448192
-0.0012967181392014
-0.0023833848536014
-0.0033843670971691
-0.0042423880659043
-0.0049193673767149
-0.0053997309878468
-0.0056865504011511
-0.0057964599691331
-0.0057546272873878
-0.0055897124111652
-0.0053313458338379
-0.005009286571294
-0.004651409573853
-0.0042823487892746
-0.0039236699230968
-0.0035922154784202
-0.0032962001860141
-0.0030322917737066
-0.0027876421809196
-0.0025475483853369
-0.0023020717781037
-0.0020468886941671
-0.0017812505830079
-0.0015058655990287
-0.0012216448085382
-0.000929233036004
-0.0006282590329647
-0.0003161330241709
1.2542004697024822e-05
0.0003636224428191
0.0007389587117359
0.0011343759251758
0.0015410552732646
0.0019487384706735
0.0023489100858569
0.0027343982364982
0.0030971022788435
0.0034287611488252
0.0037228083238005
0.0039748661220073
0.0041832965798676
0.0043501583859324
0.0044820746406912
0.0045885420404374
0.0046767005696892
0.0047482596710324
0.0048023425042629
0.0048395148478448
0.0048618158325552
0.0048710186965763
0.004868559539318
0.0048541971482336
0.0048217768780887
0.0047564767301082
0.0046354276128113
0.0044291811063885
0.0041040242649614
0.0036285854876041
0.0029840182978659
0.002170720603317
0.0012080906890332
0.0001312477979809
-0.0010122699895873
-0.0021665608510375
-0.0032723059412091
-0.0042714462615549
-0.0051124268211424
-0.0057583046145737
-0.0061943372711539
-0.0064282668754458
-0.0064836246892809
-0.0063913967460393
-0.0061845248565077
-0.0058965911157429
-0.0055611925199627
-0.0052098259329795
-0.0048698182217776
-0.0045618587173521
-0.0042965980246663
-0.0040731974877417
-0.0038807441014796
-0.0037001438904553
-0.0035083738621324
-0.0032873891759663
-0.0030306321568787
-0.002740140305832
-0.0024190733674913
-0.0020681591704487
-0.0016873778076842
-0.001279231859371
-0.000850448384881
-0.0004111552843824
2.71298922598362e-05
0.0004536414053291
0.0008604946779087
0.0012434796663001
0.0016013821586966
0.0019362231250852
0.0022530676797032
0.0025559016503393
0.002843310823664
0.0031089854892343
0.0033451505005359
0.0035455054603517
0.0037069311365485
0.0038304980844259
0.0039217239245772
0.003990180324763
0.004047776106745
0.0041044605895876
0.0041647935286164
0.0042285295203328
0.0042922450229525
0.0043503693304955
0.0043973722495138
0.0044294921681284
0.0044426987878978
0.0044289035722613
0.0043738922104239
0.004256666637957
0.0040508951060473
0.0037296754308044
0.0032706200145184
0.00265932851471
0.0018931459635496
0.0009852197254076
-3.4186639823019505e-05
-0.0011207850184291
-0.0022213587071746
-0.0032782149501144
-0.0042347060516476
-0.0050430805422365
-0.0056713675148785
-0.0061060478910803
-0.0063501805998384
-0.0064195711165666
-0.0063397400081157
-0.0061425440944731
-0.0058614104054868
-0.005527367349714
-0.0051672831177711
-0.0048037022352218
-0.0044552544131875
-0.0041367737576365
-0.0038578431122004
-0.0036190410610288
-0.0034098166506737
-0.0032123073469847
-0.0030080873984843
-0.0027836337685585
-0.0025339559651911
-0.0022624095436185
-0.0019755649846047
-0.0016774500254541
-0.0013677356764674
-0.0010437667369842
-0.0007039485499262
-0.000349945272319
1.3897893950343132e-05
0.0003827286418527
0.0007526649278588
0.0011215200647711
0.001488699694164
0.0018528949003666
0.0022088838741183
0.0025471278931945
0.0028568617999553
0.0031292336061596
0.003358295187354
0.0035409834235906
0.0036773546598851
0.0037710475735366
0.003829289926216
0.0038622873835265
0.0038816751912236
0.0038981023244559
0.0039202324114739
0.0039559407159686
0.0040128552354872
0.0040954761207103
0.0041998922824859
0.0043096560984849
0.0043952497653663
0.0044182180427014
0.0043377606198191
0.0041164341382682
0.0037260293029248
0.0031538165640085
0.0024055615067481
0.0015047913184389
0.0004907250404357
-0.0005845439154654
-0.0016598768997937
-0.0026701975148171
-0.003554506227374
-0.0042659509927034
-0.0047785025089979
-0.0050868731923401
-0.005201622378081
-0.0051435735076665
-0.0049406476318836
-0.0046262354589998
-0.004236829932779
-0.0038102406542748
-0.003385137533769
-0.0029980079270899
-0.002676140051335
-0.0024320862721651
-0.0022628870792686
-0.0021511588711291
-0.0020688658114522
-0.0019870859105139
-0.0018860371783375
-0.0017572042997926
-0.001598838251084
-0.0014109851326793
-0.0011936695082113
-0.000948064320255
-0.0006771177286282
-0.0003838994307443
-7.145712152123451e-05
0.0002541539724916
0.0005828389548696
0.0009040011209435
0.0012101096799597
0.0014977396931499
0.0017671128734946
0.0020193997770547
0.002253548707813
0.0024669389240443
0.0026585697196424
0.0028302134014666
0.0029844851233065
0.0031219429802149
0.0032405538950115
0.0033387150615453
0.0034175459295511
0.0034796528052538
0.0035280110314488
0.0035664793103933
0.0035995992366224
0.003631905419752
0.0036666197702288
0.0037009995430707
0.0037195722106844
0.0036915661767125
0.0035761164035648
0.0033311701845377
0.0029208096675574
0.0023222132585942
0.0015334737254306
0.0005779078928753
-0.0004981504171155
-0.0016323839081451
-0.0027550479862838
-0.0037974482402205
-0.0047003300860524
-0.0054200552403926
-0.0059309969656169
-0.0062265517190098
-0.0063189892098307
-0.0062359953299164
-0.0060160178691148
-0.005703576374799
-0.0053422125056385
-0.0049676224589347
-0.0046054674312472
-0.0042724078521132
-0.0039769308641552
-0.0037199263460934
-0.0034960818011313
-0.0032957049552351
-0.0031061472836881
-0.0029127129819244
-0.002700142096728
-0.0024557092692703
-0.0021719303913414
-0.0018465219764038
-0.0014814707683399
-0.0010831895051524
-0.0006623929366469
-0.0002315449528396
0.0001997663639485
0.0006272387690842
0.0010501442011445
0.0014694156125187
0.0018865175079554
0.0023005206603556
0.0027054918464273
0.0030922312289476
0.0034523862414062
0.0037794271484017
0.0040673990733921
0.0043119438923895
0.0045120758004486
0.0046699959784746
0.0047905528917908
0.0048806816339492
0.004947158973664
0.0049948282539844
0.0050270119681954
0.0050458321347832
0.0050521129742264
0.0050462293438613
0.0050299996510148
0.0050091817975044
0.0049940505996346
0.0049945572391152
0.0050112134777009
0.005027353297919
0.0050076469779014
0.0049037057906389
0.0046636606566607
0.0042421892285346
0.0036091301590204
0.00275653693825
0.0017037881771102
0.000497248605825
-0.0007976711494848
-0.0021077515557408
-0.0033608521334826
-0.0044915406033396
-0.0054459106177091
-0.006187074817717
-0.0066987532190978
-0.0069844522513449
-0.0070647681131958
-0.0069745131768286
-0.0067571913823485
-0.0064566172659397
-0.0061106961220502
-0.0057507269084453
-0.0054018506780266
-0.0050812470726668
-0.0047977790236473
-0.0045539829879999
-0.0043462510220706
-0.0041625248268246
-0.0039828666485846
-0.0037863701581954
-0.0035583516582846
-0.0032915587071329
-0.0029844415839761
-0.0026397805195301
-0.0022619096562266
-0.0018539180746302
-0.0014183040475472
-0.0009591135894879
-0.0004824209026992
3.879074938595295e-06
0.0004905953537672
0.0009690027218312
0.0014320046175271
0.0018743637483567
0.002293377649039
0.002687533153221
0.0030532367527484
0.0033850222826004
0.0036789663136005
0.0039340481162071
0.0041511477902531
0.0043326141312718
0.004482643213123
0.0046071298420429
0.0047128400765359
0.0048062121495604
0.0048915408551692
0.0049692066386342
0.005036343820393
0.0050904997624456
0.0051325000822544
0.0051647657528519
0.0051873857155442
0.0051976395770907
0.0051934337243437
0.0051756938919425
0.0051467129960656
0.0051060048863291
0.0050458572804927
0.0049470830708742
0.0047769406810402
0.0044926581904292
0.0040508238598704
0.0034189294092357
0.0025849265512079
0.0015622363425791
0.0003889785148203
-0.0008778432384133
-0.0021719033829867
-0.0034280191175639
-0.0045880582183599
-0.0056024575605988
-0.0064324140548706
-0.0070531675592064
-0.0074560986831784
-0.0076486505568027
-0.0076524359174072
-0.0075000887736678
-0.0072305537760257
-0.0068838950246572
-0.0064965016208589
-0.0060966229066252
-0.0057033225893974
-0.0053305933251976
-0.0049911946989595
-0.0046949461102485
-0.0044439891353249
-0.0042315600439906
-0.0040452894754707
-0.003869897685945
-0.0036881724372506
-0.0034827543422579
-0.0032382502686232
-0.0029431795701384
-0.0025923000648617
-0.0021880643907934
-0.0017394099850207
-0.0012575674336403
-0.000752015330363
-0.0002312393626198
0.0002934832009486
0.0008073571370914
0.0012949856463819
0.0017437688075006
0.0021458670962601
0.0024977040011435
0.002798662520945
0.0030520437285304
0.0032659964635968
0.0034508046228438
0.0036153676919639
0.0037661641836166
0.0039076441898941
0.0040428321808576
0.0041737239807844
0.0043003391474485
0.0044191060587763
0.0045241159386932
0.0046107931993901
0.0046765329316258
0.0047191162593662
0.004738116171211
0.0047370456159114
0.0047217458486557
0.0046962131746113
0.0046594901941716
0.0046053165569901
0.0045221745967864
0.004391542635858
0.0041881296783685
0.0038843576330691
0.003454880323261
0.0028804242610931
0.0021536464337259
0.0012842386495321
0.0002989142667502
-0.0007621316472068
-0.0018486585468053
-0.0029046607669442
-0.0038748141378164
-0.0047112200409173
-0.0053786840289831
-0.0058574173599481
-0.0061435373499989
-0.0062476089224219
-0.0061902734450995
-0.0059979129582643
-0.0057015810161828
-0.0053367279469966
-0.004941077902913
-0.0045515410602092
-0.0042005754075944
-0.0039115706458687
-0.0036950199864804
-0.0035476260818541
-0.0034545871894806
-0.0033939487766474
-0.0033410592004656
-0.003271753899753
-0.0031641407404094
-0.0029997467063367
-0.0027648299001157
-0.0024526959750801
-0.0020672588143497
-0.0016244181897491
-0.0011481911642476
-0.0006642705993726
-0.0001946772681549
0.0002458012313582
0.0006509803934022
0.0010212436318397
0.0013594741467386
0.0016685514710843
0.0019509228877723
0.0022086086682975
0.0024432372301816
0.0026560502592474
0.002848326228559
0.0030222365166991
0.0031807145569473
0.0033270355779677
0.0034650343004614
0.0035976853687316
0.0037247014697641
0.0038426332175731
0.0039465827867388
0.0040309499017894
0.0040903999470174
0.004122644662857
0.004129993263632
0.0041160113178193
0.0040789390914142
0.0040071848779916
0.0038805245421826
0.0036744447425007
0.0033621652983129
0.0029162603896111
0.0023153992369771
0.001554179820232
0.0006497517460957
-0.0003590144333429
-0.0014186569023877
-0.0024692206643521
-0.0034510949626564
-0.0043113068677484
-0.0050090532749891
-0.0055194743908941
-0.005834330804646
-0.0059592765755951
-0.0059091285802423
-0.0057047582231462
-0.005374499130994
-0.0049564065411686
-0.0044960845261812
-0.0040399436838924
-0.0036273545119911
-0.003285153536126
-0.0030249245464801
-0.0028429357334971
-0.0027231485582888
-0.0026411511935293
-0.0025678882375359
-0.0024742889218032
-0.002335934434086
-0.0021359138190746
-0.001865052152425
-0.0015208544209599
-0.0011081589618697
-0.0006407854380086
-0.0001398342428728
0.0003717003855854
0.0008732114220038
0.0013467958196997
0.0017770498525351
0.0021539733279496
0.0024758179206401
0.0027487345505505
0.0029846860561519
0.0031980185303837
0.0034009087830781
0.003600182943046
0.003798184916377
0.00399632146582
0.0041949423030018
0.0043893028050661
0.0045687123201787
0.0047204536385834
0.0048343269154429
0.0049051661044359
0.0049330159090459
0.0049219760112464
0.0048795635811984
0.0048165339976549
0.004745508544147
0.0046789580956101
0.0046267942525446
0.0045922524295747
0.0045679067261517
0.0045331977307796
0.0044527351856231
0.0042784120887517
0.0039579644799232
0.003447783878073
0.0027250330895185
0.0017941158730536
0.0006867877673357
-0.0005419806111603
-0.0018212838331237
-0.0030740438960492
-0.0042273392900824
-0.0052202041260898
-0.006007979158312
-0.006565123796463
-0.0068864729255437
-0.0069854869507253
-0.0068914382718503
-0.0066472180187702
-0.006305371876806
-0.0059206094592809
-0.0055400799028575
-0.0051953922957181
-0.0049009900540113
-0.0046580582857131
-0.0044581927359104
-0.0042852293699979
-0.0041191345080733
-0.003942412789911
-0.0037437612190842
-0.0035164875444024
-0.0032555775251239
-0.0029575866647064
-0.0026228004135191
-0.002256020437926
-0.001865396159701
-0.0014614154351875
-0.0010546734556555
-0.0006520206807181
-0.0002553885569795
0.0001360171008855
0.000523017719388
0.0009046957711689
0.0012789953034371
0.0016447274247184
0.0020015777554363
0.0023485883139073
0.0026843487285077
0.003008094150573
0.0033183931373059
0.0036108100321143
0.0038781212642788
0.0041127023287117
0.0043094158172607
0.0044677755795419
0.0045919558033347
0.0046890429221093
0.0047667361795902
0.0048308307304978
0.0048838322982192
0.0049269837327301
0.0049637542106211
0.00499959429726
0.0050390199758112
0.0050839837640523
0.0051319804042577
0.0051738349720835
0.0051938416436314
0.0051705548539757
0.005075478926301
0.0048724100925028
0.0045228884555399
0.0039959093555808
0.0032751993276178
0.0023637635167688
0.0012872628867626
9.262422099709512e-05
-0.0011586975306272
-0.0023978999815881
-0.0035552405752241
-0.0045680701732635
-0.0053899511694908
-0.0059970309957861
-0.0063882782123982
-0.0065803239122033
-0.0066012702882289
-0.0064859301783144
-0.0062716053798794
-0.0059946007095277
-0.005688885692507
-0.0053853788413107
-0.0051088402979075
-0.0048741605132818
-0.0046861213631927
-0.0045410841703414
-0.0044268532656133
-0.0043233772739768
-0.0042088208720088
-0.0040665762498974
-0.0038865229580551
-0.0036628160160034
-0.0033933992963284
-0.003080173395574
-0.0027269497513771
-0.0023374527227133
-0.0019153457833454
-0.0014649098739027
-0.0009919465519487
-0.0005049062892794
-1.5498604625463486e-05
0.0004622120759449
0.0009150763507932
0.0013349247165024
0.0017195073887705
0.0020694304257631
0.0023850933648645
0.0026663849130272
0.0029138731770217
0.0031299609690904
0.0033188071101903
0.0034845788031816
0.0036302977241575
0.0037586595863103
0.0038722637109458
0.0039717629551887
0.0040556145831942
0.0041240723803639
0.0041836821474134
0.0042463326826691
0.004321876913309
0.0044117262586951
0.0045099142007529
0.0046078199520707
0.0046960059553384
0.0047616143710911
0.0047841439954936
0.0047338218428194
0.0045740124769508
0.0042670927941799
0.0037827459163963
0.0031059947796165
0.0022420953027904
0.0012178370961919
8.064752910286188e-05
-0.0011061477707698
-0.0022743532899767
-0.0033626877702772
-0.0043218783102929
-0.0051147351041436
-0.0057168728671967
-0.0061184843070805
-0.0063238572329282
-0.0063484795391559
-0.0062164347618818
-0.0059584309346973
-0.0056095137260854
-0.0052074934355914
-0.0047914767637848
-0.0043966947123408
-0.0040464745834469
-0.0037486793007701
-0.0034996832255274
-0.0032905703410506
-0.003110819729045
-0.0029495060443878
-0.0027947446797043
-0.0026329599786549
-0.0024497031699866
-0.0022317026741802
-0.0019693579524755
-0.0016580327646806
-0.0012971059186384
-0.0008886186406016
-0.0004370887763798
5.001330282539129e-05
0.0005623628385365
0.0010876907035708
0.0016119276406243
0.0021184815559536
0.0025882022455334
0.0030014233198016
0.0033430804032832
0.0036073103547096
0.0037971495185047
0.0039214100688695
0.0039924718439579
0.0040255575440824
0.004038066137582
0.0040474981069564
0.0040680412203073
0.004108206834644
0.0041718976572155
0.0042608217336237
0.0043739876709878
0.0045048827305436
0.0046412977389991
0.0047689862549304
0.0048748753033578
0.0049478844739496
0.0049802791327238
0.0049699093215167
0.0049200751818716
0.0048352889716625
0.00471395207569
0.0045431843027472
0.0042998543940484
0.0039549609646201
0.0034789429046213
0.002848693402484
0.0020541744306683
0.0011014577466994
1.3273674994707108e-05
-0.0011715731816366
-0.0024015069939196
-0.0036179663147777
-0.0047613903880119
-0.0057768155820667
-0.0066193910315632
-0.0072593679651618
-0.0076853986829519
-0.0079043274745345
-0.007936998270452
-0.0078127430751919
-0.0075647695921361
-0.0072266529314219
-0.0068307863548398
-0.0064084557816386
-0.005989396944642
-0.0055996761657297
-0.005258401390165
-0.0049749836325645
-0.0047479853965342
-0.0045653078705072
-0.0044054044410586
-0.0042397049255669
-0.0040376097895205
-0.0037742061540484
-0.0034364203456789
-0.0030229028780013
-0.0025395404081791
-0.0019968776032328
-0.0014108739560469
-0.0008027766598388
-0.0001958435168489
0.0003893999382853
0.0009383048163726
0.0014414922334253
0.0018929103389382
0.0022900409530848
0.0026351690758019
0.0029355403967201
0.0032012106385082
0.0034415777772665
0.0036642076447606
0.0038752523250877
0.0040788454934954
0.0042769908905029
0.0044694705866277
0.00465246476233
0.0048190639354288
0.0049627255648374
0.0050807623192667
0.0051751872524619
0.0052499305456876
0.0053074955940246
0.005348437000066
0.0053728725761175
0.005381781142205
0.0053768828511238
0.0053600496612489
0.0053340839222073
0.0053033572621643
0.0052702859975397
0.005227651912719
0.0051520317792892
0.0050037503242492
0.0047343792393803
0.0042977319099009
0.0036599640734493
0.0028076514136046
0.0017533497884869
0.0005368352867662
-0.0007796644931659
-0.0021210988052189
-0.0034101074561476
-0.0045759454369544
-0.0055606528185307
-0.0063216080889105
-0.0068338955752551
-0.0070950733497738
-0.0071272193454205
-0.0069717112928628
-0.0066798697225749
-0.0063045844435691
-0.005895048379898
-0.0054938048124313
-0.0051339128986001
-0.0048357686027884
-0.0046058660373091
-0.0044390708208084
-0.0043225428089499
-0.0042380783706903
-0.0041629946790635
-0.004072620999068
-0.0039442181587219
-0.0037598046474158
-0.0035080129746347
-0.0031855443958193
-0.0027973859105259
-0.0023550516925752
-0.0018734172917902
-0.0013681846903637
-0.0008544051088392
-0.0003453034441918
0.0001482025254517
0.0006170889828354
0.0010535181500017
0.0014512410853058
0.0018075015395879
0.0021252322476357
0.0024135035928338
0.0026834211312234
0.0029415399767458
0.0031871362589299
0.0034146888647228
0.0036179199814796
0.0037925648503005
0.003937354311347
0.0040542557835578
0.0041486420668661
0.0042280228808522
0.0042984173633158
0.0043610478751361
