bvp
0.0015361264813691
0.0022417975123971
0.0029096149373799
0.0035253912210464
0.0040750722400844
0.0045483871363103
0.0049426415935158
0.0052634589374065
0.0055216420441865
0.0057282419875264
0.0058919168077409
0.0060197608545422
0.0061182067729532
0.0061928248032927
0.006249725818634
0.0062980661168694
0.0063499258831143
0.0064157685264945
0.0064979894086718
0.0065883290953934
0.006671811453998
0.0067335381172597
0.0067632943391799
0.006755996029824
0.0067084869369864
0.0066131358034908
0.0064511336386203
0.0061908373609185
0.0057911565527319
0.0052065611816942
0.00439378246665
0.003321937052533
0.0019852463155984
0.0004118694923818
-0.0013373321853578
-0.0031771594658493
-0.0050082318484783
-0.0067285541445016
-0.008245987817645
-0.0094880908727645
-0.0104070696979761
-0.0109812952578067
-0.0112159270793199
-0.0111422212794423
-0.0108128897845745
-0.0102930385619401
-0.0096497442573308
-0.0089446548372507
-0.0082301050424575
-0.0075460895895957
-0.006919605191797
-0.0063674352131783
-0.0058967359364032
-0.0055029019713401
-0.0051705767400562
-0.0048767388798296
-0.0045934868976473
-0.0042922683060169
-0.0039479560218751
-0.0035409980919212
-0.0030595881398767
-0.0025017235893756
-0.0018748822622001
-0.0011931447079405
-0.0004730543587356
0.000269072712399
0.0010164033155888
0.0017496441723778
0.0024472514633089
0.0030891830101609
0.0036616907455027
0.0041594132781028
0.0045850044116377
0.0049469079822301
0.0052554765716195
0.0055197183974087
0.0057466765865683
0.0059429071843624
0.0061149769462645
0.0062689809128642
0.0064119915477931
0.0065525448881089
0.0066959736868739
0.0068391319364309
0.0069708656519651
0.0070763821713626
0.0071392315439879
0.0071382648311555
0.0070431204512715
0.0068123722448945
0.0063959318213164
0.0057434015907347
0.0048167668282985
0.0036022621206939
0.0021181481424719
0.0004161460092291
-0.0014232194516807
-0.0032987887971103
-0.005100998096168
-0.0067273899912834
-0.0080952057614922
-0.0091473124921321
-0.0098545039072632
-0.0102160740643739
-0.0102566881105303
-0.0100195901468396
-0.0095584886148571
-0.0089317811653018
-0.0082004126161336
-0.0074245273135602
-0.0066562527790665
-0.0059326067566871
-0.0052722743712365
-0.0046771997585892
-0.0041386322118341
-0.0036438964307308
-0.0031790654174983
-0.0027291013393551
-0.0022794834803789
-0.0018179048784077
-0.0013340583536773
-0.0008197613060474
-0.0002707883249968
0.0003126400988548
0.0009277372155338
0.0015693614259362
0.0022278944961726
0.0028893924318253
0.0035393210127949
0.0041650813072919
0.0047537079080939
0.0052892407402396
0.0057565849274396
0.0061489674262702
0.0064700520597398
0.0067300596274435
0.0069417413324117
0.0071179401129484
0.0072694881819188
0.0074031520634889
0.0075209722854197
0.0076224086806178
0.0077065462246537
0.0077724098227918
0.0078201126307249
0.0078514302149415
0.0078668231144547
0.0078628603368997
0.0078332060948014
0.007771102245897
0.0076712756417691
0.0075302366167306
0.0073446943424642
0.0071077174507081
0.0068036415614187
0.0064051039516925
0.0058729192242026
0.0051581319421529
0.0042086876928806
0.0029834660235792
0.0014713169075548
-0.0002961009740829
-0.002247791737318
-0.0042873485945165
-0.0063061737455427
-0.0081949234008789
-0.0098546985536813
-0.0112069528549909
-0.0122016100212931
-0.0128209441900253
-0.0130770523101091
-0.0130054224282503
-0.0126586696133017
-0.0121014099568128
-0.0114043299108743
-0.0106362216174602
-0.0098561886698007
-0.0091089466586709
-0.0084231309592723
-0.0078110489994287
-0.0072698574513196
-0.0067851501516997
-0.0063358792103827
-0.0058981887996196
-0.0054475045762956
-0.0049602659419178
-0.0044172685593366
-0.0038076869677752
-0.0031304648146033
-0.0023929446469992
-0.0016087286639958
-0.0007942885858938
3.519619349390268e-05
0.0008670954266563
0.001688988530077
0.0024865344166755
0.0032433331944048
0.0039424840360879
0.0045704022049903
0.0051201730966567
0.0055912141688168
0.0059874504804611
0.0063164541497826
0.0065890094265341
0.0068177194334566
0.0070135975256562
0.0071832835674285
0.0073311594314873
0.007463282905519
0.0075859939679503
0.0077007552608847
0.007802709005773
0.007883945479989
0.0079369340091943
0.0079550668597221
0.0079312631860375
0.0078588454052805
0.0077349347993731
0.0075619984418153
0.0073471451178193
0.0071005467325448
0.0068312268704175
0.0065398965962231
0.0062122931703925
0.0058176168240606
0.0053121065720915
0.0046428395435214
0.0037534050643444
0.0025975212920457
0.0011559752747416
-0.0005519236437976
-0.0024652276188135
-0.0044877338223159
-0.0065022995695471
-0.0083872508257627
-0.010030772536993
-0.0113425627350807
-0.0122631471604108
-0.0127700213342905
-0.012877395376563
-0.0126295592635869
-0.0120933186262846
-0.0113513488322496
-0.0104935029521584
-0.0096068074926733
-0.0087664276361465
-0.0080275516957044
-0.0074202045798301
-0.0069485413841903
-0.0065930695272982
-0.0063160224817693
-0.0060702245682477
-0.0058092251420021
-0.0054963664151728
-0.0051091760396957
-0.004636650905013
-0.0040739863179624
-0.0034213890321552
-0.0026876321062445
-0.0018933179089799
-0.0010687585454434
-0.0002468898892402
0.0005434057675302
0.0012804453726857
0.001950473873876
0.0025469968095421
0.0030696652829647
0.0035235690884292
0.003918363712728
0.0042660580947995
0.0045779729261994
0.0048643965274095
0.0051365722902119
0.005405081436038
0.0056749051436781
0.0059438236057758
0.0062049850821495
0.0064487280324101
0.0066630775108933
0.0068370606750249
0.0069658290594816
0.0070518511347472
0.0071017425507307
0.0071217864751815
0.0071126343682408
0.0070636835880577
0.0069488468579947
0.0067251953296363
0.0063368217088282
0.0057249749079346
0.0048412354663014
0.0036604541819542
0.0021924483589828
0.0004879833431914
-0.0013662572018802
-0.0032610115595161
-0.0050795366987586
-0.0067116939462721
-0.0080656828358769
-0.0090758604928851
-0.0097074247896671
-0.0099579468369483
-0.0098542813211679
-0.0094467941671609
-0.0088029410690069
-0.0079991947859525
-0.0071118604391813
-0.0062093562446534
-0.0053476132452487
-0.0045677628368139
-0.0038939286023378
-0.0033316309563815
-0.0028696483932435
-0.0024853865616023
-0.0021503586322069
-0.0018342479597777
-0.0015087493229657
-0.0011511575430631
-0.0007468154653906
-0.0002888876479119
0.0002252254635095
0.0007967986166477
0.0014237535651773
0.0020964122377336
0.0027969200164079
0.0035022308584302
0.0041876854375004
0.004830265417695
0.0054102260619401
0.0059122499078512
0.0063277715817093
0.0066564627923071
0.0069056125357747
0.0070878565311431
0.0072183371521532
0.0073122247122228
0.0073835030198097
0.0074450480751693
0.0075061987154185
0.0075690727680921
0.0076297130435705
0.0076817139051854
0.0077178790234029
0.0077305831946432
0.0077120419591665
0.0076555381529033
0.007557385135442
0.0074179526418447
0.0072408700361847
0.0070291929878294
0.0067784786224365
0.0064706709235906
0.0060728685930371
0.0055399085395038
0.0048171821981668
0.0038458765484392
0.0025770983193069
0.0009924340993165
-0.0008823841344565
-0.0029779183678328
-0.0051894532516598
-0.0073890034109354
-0.0094423815608024
-0.0112276431173086
-0.0126489400863647
-0.0136451655998826
-0.0141941308975219
-0.0143110677599906
-0.0140420105308294
-0.013455712236464
-0.0126364305615425
-0.0116764605045318
-0.0106671415269374
-0.0096893981099128
-0.0088057164102792
-0.0080546420067548
-0.0074485903605818
-0.0069756302982568
-0.0066043497063219
-0.0062899743206799
-0.0059814611449837
-0.0056300233118236
-0.0051982081495225
-0.0046657524071633
-0.0040283678099513
-0.0032925424166023
-0.0024729566648602
-0.0015919677680358
-0.0006766563747078
0.000245077186264
0.001146565657109
0.0020037672948092
0.0027968033682554
0.0035113487392663
0.0041395537555217
0.0046793175861239
0.0051328288391232
0.0055073508992791
0.0058161616325378
0.0060762660577893
0.0063057807274162
0.0065219672396779
0.0067365737631917
0.0069510033354163
0.0071567990817129
0.0073402784764766
0.0074868761003017
0.0075842989608645
0.0076252310536801
0.0076094362884759
0.0075446837581694
0.0074450876563787
0.0073263002559542
0.0072005637921392
0.0070750280283391
0.0069507705047726
0.0068180807866156
0.0066504101268947
0.0064019006676971
0.0060097244568169
0.0054023973643779
0.0045159738510847
0.0033143339678645
0.0018028293270617
2.9066577553749084e-05
-0.0019243488786742
-0.0039487998001277
-0.0059201484546065
-0.0077138040214776
-0.0092228595167398
-0.0103716943413019
-0.0111205475404858
-0.0114632025361061
-0.0114226648584008
-0.011048225685954
-0.0104121332988142
-0.0096029555425047
-0.0087151620537042
-0.0078354366123676
-0.0070304512046277
-0.0063422187231481
-0.0057897162623703
-0.0053711519576609
-0.0050651566125452
-0.0048343236558139
-0.0046333959326148
-0.0044180657714605
-0.0041492683812975
-0.0037941820919513
-0.0033295406028628
-0.0027482253499329
-0.0020624969620257
-0.0012988628586754
-0.000488557270728
0.00033838103991
0.0011536829406395
0.0019313000375404
0.0026499771047383
0.003295509610325
0.0038615693338215
0.0043497793376445
0.0047689899802207
0.0051321741193532
0.005452842451632
0.0057448311708867
0.0060216593556106
0.0062915696762502
0.0065533462911844
0.0067976200953125
0.0070122284814715
0.0071874926798045
0.0073187039233744
0.0074064815416932
0.0074559329077601
0.0074740243144333
0.00746626034379
0.0074342428706586
0.007371537387371
0.0072576240636408
0.0070559494197368
0.0067176953889429
0.0061871190555393
0.0054083280265331
0.0043361126445233
0.0029488648287951
0.0012603136710822
-0.0006731477333232
-0.0027549853548407
-0.0048611001111567
-0.0068569504655897
-0.0086156241595745
-0.0100348992273211
-0.011049997061491
-0.0116379158571362
-0.0118131954222917
-0.0116198314353823
-0.0111218430101871
-0.0103932311758399
-0.0095111979171633
-0.0085531193763017
-0.0075919488444924
-0.0066888751462101
-0.0058877198025584
-0.005212165415287
-0.0046634711325168
-0.0042213429696857
-0.0038515729829669
-0.0035154251381754
-0.0031750160269439
-0.002796122804284
-0.0023508064914494
-0.0018202436622232
-0.0011971294879913
-0.0004863147623836
0.0002953766379505
0.0011202160967513
0.0019546758849173
0.0027667619287967
0.0035306247882544
0.0042283427901566
0.0048504685983061
0.0053947186097502
0.0058635035529732
0.0062627899460494
0.0066012954339385
0.0068879919126629
0.0071300128474831
0.0073330765590071
0.0075035728514194
0.0076496563851833
0.0077784014865756
0.0078913755714893
0.0079844826832413
0.008051760494709
0.0080886464565992
0.0080930292606353
0.0080649843439459
0.0080066733062267
0.0079224519431591
0.0078174341470003
0.0076943198218941
0.0075513063929975
0.00738175958395
0.0071724858134984
0.0068999272771179
0.0065260026603937
0.0059959227219223
0.0052439603023231
0.0042098499834537
0.0028578967321664
0.0011899124365299
-0.0007491311989724
-0.0028732516802847
-0.0050677871331572
-0.0072068404406309
-0.0091682728379964
-0.0108460336923599
-0.0121602248400449
-0.0130631159991025
-0.0135410977527499
-0.0136127024888992
-0.0133233061060309
-0.0127390911802649
-0.0119412615895271
-0.0110182808712124
-0.0100558688864111
-0.0091275237500667
-0.0082874372601509
-0.0075672138482332
-0.0069763259962201
-0.0065039815381169
-0.0061221374198794
-0.0057910764589905
-0.0054673114791512
-0.0051117851398885
-0.0046943752095103
-0.0041936044581234
-0.0035964851267635
-0.0029014060273766
-0.0021207190584391
-0.0012788684107363
-0.000406498555094
0.0004654980730265
0.0013098113704472
0.002104346640408
0.002832056954503
0.0034809759818017
0.0040460103191435
0.0045299436897039
0.0049410471692681
0.0052896807901561
0.0055872872471809
0.0058474759571254
0.006085701752454
0.0063155055977404
0.006544436328113
0.0067725349217653
0.0069925081916153
0.0071920412592589
0.0073583791963756
0.0074817831628024
0.0075563574209809
0.0075801126658916
0.0075557166710495
0.0074904887005686
0.0073941890150308
0.0072764279320836
0.0071454374119639
0.0070076347328722
0.0068648536689579
0.0067068478092551
0.0065032318234443
0.0062018213793635
0.0057359430938959
0.0050386586226522
0.0040591196157038
0.0027758856303989
0.0012035600375384
-0.0006076216232031
-0.0025758859701454
-0.0045953295193612
-0.0065492768771946
-0.0083250012248754
-0.00982400868088
-0.0109702004119753
-0.0117170847952365
-0.0120518608018755
-0.0119960401207208
-0.0116019360721111
-0.010945220477879
-0.0101153953000903
-0.0092054456472396
-0.0083014778792858
-0.0074733854271471
-0.0067686322145164
-0.0062099797651171
-0.0057960525155067
-0.0055045131593942
-0.0052973851561546
-0.0051267556846141
-0.0049399007111787
-0.0046861520968377
-0.0043274411000311
-0.0038464460521936
-0.0032458347268402
-0.0025421387981623
-0.0017605961766093
-0.0009321973193436
-9.022175800055264e-05
0.0007344960467889
0.0015164377400651
0.0022362836170941
0.0028819716535508
0.0034492830745875
0.0039408043958246
0.0043642129749059
0.0047318432480096
0.0050597917288541
0.0053628566674888
0.0056482162326574
0.0059149516746401
0.006159711163491
0.0063810935243964
0.0065791038796305
0.0067532211542129
0.0069011515006423
0.0070178918540477
0.0070970240049064
0.0071353130042552
0.0071365777403116
0.0071106841787695
0.0070693008601665
0.0070217470638453
0.0069699366576969
0.0069004278630018
0.0067771947942674
0.0065413489937782
0.0061205392703413
0.0054449527524411
0.0044631925411522
0.0031547378748655
0.0015383088029921
-0.0003260637167841
-0.0023426311090588
-0.0043920734897255
-0.0063467854633927
-0.0080861197784543
-0.0095096379518508
-0.0105460435152053
-0.011158313602209
-0.0113476710394024
-0.0111541114747524
-0.0106487553566694
-0.009920067153871
-0.0090609602630138
-0.0081596532836556
-0.0072923433035612
-0.0065164444968104
-0.0058652386069297
-0.0053460341878235
-0.0049437517300248
-0.0046288263984024
-0.0043648947030305
-0.0041126641444861
-0.003831592388451
-0.0034839417785406
-0.0030424022115767
-0.0024964625481516
-0.0018530916422605
-0.0011330773122608
-0.0003654570318758
0.000418723328039
0.0011916689109057
0.0019319941056892
0.0026259147562086
0.003267147578299
0.0038551099132746
0.0043922290205955
0.0048827030695974
0.0053318869322538
0.0057446868158876
0.0061241565272212
0.006470838561654
0.0067819207906723
0.0070508271455764
0.0072692260146141
0.0074320631101727
0.0075420895591378
0.0076085487380623
0.0076415194198489
0.0076486803591251
0.0076357573270797
0.0076072621159255
0.007566712796688
0.0075164805166423
0.0074567040428519
0.0073854299262166
0.0073005687445402
0.0071995658800005
0.0070747882127761
0.0069071175530552
0.0066614598035812
0.0062867170199751
0.0057213399559259
0.0049044326879084
0.003790256101638
0.0023626573383808
0.0006451499648392
-0.0012984599452465
-0.0033735493198037
-0.0054675722494721
-0.0074612721800804
-0.0092399977147579
-0.0107066193595528
-0.011794239282608
-0.0124752968549728
-0.0127621656283736
-0.0126983793452382
-0.0123465238139033
-0.0117779392749071
-0.0110648237168788
-0.0102745592594146
-0.0094658816233277
-0.0086858170107007
-0.0079674255102872
-0.0073289582505822
-0.006773923523724
-0.0062914621084928
-0.005858049262315
-0.0054427911527454
-0.0050156214274466
-0.0045542721636593
-0.0040471199899911
-0.0034913043491542
-0.0028888150118291
-0.0022443560883402
-0.0015642150538042
-0.0008548533078283
-0.0001232468057423
0.0006206950638443
0.0013624243438243
0.0020846498664468
0.0027720967773348
0.0034142776858061
0.0040052458643913
0.0045432280749082
0.0050289025530219
0.0054618138819932
0.0058391885831952
0.0061582820490002
0.0064193215221166
0.0066267270594835
0.0067880135029554
0.0069118272513151
0.0070068351924419
0.0070814127102494
0.0071434788405895
0.0071993414312601
0.0072513222694396
0.00729764951393
0.0073360754176974
0.0073661743663251
0.0073865391314029
0.007389910519123
0.0073612304404377
0.0072790952399373
0.0071170735172927
0.0068428013473749
0.0064161685295403
0.005790869705379
0.0049232318997383
0.0037851349916309
0.0023745449725538
0.0007218730170279
-0.0011087943566963
-0.0030257597099989
-0.0049203056842088
-0.0066788755357265
-0.0081989075988531
-0.0094042867422103
-0.0102511821314692
-0.0107249757274985
-0.0108368201181292
-0.0106229009106755
-0.0101419957354664
-0.0094684101641178
-0.0086827958002686
-0.0078628826886415
-0.0070744436234235
-0.0063655385747551
-0.0057657584547996
-0.005285941530019
-0.0049155475571751
-0.0046233991160988
-0.0043670530430972
-0.0041059856303036
-0.0038100574165582
-0.0034609453286975
-0.0030502090230584
-0.0025768755003809
-0.0020440989173948
-0.0014564968878403
-0.0008209994994103
-0.0001486705150455
0.0005459481617435
0.001246697967872
0.0019373367540538
0.0026033951435238
0.0032344018109142
0.0038238929118961
0.0043655252084136
0.0048499768599867
0.0052674575708806
0.0056130080483853
0.0058888434432446
0.0061021582223474
0.0062617538496851
0.006376402452588
0.0064548393711447
0.0065062614157795
0.0065396064892411
0.006561926100403
0.006577824242413
0.0065901624038815
0.0066022486425936
0.006619025953114
0.0066423458047211
0.0066635543480515
0.0066597918048501
0.0065934928134083
0.0064142644405364
0.0060638370923697
0.0054827705025672
0.0046195285394787
0.0034428220242261
0.0019535622559487
0.0001912389416247
-0.001768501708284
-0.0038243802264332
-0.0058621279895305
-0.0077646439895033
-0.0094223981723189
-0.0107466783374547
-0.0116814440116286
-0.0122082494199275
-0.0123436283320188
-0.0121311070397496
-0.0116308014839887
-0.0109115978702902
-0.0100475270301103
-0.0091143203899264
-0.0081831412389874
-0.0073127332143485
-0.0065431497059762
-0.0058922474272549
-0.0053549553267657
-0.0049060517922043
-0.0045067709870636
-0.0041152769699692
-0.0036974947433918
-0.0032320492900907
-0.0027088853530585
-0.002125937025994
-0.0014863675460219
-0.000797071494162
-6.906990893185139e-05
0.0006818007677793
0.0014366569230332
0.0021772603504359
0.0028887938242405
0.0035600424744188
0.004182644188404
0.0047524292021989
0.0052706007845699
0.0057404721155762
0.0061627086251974
0.0065337847918272
0.006847514770925
0.0070985560305416
0.0072868047282099
0.0074206525459885
0.0075158411636948
0.007589261047542
0.0076537113636732
0.0077170832082629
0.0077832690440118
0.0078532639890909
0.0079259052872657
0.0079982168972492
0.0080657936632633
0.008121627382934
0.0081541212275624
0.0081473346799612
0.0080824717879295
0.0079381121322512
0.0076891537755727
0.0073043969459831
0.0067445980384945
0.0059661660343408
0.0049313372001051
0.0036197253502905
0.0020375268068164
0.0002231851685792
-0.0017523866845294
-0.0037919075693935
-0.0057835672050714
-0.0076175900176167
-0.0092015881091356
-0.0104678506031632
-0.0113746374845504
-0.0119068454951047
-0.0120765538886189
-0.0119218733161687
-0.0115029290318489
-0.0108936540782451
-0.0101707931607961
-0.0094045968726277
-0.0086525827646255
-0.0079551264643669
-0.0073337443172931
-0.0067921197041869
-0.0063190921209752
-0.0058945827186107
-0.0054964227601885
-0.0051036700606346
-0.004697045776993
-0.0042601251043379
-0.0037819151766598
-0.0032580057159066
-0.0026885881088674
-0.0020766202360391
-0.0014278050512075
-0.0007499873172491
-5.2421935833990574e-05
0.0006547744851559
0.0013623728882521
0.0020636585541069
0.0027530167717486
0.0034209338482469
0.0040514711290597
0.0046266224235296
0.0051319375634193
0.0055587533861398
0.005904612597078
0.0061735496856272
0.0063760392367839
0.006527217105031
0.0066431974992156
0.0067368354648351
0.006815340835601
0.0068818046711385
0.0069384663365781
0.0069875349290668
0.0070277848280966
0.0070481193251907
0.0070214387960731
0.0069026821292936
0.0066330838017165
0.0061500058509409
0.005400120280683
0.0043522394262254
0.003006211714819
0.0013979318318888
-0.0003993478603661
-0.002281718654558
-0.004129787441343
-0.0058251419104635
-0.0072640096768736
-0.0083676660433411
-0.0090886745601892
-0.0094149746000766
-0.0093714268878102
-0.0090143419802188
-0.0084202252328395
-0.0076743843965232
-0.0068609965965151
-0.0060536577366292
-0.0053086071275174
-0.0046627931296825
-0.0041347662918269
-0.0037261471152305
-0.0034235715866088
-0.0032014185562729
-0.0030252197757363
-0.0028562089428305
-0.0026579073164612
-0.002402891870588
-0.0020761410705745
-0.0016743675805628
-0.0012026706244796
-0.0006708905566483
-9.230640716850758e-05
0.0005169003270566
0.0011393968015909
0.0017576825339347
0.0023546791635453
0.0029160189442336
0.003432473167777
0.0039003465790301
0.0043193278834223
0.0046905120834708
0.0050167050212621
0.0053009577095508
0.0055433409288525
0.0057416749186813
0.0058949682861566
0.0060046799480915
0.0060724997892975
0.0060955542139709
0.0060614747926592
0.0059447102248668
0.0057049673050642
0.0052907555364072
0.0046491380780935
0.0037387311458587
0.0025430163368582
0.0010822688927873
-0.0005815727054141
-0.0023538044188171
-0.0041261645965278
-0.0057949991896748
-0.0072708250954747
-0.0084812147542834
-0.0093735437840223
-0.0099191749468445
-0.0101160444319248
-0.0099880956113338
-0.009581372141838
-0.0089569566771388
-0.0081821884959936
-0.0073230299167335
-0.0064401952549815
-0.0055869473144412
-0.004804884083569
-0.0041194707155227
-0.0035384686198085
-0.0030529182404279
-0.0026397816836833
-0.0022660954855382
-0.0018935929983854
-0.0014839619398117
-0.0010058335028588
-0.0004407833330333
0.0002146554179489
0.0009499252773821
0.0017428174614906
0.0025631315074861
0.0033787819556891
0.0041636158712208
0.0049007385969161
0.005578295327723
0.0061847958713769
0.0067098969593644
0.0071471258997917
0.0074950233101844
0.0077577540650963
0.0079451473429799
0.0080709131434559
0.0081495232880115
0.0081940069794654
0.0082143926993012
0.0082159675657749
0.0082009006291627
0.0081726657226681
0.0081382459029555
0.0081058274954557
0.0080761983990669
0.0080308057367801
0.0079237725585699
0.007679927162826
0.0071995914913713
0.0063739391043782
0.0051090973429381
0.0033494175877422
0.0010922816582024
-0.0016074801096692
-0.0046434006653726
-0.0078710904344916
-0.0111254295334219
-0.0142381638288497
-0.017053747549653
-0.0194425024092197
-0.0213128179311752
-0.0226199086755514
-0.0233646612614393
-0.0235833209007978
-0.0233352594077587
-0.0226936899125576
-0.0217401441186666
-0.0205597206950187
-0.0192334912717342
-0.0178303606808185
-0.0164023786783218
-0.0149841047823429
-0.0135942362248897
-0.012236931361258
-0.0109031200408935
-0.0095743630081415
-0.00822957418859
-0.0068505741655826
-0.0054224096238613
-0.0039323447272181
-0.0023726718500256
-0.0007444247603416
0.0009420132264494
0.0026682373136281
0.0044097192585468
0.0061386758461594
0.007826997898519
0.0094491839408874
0.0109854079782962
0.0124226938933134
0.0137553736567497
0.0149855446070432
0.0161195304244756
0.0171619169414043
0.0181127320975065
0.0189680214971303
0.0197225529700517
0.0203746724873781
0.0209300480782985
0.0213997606188058
0.0217941962182521
0.0221185702830553
0.0223732888698577
0.0225575231015682
0.0226719714701175
0.0227194912731647
0.0227054022252559
0.0226362384855747
0.0225146170705556
0.0223336145281791
0.022073894739151
0.0216994360089302
0.0211480520665645
0.0203234534710645
0.0190991573035717
0.0173350125551223
0.014900054782629
0.0116957416757941
0.0076762428507208
0.0028636457864195
-0.002646873705089
-0.0086948173120617
-0.0150694353505969
-0.0215279199182987
-0.0278171394020319
-0.0336931832134723
-0.0389324836432933
-0.0433401875197887
-0.0467632673680782
-0.0491045750677585
-0.0503311902284622
-0.0504761561751365
-0.0496341921389102
-0.0479507781565189
-0.0456043854355812
-0.0427837520837783
-0.0396644957363605
-0.0363896526396274
-0.0330578126013278
-0.0297216307371854
-0.0263953059911727
-0.0230653155595064
-0.0197011958807706
-0.0162666533142328
-0.0127299763262271
-0.009072097018361
-0.0052917320281267
-0.0014066658914089
0.0025479160249233
0.00652208738029
0.0104554649442434
0.0142835527658462
0.017944548279047
0.0213863104581832
0.0245726890861988
0.0274852104485034
0.0301190298050642
0.032477717846632
0.0345704033970832
0.0364100523293018
0.0380111895501613
0.0393886305391788
0.0405585616827011
0.0415390878915786
0.0423481725156307
0.0430002510547637
0.0435028076171875
0.0438554659485816
0.044053204357624
0.0440914779901504
0.0439705327153205
0.0436958447098732
0.0432738102972507
0.0427084267139434
0.0420020073652267
0.0411557257175445
0.0401691868901252
0.0390426628291606
0.0377809703350067
0.0363923795521259
0.0348794646561145
0.0332229658961296
0.0313614532351493
0.0291749350726604
0.0264811534434556
0.0230520237237215
0.0186554752290248
0.0131127629429101
0.0063502639532089
-0.0015669744461774
-0.0104260668158531
-0.0198853313922882
-0.029514193534851
-0.0388411432504653
-0.0474023967981338
-0.0547862276434898
-0.0606677159667015
-0.0648320913314819
-0.0671885460615158
-0.0677750408649444
-0.0667507201433181
-0.0643742680549621
-0.0609702914953231
-0.0568887442350387
-0.0524660423398017
-0.0479925759136676
-0.0436870232224464
-0.0396810062229633
-0.036017045378685
-0.0326581187546253
-0.029507353901863
-0.0264364890754222
-0.0233166292309761
-0.0200427919626235
-0.0165482889860868
-0.0128103364259004
-0.0088498480618
-0.0047254571691155
-0.0005214125849306
0.0036657112650573
0.0077362549491226
0.0115947229787707
0.0151586458086967
0.0183672755956649
0.0211865082383155
0.0236083082854747
0.025646086782217
0.0273295063525438
0.0287001747637987
0.0298072826117277
0.0307013876736164
0.0314271450042724
0.0320193655788898
0.0325038582086563
0.0328995995223522
0.033217903226614
0.0334581956267356
0.0336055420339107
0.0336340963840484
0.0335145331919193
0.0332215055823326
0.0327395424246788
0.0320661775767803
0.0312105510383844
0.0301902629435062
0.029029693454504
0.0277568213641643
0.026397667825222
0.0249728355556726
0.0234975013881921
0.02198002114892
0.0204121973365545
0.01874740421772
0.0168718770146369
0.0145847331732511
0.0116034429520368
0.0076017547398805
0.002275375649333
-0.004579059779644
-0.012995857745409
-0.0228075496852397
-0.0336565822362899
-0.0450419932603836
-0.0563845634460449
-0.0670939087867736
-0.0766244456171989
-0.084515169262886
-0.0904166474938392
-0.0941113382577896
-0.0955261662602424
-0.0947314426302909
-0.0919264182448387
-0.0874150395393371
-0.0815735757350921
-0.0748126879334449
-0.0675375014543533
-0.0601100213825702
-0.0528197735548019
-0.0458665452897548
-0.0393548719584941
-0.0332994684576988
-0.0276428461074829
-0.0222821943461895
-0.0170975867658853
-0.011977044865489
-0.0068361945450305
-0.001630226150155
0.0036421902477741
0.0089432466775178
0.0142066283151507
0.019350541755557
0.0242905747145414
0.0289493091404438
0.0332617238163948
0.0371793657541275
0.0406741276383399
0.0437397845089435
0.0463897287845611
0.0486517548561096
0.0505621619522571
0.0521588176488876
0.0534740686416626
0.0545315966010093
0.055348165333271
0.0559374913573265
0.0563127771019935
0.0564864352345466
0.0564694553613662
0.0562718287110328
0.05590196326375
0.0553649924695491
0.0546620264649391
0.0537906661629676
0.0527468249201774
0.0515288449823856
0.050141517072916
0.0485954843461513
0.0469027198851108
0.0450735166668891
0.0431176759302616
0.0410471409559249
0.0388763397932052
0.0366213843226432
0.0343000963330268
0.0319309160113334
0.0295302830636501
0.0271111205220222
0.0246832258999347
0.0222544092684984
0.0198314413428306
0.0174208544194698
0.015029152855277
0.0126607455313205
0.0103146731853485
0.0079849064350128
0.0056647732853889
0.0033495798707008
0.001031395047903
-0.001316774636507
-0.0037657134234905
-0.0064536444842815
-0.0095942988991737
-0.0134567022323608
-0.0183113999664783
-0.0243550520390272
-0.0316397473216056
-0.0400325171649456
-0.0492199063301086
-0.0587554648518562
-0.0681305080652237
-0.0768427774310112
-0.0844481438398361
-0.0905940905213356
-0.0950382500886917
-0.0976548045873642
-0.0984320193529129
-0.0974644273519516
-0.0949404388666153
-0.0911223366856575
-0.0863187909126281
-0.0808538943529129
-0.0750354751944542
-0.0691255331039428
-0.0633203536272049
-0.0577446818351745
-0.0524554327130317
-0.0474498569965362
-0.0426779985427856
-0.0380599796772003
-0.0335044488310813
-0.0289244018495082
-0.0242512729018926
-0.0194472540169954
-0.0145117454230785
-0.0094795217737555
-0.004412651527673
0.0006100707687437
0.005504538770765
0.0101929288357496
0.0146111957728862
0.0187087319791317
0.0224458556622266
0.0257967114448547
0.0287547297775745
0.0313335731625556
0.0335631966590881
0.0354848504066467
0.0371454991400241
0.0385905057191848
0.0398569703102111
0.0409703031182289
0.0419436506927013
0.0427799597382545
0.0434756875038147
0.0440247952938079
0.0444219335913658
0.0446633026003837
0.0447458662092685
0.0446672849357128
0.0444263145327568
0.0440203845500946
0.0434360466897487
0.0426286458969116
0.0414933077991008
0.0398408658802509
0.0374006479978561
0.0338626243174076
0.0289506465196609
0.0225048325955867
0.0145472921431064
0.0053086662665009
-0.0047937203198671
-0.0152156325057148
-0.0253613498061895
-0.034655712544918
-0.0426022037863731
-0.0488220155239105
-0.0530743598937988
-0.0552619844675064
-0.0554264411330223
-0.0537352636456489
-0.0504589900374412
-0.0459386482834816
-0.0405503176152706
-0.0346706137061119
-0.0286435186862945
-0.0227518007159233
-0.0171984992921352
-0.0121015086770057
-0.0074989479035139
-0.0033614132553339
0.0003900695592164
0.0038627199828624
0.0071720425039529
0.0104249147698283
0.0137045597657561
0.0170583724975585
0.0204915888607502
0.0239695608615875
0.0274285152554512
0.0307885147631168
0.0339638441801071
0.0368742048740386
0.0394565314054489
0.0416705682873725
0.0434974953532218
0.0449366346001625
0.0460025407373905
0.0467223078012466
0.0471329167485237
0.0472778528928756
0.0472011193633079
0.0469390898942947
0.0465157516300678
0.0459444485604763
0.0452318415045738
0.0443810522556304
0.0433956496417522
0.0422830320894718
0.0410531647503376
0.0397136025130748
0.0382664948701858
0.0367109477519989
0.0350476913154125
0.0332812368869781
0.0314187072217464
0.0294673070311546
0.0274328663945198
0.0253208000212907
0.02313918992877
0.0209023244678974
0.0186312906444072
0.0163490753620862
0.0140741281211376
0.0118186958134174
0.0095916967839002
0.0074004381895065
0.0052489563822746
0.0031369067728519
0.0010621771216392
-0.0009757168591022
-0.0029752068221569
-0.0049339905381202
-0.0068495124578475
-0.008718192577362
-0.010534755885601
-0.0122936852276325
-0.0139944106340408
-0.0156505852937698
-0.0173036605119705
-0.0190407801419496
-0.0210120938718318
-0.0234335139393806
-0.0265590567141771
-0.0306222233921289
-0.0357664078474044
-0.0419896468520164
-0.0491200610995292
-0.0568283163011074
-0.064675286412239
-0.0721817016601562
-0.0788966417312622
-0.0844474285840988
-0.0885688066482544
-0.091115579009056
-0.0920599997043609
-0.0914772301912307
-0.089525431394577
-0.0864237695932388
-0.0824286192655563
-0.0778084099292755
-0.0728183165192604
-0.067678578197956
-0.0625595673918724
-0.0575736835598945
-0.0527739748358726
-0.0481606014072895
-0.0436936393380165
-0.0393086336553096
-0.0349332839250564
-0.030503487214446
-0.0259760748594999
-0.0213365890085697
-0.0165995806455612
-0.0118028838187456
-0.007001576013863
-0.0022628009319305
0.0023413500748574
0.0067429495975375
0.0108867287635803
0.0147354323416948
0.0182704236358404
0.0214889086782932
0.0244005471467971
0.0270231962203979
0.0293782204389572
0.0314880274236202
0.0333756022155284
0.0350640937685966
0.0365757346153259
0.0379294902086257
0.039137378334999
0.0402024202048778
0.0411209687590599
0.0418878272175788
0.0425000786781311
0.0429578348994255
0.0432632230222225
0.0434193611145019
0.0434304475784301
0.0433027818799018
0.0430447198450565
0.0426661148667335
0.0421790778636932
0.0415980368852615
0.0409370735287666
0.0402059070765972
0.0394079200923442
0.0385424681007862
0.0376086644828319
0.0366066582500934
0.0355366878211498
0.0343989059329032
0.033194862306118
0.0319283790886402
0.0306053459644317
0.0292336363345384
0.027822783216834
0.0263830255717039
0.0249244999140501
0.023457208648324
0.0219906792044639
0.0205310508608818
0.0190757568925619
0.0176072232425212
0.0160853303968906
0.0144395371899008
0.0125619852915406
0.0103047583252191
0.0074919760227203
0.0039557823911309
-0.0004126243293285
-0.005619978532195
-0.0115528106689453
-0.017985250800848
-0.0246068928390741
-0.031064486131072
-0.0370087325572967
-0.0421364791691303
-0.0462212786078453
-0.049129843711853
-0.0508257299661636
-0.0513626784086227
-0.0508694872260093
-0.0495287254452705
-0.0475525371730327
-0.0451578497886657
-0.0425434410572052
-0.0398721955716609
-0.037260502576828
-0.0347756333649158
-0.0324393957853317
-0.030235169455409
-0.0281171314418315
-0.0260229147970676
-0.0238887127488851
-0.0216614492237567
-0.0193057935684919
-0.0168077293783426
-0.0141746522858738
-0.0114326905459165
-0.0086230868473649
-0.0057975812815129
-0.0030123214237391
-0.0003205155953764
0.0022343937307596
0.0046215886250138
0.0068220724351704
0.0088285412639379
0.0106459809467196
0.012288587167859
0.0137735530734062
0.0151163395494222
0.0163289066404104
0.0174203254282474
0.0183984115719795
0.0192704536020755
0.0200433060526847
0.0207233745604753
0.02131506241858
0.021818820387125
0.0222324579954147
0.0225553754717111
0.0227915160357952
0.0229484755545854
0.0230342708528041
0.0230544321238994
0.0230103861540555
0.0228997990489006
0.0227195415645837
0.0224693566560745
0.0221524350345134
0.021772438660264
0.021329928189516
0.0208216458559036
0.0202443040907382
0.0195992738008499
0.0188929755240678
0.0181324928998947
0.0173183605074882
0.0164342727512121
0.0154317487031221
0.014212928712368
0.0126240570098161
0.0104729318991303
0.0075709056109189
0.0037859864532947
-0.0009113196283578
-0.0064234086312353
-0.0125276641920208
-0.0189035907387733
-0.0251778438687324
-0.0309758596122264
-0.0359686315059661
-0.039906833320856
-0.0426388941705226
-0.0441141501069068
-0.0443759188055992
-0.0435487441718578
-0.0418194234371185
-0.0394114442169666
-0.0365571975708007
-0.0334733091294765
-0.0303419306874275
-0.0272982232272624
-0.0244238674640655
-0.0217477735131979
-0.0192546881735324
-0.0168992578983306
-0.0146211246028542
-0.012358290143311
-0.010057533159852
-0.0076809991151094
-0.0052101910114288
-0.0026489058509469
-2.354849129915237e-05
0.0026217894628643
0.0052343183197081
0.0077609736472368
0.0101537518203258
0.0123734958469867
0.0143931321799755
0.0161987524479627
0.0177878700196743
0.0191671624779701
0.0203513093292713
0.0213607624173164
0.022217808291316
0.0229441411793231
0.0235596895217895
0.0240799039602279
0.0245130714029073
0.0248606093227863
0.0251200348138809
0.0252889096736907
0.0253673996776342
0.0253586806356906
0.0252682343125343
0.025101838633418
0.0248634703457355
0.0245559457689523
0.0241826586425304
0.0237464029341936
0.0232480969280004
0.0226895157247781
0.0220757033675909
0.0214129239320755
0.020705722272396
0.0199563540518283
0.0191658027470111
0.0183352548629045
0.017466701567173
0.0165614616125822
0.0156187620013952
0.0146376341581344
0.0136204911395907
0.0125740943476557
0.0115074971690773
0.0104278363287448
0.0093339309096336
0.0082092881202697
0.0070133954286575
0.0056682173162698
0.00404635630548
0.0019777026027441
-0.0007176455110311
-0.0041818739846348
-0.0084745539352297
-0.0135431960225105
-0.0192179791629314
-0.0252313092350959
-0.0312549322843551
-0.0369449406862258
-0.0419846922159194
-0.0461187288165092
-0.0491755492985248
-0.0510782971978187
-0.0518429353833198
-0.0515654683113098
-0.0504012033343315
-0.0485404767096042
-0.0461842641234397
-0.0435217134654521
-0.0407131165266037
-0.0378806293010711
-0.035105288028717
-0.0324275717139244
-0.0298516806215047
-0.0273562557995319
-0.024907661601901
-0.0224680546671152
-0.0199993904680013
-0.0174685344099998
-0.0148530956357717
-0.0121463742107152
-0.0093599818646907
-0.0065223793499171
-0.0036742314696311
-0.0008626217022538
0.001865079626441
0.0044667860493063
0.0069093648344278
0.009170246310532
0.0112377097830176
0.0131103424355387
0.0147959869354963
0.0163101200014352
0.0176736656576395
0.0189098715782165
0.0200395509600639
0.0210764296352863
0.0220253691077232
0.0228840932250022
0.0236477293074131
0.0243135318160057
0.0248820018023252
0.0253551062196493
0.0257356241345405
0.0260269772261381
0.0262309238314628
0.026346031576395
0.0263693407177925
0.0262982826679945
0.0261314250528812
0.0258702095597982
0.0255216863006353
0.0250981263816356
0.024612471461296
0.0240741446614265
0.0234876777976751
0.0228532273322343
0.0221693832427263
0.0214367471635341
0.0206587240099906
0.0198400560766458
0.0189854782074689
0.0180989317595958
0.0171834770590066
0.0162420086562633
0.0152784772217273
0.0142984027042984
0.0133060254156589
0.0122976889833807
0.0112540079280734
0.0101324701681733
0.0088613666594028
0.0073376391083002
0.0054332464933395
0.0030154390260577
-2.0368024706840515e-05
-0.0037167472764849
-0.0080308467149734
-0.012827736325562
-0.0178941339254379
-0.0229688640683889
-0.0277792438864707
-0.0320738404989242
-0.0356480441987514
-0.0383620373904705
-0.0401507951319217
-0.0410255715250968
-0.0410653203725814
-0.040398746728897
-0.0391825586557388
-0.0375815331935882
-0.0357527732849121
-0.0338328927755355
-0.0319271311163902
-0.030103463679552
-0.0283927433192729
-0.0267920792102813
-0.025271363556385
-0.0237832870334386
-0.0222741346806287
-0.0206943023949861
-0.0190077722072601
-0.0171971656382083
-0.0152635481208562
-0.013223678804934
-0.0111071541905403
-0.0089519303292036
-0.0067974324338138
-0.0046796929091215
-0.002629826311022
-0.0006723362021148
0.0011769775301218
0.0029118054080754
0.004534613341093
