bvp
0.0048399963416159
0.0047548511065542
0.0045681204646825
0.0042539341375231
0.0037885708734393
0.0031564449891448
0.0023557106032967
0.0014024969423189
0.0003314779605716
-0.0008091466734185
-0.0019655488431453
-0.0030852197669446
-0.004121390171349
-0.0050348872318863
-0.0057950224727392
-0.0063810297288
-0.006783815100789
-0.007006867788732
-0.0070657548494637
-0.006986110471189
-0.0067998343147337
-0.0065395208075642
-0.0062326500192284
-0.0058991089463233
-0.0055538602173328
-0.0052104988135397
-0.0048805433325469
-0.0045703928917646
-0.004280743189156
-0.0040071951225399
-0.003739456878975
-0.0034622442908585
-0.0031595760956406
-0.0028191716410219
-0.0024345307610929
-0.0020053689368069
-0.0015378557145595
-0.0010435692965984
-0.0005360222421586
-2.774049062281847e-05
0.0004695540992543
0.000944270635955
0.001386403106153
0.0017896925564855
0.0021522366441786
0.0024751054588705
0.0027617088053375
0.0030187941156327
0.0032552971970289
0.0034799543209373
0.0037013951223343
0.0039281053468585
0.0041657704859972
0.00441520428285
0.004673346877098
0.0049352874048054
0.005194210447371
0.0054399888031184
0.0056594628840684
0.0058389441110193
0.0059678382240235
0.0060413749888539
0.0060608815401792
0.006033097859472
0.0059683439321815
0.0058746761642396
0.0057497364468872
0.0055765337310731
0.005326448008418
0.0049665588885545
0.004468304105103
0.0038153827190399
0.0030068804044276
0.0020573637448251
0.0009978632442653
-0.0001259044511243
-0.0012605263618752
-0.0023527974262833
-0.0033543487079441
-0.0042232200503349
-0.0049255709163844
-0.0054390560835599
-0.005756271071732
-0.0058859186246991
-0.0058506927452981
-0.0056833336129784
-0.0054220706224441
-0.0051056644879281
-0.0047704661265015
-0.0044499011710286
-0.0041724368929862
-0.0039566219784319
-0.0038062394596636
-0.0037098806351423
-0.0036460156552493
-0.0035904922988265
-0.0035225707106292
-0.0034266277216374
-0.0032909482251852
-0.0031066229566931
-0.0028669901657849
-0.0025682875420898
-0.0022109076380729
-0.0018004104495048
-0.0013495669700205
-0.0008789278799667
-0.0004124303814023
2.930976916104555e-05
0.0004331850796006
0.0007934410241432
0.0011089631589129
0.00138186046388
0.0016184113919734
0.0018288453575223
0.0020242617465555
0.0022127267438918
0.0023972750641405
0.0025777802802622
0.0027545876801013
0.0029304013587534
0.0031096693128347
0.0032957261428236
0.003487697802484
0.0036798941437155
0.0038628096226602
0.00402473192662
0.0041560279205441
0.004253489896655
0.0043178228661417
0.0043452573008835
0.0043214787729084
0.0042215469293296
0.0040138182230293
0.0036669976543635
0.0031594214960932
0.0024865341838449
0.0016625579446554
0.0007171467877924
-0.0003083925694227
-0.0013641164405271
-0.0023955181241035
-0.0033479942940175
-0.004171370062977
-0.0048256726004183
-0.005286474712193
-0.0055471006780862
-0.0056176255457103
-0.0055220890790224
-0.0052956496365368
-0.0049810968339443
-0.0046217986382544
-0.004254138097167
-0.0039057682733982
-0.0035974837373942
-0.0033431760966777
-0.0031476856674999
-0.0030055777169764
-0.0029019780922681
-0.0028139455243945
-0.0027138977311551
-0.0025768876075744
-0.0023866472765803
-0.0021362891420722
-0.0018269454594701
-0.0014668911462649
-0.0010691372444853
-0.0006470957305282
-0.0002121148863807
0.0002251752885058
0.0006533865816891
0.001061228569597
0.0014388745184987
0.0017793601145967
0.0020801515784114
0.0023429794237017
0.0025716093368828
0.0027699484489858
0.002942074323073
0.0030933902598917
0.0032306713983416
0.0033602495677769
0.0034873683471232
0.0036181737668812
0.0037600034847855
0.0039167208597064
0.0040837433189153
0.0042491983622312
0.0043995948508381
0.0045244772918522
0.0046183816157281
0.0046802386641502
0.0047109089791774
0.0047098849900066
0.0046711801551282
0.0045799347572028
0.004411959555
0.0041362093761563
0.0037201803643256
0.0031385200563818
0.0023818821646273
0.0014611225342378
0.0004064803943037
-0.000736039946787
-0.0019112310837954
-0.0030621504411101
-0.0041352333500981
-0.005083889234811
-0.0058713709004223
-0.0064721405506134
-0.0068728583864867
-0.0070737432688474
-0.0070883780717849
-0.0069415192119777
-0.0066665345802903
-0.0063011073507368
-0.005881626624614
-0.005441281478852
-0.0050109550356864
-0.0046175620518624
-0.0042802179232239
-0.0040070507675409
-0.0037937979213893
-0.0036254189908504
-0.0034803762100636
-0.0033346973359584
-0.0031637561041861
-0.0029441211372613
-0.0026575655210763
-0.0022944922093302
-0.0018551126122474
-0.0013474118895828
-0.0007825053762644
-0.0001738520804792
0.0004595050122588
0.0010928357951343
0.0016998678911477
0.0022578614298254
0.0027516712434589
0.003175355726853
0.0035300548188388
0.0038204675074666
0.004054351709783
0.0042436062358319
0.0044022682122886
0.0045424364507198
0.0046730348840355
0.0048022051341831
0.0049380869604647
0.0050850771367549
0.0052404897287487
0.0053956839255988
0.0055394927039742
0.0056615271605551
0.0057545094750821
0.0058156996965408
0.0058480603620409
0.005859182216227
0.0058558234013617
0.0058362432755529
0.0057846782729029
0.0056707859039306
0.0054540624842047
0.0050926082767546
0.0045546162873506
0.0038267238996922
0.0029153316281735
0.0018449041526764
0.0006565188523381
-0.0005957087269052
-0.0018507766071707
-0.0030473787337541
-0.0041298251599073
-0.0050522917881608
-0.0057821394875645
-0.0063036317005753
-0.0066193626262247
-0.0067470874637365
-0.0067146443761885
-0.006555157713592
-0.0063025210984051
-0.0059891804121434
-0.0056462059728801
-0.0053023714572191
-0.0049819373525679
-0.0047019063495099
-0.0044693606905639
-0.0042800172232091
-0.0041186362504959
-0.0039632348343729
-0.0037915920838713
-0.0035850945860147
-0.0033301771618425
-0.0030196453444659
-0.002653325907886
-0.0022372093517333
-0.0017808276461437
-0.0012954461853951
-0.0007946057012304
-0.0002924762666225
0.0001996508799493
0.000673518050462
0.0011222667526453
0.0015405730810016
0.0019254779908806
0.0022760161664336
0.0025925152003765
0.0028765858151018
0.0031311940401792
0.0033605098724365
0.0035697356797754
0.003765002824366
0.0039522917941212
0.0041351495310664
0.0043138768523931
0.0044871708378195
0.0046536084264516
0.0048109521158039
0.0049545769579708
0.0050777741707861
0.0051742102950811
0.0052406690083444
0.0052777989767491
0.0052875708788633
0.005269800312817
0.0052198697812855
0.0051263240166008
0.0049687819555401
0.0047187092714011
0.004343079868704
0.0038101125974208
0.0030971539672464
0.0021996186114847
0.0011376307811588
-4.405551590025425e-05
-0.0012835743837058
-0.002512166975066
-0.0036623599007725
-0.0046739093959331
-0.0054992856457829
-0.0061074593104422
-0.00648521957919
-0.0066377520561218
-0.0065871221013367
-0.0063677737489342
-0.006023402325809
-0.0056062317453324
-0.0051725283265113
-0.0047726696357131
-0.0044427621178328
-0.0042016925290226
-0.0040513137355446
-0.0039783446118235
-0.0039576818235218
-0.003955977037549
-0.0039359722286462
-0.0038629211485385
-0.0037114187143743
-0.0034694254864007
-0.0031378443818539
-0.0027273879386484
-0.0022560367360711
-0.0017463006079196
-0.0012208227999508
-0.0006990858819335
-0.0001964375842362
0.0002756018657237
0.0007081801304593
0.001095162006095
0.0014346197713166
0.0017289263196289
0.0019838609732687
0.0022083530202507
0.0024132197722792
0.002608323469758
0.0028007077053189
0.0029950561001896
0.0031939076725393
0.0033955362159758
0.0035932941827923
0.0037789253983646
0.003945727366954
0.0040895054116845
0.0042089084163308
0.0043055051937699
0.0043830340728163
0.0044455830939114
0.004495536442846
0.0045323972590267
0.0045527913607656
0.0045496793463826
0.0045080971904098
0.0044011711142957
0.0041924836114048
0.0038431726861745
0.0033196366857737
0.0026007536798715
0.0016843223711475
0.0005918499082326
-0.0006315212231129
-0.0019235350191593
-0.0032141171395778
-0.0044338922016322
-0.0055210916325449
-0.0064267069101333
-0.0071180411614477
-0.007580233272165
-0.007814610376954
-0.0078359832987189
-0.0076723843812942
-0.0073648397810757
-0.0069632432423532
-0.0065190773457288
-0.0060774660669267
-0.0056712287478148
-0.0053186491131782
-0.0050231269560754
-0.0047740805894136
-0.0045522474683821
-0.0043371738865971
-0.0041098329238593
-0.0038515152409672
-0.0035449194256216
-0.0031770318746566
-0.0027418732643127
-0.0022433386184275
-0.0016953675076365
-0.0011172415688633
-0.0005277218297123
5.785934627056122e-05
0.0006278660148382
0.0011741940397769
0.0016918071778491
0.0021775891073048
0.0026300190947949
0.0030488718766719
0.0034339283592998
0.0037855762057006
0.00410698633641
0.0044042309746146
0.0046848230995237
0.0049559492617845
0.0052217226475477
0.0054811211302876
0.0057286093942821
0.0059558846987783
0.0061530750244855
0.0063110729679465
0.0064254803583025
0.0064983610063791
0.0065365908667445
0.0065495134331285
0.0065465830266475
0.0065347719937562
0.0065172370523214
0.0064944992773234
0.0064662024378776
0.0064292103052139
0.0063722780905663
0.00627161283046
0.0060901874676346
0.0057829534634947
0.0053069037385284
0.0046313577331602
0.0037459330633282
0.0026655064430087
0.0014304373180493
9.997980669140816e-05
-0.0012587560340762
-0.0025799577124416
-0.0038043216336518
-0.0048822425305843
-0.0057761268690228
-0.0064626457169651
-0.0069347131066024
-0.0072014173492789
-0.0072853602468967
-0.0072186780162155
-0.0070390785112977
-0.0067863399162888
-0.0064990008249878
-0.0062107946723699
-0.0059463381767272
-0.0057184677571058
-0.0055294930934906
-0.0053724320605397
-0.0052303927950561
-0.0050787823274731
-0.0048924922011792
-0.0046540256589651
-0.0043566380627453
-0.0040022400207817
-0.0035987517330795
-0.0031573376618325
-0.0026888598222285
-0.00220263376832
-0.0017075829673558
-0.0012130376417189
-0.0007282859878614
-0.0002604104811325
0.000188268488273
0.0006195397581905
0.0010356830898672
0.0014372617006301
0.0018238918855786
0.0021953578107059
0.0025513274595141
0.0028909221291542
0.0032127485610544
0.0035146935842931
0.0037941606715321
0.004048554226756
0.0042748213745653
0.0044692209921777
0.0046281348913908
0.0047491560690104
0.0048322030343115
0.0048811072483658
0.004905343055725
0.0049190716817975
0.0049367994070053
0.0049686422571539
0.0050170812755823
0.005075791850686
0.0051301326602697
0.0051583186723291
0.0051326965913176
0.0050210440531373
0.0047890227288007
0.004404897801578
0.0038457338232547
0.0031030881218612
0.0021873288787901
0.0011283929925411
-2.874131314456463e-05
-0.0012295508058741
-0.002413858892396
-0.0035219336859881
-0.0045033651404082
-0.0053232330828905
-0.0059623746201395
-0.0064148036763072
-0.0066856457851827
-0.0067894677631556
-0.0067481528967618
-0.0065892217680811
-0.0063451821915805
-0.0060516018420457
-0.005742403678596
-0.0054448163136839
-0.0051759425550699
-0.0049407808110117
-0.0047334907576441
-0.0045430059544742
-0.0043583968654274
-0.0041702557355165
-0.0039701196365058
-0.0037500346079468
-0.0035021940711885
-0.0032189728226512
-0.0028937924653291
-0.0025229360908269
-0.0021076693665236
-0.0016552514862269
-0.0011789733543992
-0.0006961303879506
-0.0002219158923253
0.0002359607315156
0.000675507588312
0.0010942438384518
0.0014856300549581
0.0018404182046651
0.0021509791258722
0.0024152393452823
0.0026370529085397
0.0028243875131011
0.0029881477821618
0.0031410134397447
0.0032958171796053
0.0034634007606655
0.0036494780797511
0.0038525920826941
0.0040655997581779
0.0042794225737452
0.0044862437061965
0.0046807643957436
0.0048591108061373
0.0050155245698988
0.0051384773105382
0.0052088578231632
0.0052008368074893
0.0050840517506003
0.0048266747035086
0.0043998467735946
0.0037837638519704
0.002974551403895
0.0019886197987943
0.0008617498679086
-0.0003548226086422
-0.0015988184604793
-0.0028038076125085
-0.0039082015864551
-0.0048613105900585
-0.0056256591342389
-0.0061795036308467
-0.0065196971409022
-0.0066612069495022
-0.0066327336244285
-0.0064710015431046
-0.0062144505791366
-0.0058979499153792
-0.0055515803396701
-0.0052014719694852
-0.0048689050599932
-0.0045675262808799
-0.0043002991005778
-0.004058551043272
-0.0038250284269452
-0.0035801760386675
-0.0033085357863456
-0.0030019325204193
-0.0026580949779599
-0.0022771204821765
-0.0018599866889417
-0.0014100736007094
-0.0009344553109258
-0.0004425037186592
5.603209137916565e-05
0.0005512656643986
0.001033866778016
0.0014975002268329
0.0019404925405979
0.0023650974035263
0.0027747866697609
0.0031702043488621
0.0035465031396597
0.0038957544602453
0.0042124986648559
0.0044963262043893
0.004750563763082
0.0049801473505795
0.0051893778145313
0.0053807431831955
0.0055555696599185
0.0057140467688441
0.0058549861423671
0.0059778518043458
0.0060855587944388
0.0061842552386224
0.0062792608514428
0.0063709816895425
0.0064543094485998
0.0065207947045564
0.0065620215609669
0.0065721850842237
0.0065477155148983
0.0064848070032894
0.0063757165335118
0.0062043922953307
0.0059449784457683
0.005565726198256
0.0050365291535854
0.0043368483893573
0.0034614037722349
0.0024222473148256
0.0012476379051804
-2.097268588840961e-05
-0.0013333022361621
-0.0026358210016041
-0.0038761638570576
-0.0050054234452545
-0.0059813004918396
-0.0067719155922532
-0.0073581663891673
-0.0077354172244668
-0.0079145804047584
-0.0079208826646208
-0.007788979448378
-0.0075554423965513
-0.0072530154138803
-0.0069101527333259
-0.0065539921633899
-0.0062115658074617
-0.0059062913060188
-0.0056521580554544
-0.0054504065774381
-0.0052896882407367
-0.005147888790816
-0.0049965418875217
-0.0048085832968354
-0.0045651597902178
-0.0042574042454361
-0.0038845508825033
-0.0034511531703174
-0.0029644090682268
-0.0024321333039551
-0.001862778677605
-0.0012687896378338
-0.0006695280899293
-8.822453673928976e-05
0.0004543007817119
0.0009427592158317
0.0013682600110769
0.0017303058411926
0.0020370769780129
0.0023012859746813
0.0025355068501085
0.0027506933547556
0.0029565254226326
0.0031604142859578
0.0033651611302047
0.0035693233367055
0.0037708163727074
0.0039683328941464
0.0041595706716179
0.0043405434116721
0.0045060450211167
0.0046499543823301
0.0047672148793935
0.0048566781915724
0.0049212486483156
0.0049652238376438
0.0049917446449398
0.0050017088651657
0.004992835689336
0.0049573858268558
0.0048795500770211
0.0047352695837616
0.0044952537864446
0.0041295420378446
0.0036127078346908
0.0029299422167241
0.0020831683650612
0.001094801351428
6.774207577109337e-06
-0.0011248657247051
-0.002237990964204
-0.003273467766121
-0.0041823382489383
-0.0049292994663119
-0.0054935808293521
-0.0058687310665845
-0.0060613662935793
-0.006088513880968
-0.0059755844995379
-0.0057566482573747
-0.0054731089621782
-0.0051672225818037
-0.0048743891529738
-0.0046185618266463
-0.0044110179878771
-0.0042522754520177
-0.0041346438229084
-0.0040426859632134
-0.0039545996114611
-0.0038472835440188
-0.0037015781272202
-0.0035044781398028
-0.0032491197343915
-0.0029331266414374
-0.0025568346027284
-0.002124601509422
-0.001647749915719
-0.0011446939315646
-0.0006375234224833
-0.0001472748699598
0.0003093863488174
0.0007213339558802
0.0010836733272299
0.001397613203153
0.0016684997826814
0.0019045944791287
0.0021175392903387
0.0023206076584756
0.0025245903525501
0.0027360522653907
0.0029576085507869
0.0031868524383753
0.0034159570932388
0.0036346884444355
0.0038342564366757
0.0040088570676743
0.0041551939211785
0.0042719449847936
0.0043601687066257
0.0044231787323951
0.0044655529782176
0.0044925929978489
0.0045090327039361
0.0045154355466365
0.0045036752708256
0.0044547142460942
0.0043397457338869
0.0041230064816772
0.0037667611613869
0.0032398141920566
0.002526760334149
0.0016341134905815
0.0005916050868108
-0.0005520017584785
-0.0017362085636705
-0.0028959121555089
-0.003968495875597
-0.0049007879570126
-0.0056540998630225
-0.0062072779983282
-0.0065576466731727
-0.0067172246053814
-0.0067052850499749
-0.0065448824316263
-0.0062654605135321
-0.0059041460044682
-0.0055020544677972
-0.0050989273004233
-0.0047278054989874
-0.0044098100624978
-0.0041514821350574
-0.0039463532157242
-0.003778631798923
-0.0036267419345676
-0.0034665688872337
-0.0032755509018898
-0.0030371490865945
-0.0027417922392487
-0.002384259365499
-0.0019628857262432
-0.0014819925418123
-0.0009540927130728
-0.0003992291167378
0.0001588517334312
0.000698126736097
0.0012022957671433
0.0016620180103927
0.0020749713294208
0.0024451517965644
0.0027804223354905
0.0030888286419212
0.003376096021384
0.0036462256684899
0.0039036483503878
0.0041537834331393
0.0044009992852807
0.0046459566801786
0.0048841945827007
0.0051068309694528
0.0053045242093503
0.005471390672028
0.0056046862155199
0.0057030757889151
0.0057661142200231
0.0057938955724239
0.0057877171784639
0.0057522812858223
0.0056969639845192
0.00563400471583
0.0055752573534846
0.0055295396596193
0.0054974993690848
0.0054639535956084
0.0053950073197484
0.0052435030229389
0.0049594510346651
0.0045003644190728
0.0038393419235944
0.0029708659276366
0.0019128238782286
0.0007051774300634
-0.0005929394392296
-0.0019089814741164
-0.0031668082810938
-0.0042977323755621
-0.0052484683692455
-0.0059857778251171
-0.0064993114210665
-0.0068004890345036
-0.006916721817106
-0.0068847965449094
-0.0067457729019224
-0.006540460512042
-0.0063051492907106
-0.0060687200166285
-0.005850919522345
-0.0056614261120557
-0.0055005894973874
-0.005361599382013
-0.0052335211075842
-0.0051038628444075
-0.0049583888612687
-0.0047802776098251
-0.0045528402552008
-0.0042650024406611
-0.0039151548407971
-0.0035102311521768
-0.0030617956072092
-0.002582979388535
-0.002086317166686
-0.0015820448752492
-0.0010779837612062
-0.0005804322427138
-9.491306263953447e-05
0.0003740163519978
0.0008234069100581
0.0012511449167504
0.0016552847810089
0.0020356844179332
0.0023946284782141
0.0027344534173607
0.0030557138379663
0.0033573934342712
0.0036376409698277
0.0038941968232393
0.0041243908926844
0.0043253521434962
0.0044948542490601
0.0046327873133122
0.0047430619597435
0.004833566956222
0.0049122050404548
0.004982944112271
0.0050469459965825
0.0051058293320238
0.0051610763184726
0.0052105537615716
0.0052471673116087
0.0052609015256166
0.0052414736710488
0.0051784547977149
0.0050580417737364
0.0048597045242786
0.0045570656657218
0.0041235806420445
0.0035397899337112
0.0027985111810266
0.0019076731987297
0.0008926845621317
-0.0002033582422882
-0.0013249543262645
-0.0024137264117598
-0.0034176546614617
-0.004295939579606
-0.0050192279741168
-0.0055694920010864
-0.0059411702677607
-0.0061412323266267
-0.006188390776515
-0.0061116712167859
-0.0059462953358888
-0.0057275900617241
-0.0054868580773472
-0.0052506397478282
-0.0050393836572766
-0.0048632780089974
-0.0047198100946843
-0.0045972857624292
-0.0044821794144809
-0.0043647601269185
-0.0042391163296997
-0.0040994887240231
-0.0039385617710649
-0.0037486215587705
-0.0035217648837715
-0.0032487763091921
-0.0029205763712525
-0.0025330050848424
-0.0020904666744172
-0.001605782425031
-0.0010974471224471
-0.0005854941555298
-8.708605309948325e-05
0.0003857600968331
0.0008251182734966
0.0012256200425326
0.001585062011145
0.0019057979807257
0.00219447305426
0.0024600308388471
0.0027116439305245
0.0029563764110207
0.0031964993104338
0.0034291958436369
0.0036490354686975
0.0038504502736032
0.0040298975072801
0.0041876421310007
0.0043261758983135
0.0044459849596023
0.0045444727875292
0.0046192463487386
0.0046708239242434
0.0047022476792335
0.0047162482514977
0.0047105862759053
0.0046739280223846
0.004583986941725
0.0044083315879106
0.0041102119721472
0.0036584658082574
0.0030364159028977
0.0022470059338957
0.0013140223454684
0.0002798826899379
-0.0008002134854905
-0.001866893726401
-0.0028643116820603
-0.0037454981356859
-0.0044764364138245
-0.0050374800339341
-0.0054218959994614
-0.0056346971541643
-0.0056915576569736
-0.0056155738420784
-0.0054342835210263
-0.0051791965961456
-0.004883823916316
-0.0045776641927659
-0.0042807916179299
-0.0040031312964856
-0.0037473805714398
-0.0035123836714774
-0.003294663503766
-0.0030882298015058
-0.0028841830790042
-0.0026714797131717
-0.0024388548918068
-0.0021771462634205
-0.001881310949102
-0.0015514694387093
-0.001192977069877
-0.0008149407804012
-0.0004269864875823
-3.617582842707634e-05
0.0003543476341292
0.0007444067159667
0.001133833779022
0.0015201742062345
0.0018991131801158
0.0022655243519693
0.0026128974277526
0.0029331604018807
0.0032194810919463
0.003469699062407
0.0036869081668555
0.0038784572388976
0.0040546432137489
0.0042256703600287
0.0043979394249618
0.0045724338851869
0.0047457767650485
0.0049126013182103
0.0050671589560806
0.0052033294923603
0.0053146090358495
0.0053949328139424
0.0054398323409259
0.0054478207603096
0.0054210275411605
0.005364314187318
0.0052838400006294
0.0051854695193469
0.0050722993910312
0.0049409344792366
0.004778005182743
0.0045598689466714
0.0042565762996673
0.0038381239864975
0.0032800727058202
0.0025670414324849
0.0016952615696936
0.0006759972311556
-0.0004605455324053
-0.001664652954787
-0.0028746083844453
-0.0040290784090757
-0.0050757033750414
-0.0059740599244832
-0.0066964109428226
-0.007228017784655
-0.007566784042865
-0.0077220043167471
-0.0077127874828875
-0.0075663486495614
-0.0073163951747119
-0.0070014889352023
-0.0066614849492907
-0.0063313744030892
-0.0060360147617757
-0.005788343027234
-0.0055889119394123
-0.0054267309606075
-0.0052834250964224
-0.0051380265504121
-0.0049704262055456
-0.0047645913437008
-0.0045102681033313
-0.0042022201232612
-0.0038383188657462
-0.0034184451214969
-0.0029466196428984
-0.0024342918768525
-0.0018990458920598
-0.0013591722818091
-0.0008295620791614
-0.0003204533131793
0.0001626865705475
0.0006183175719343
0.0010472735157236
0.0014518917305395
0.0018355802167207
0.0022016782313585
0.00255216518417
0.0028876718133687
0.0032082116231322
0.0035125017166137
0.0037961672060191
0.0040519060567021
0.0042721885256469
0.004451741464436
0.0045894682407379
0.0046903286129236
0.0047649354673922
0.0048258192837238
0.0048824567347764
0.0049385223537683
0.0049939514137804
0.0050489315763115
0.0051040849648416
0.0051584509201347
0.0052094464190304
0.0052511096000671
0.0052681327797472
0.0052320822142064
0.0051046395674347
0.0048454310745
0.0044208304025232
0.0038114106282591
0.0030167701188474
0.0020574619993567
0.0009733596816658
-0.0001810231478884
-0.001343386247754
-0.0024524698965251
-0.0034554458688944
-0.0043112048879265
-0.0049916403368115
-0.0054822582751512
-0.005781992804259
-0.0059022889472544
-0.0058645913377404
-0.005697620101273
-0.0054367277771234
-0.0051221456378698
-0.0047931154258549
-0.004481756594032
-0.0042102797888219
-0.0039910096675157
-0.0038272030651569
-0.0037133852019906
-0.0036359094083309
-0.0035745804198086
-0.0035053421743214
-0.0034038184676319
-0.0032497791107743
-0.0030316039919853
-0.0027474137023091
-0.0024024848826229
-0.0020071866456419
-0.0015755771892145
-0.001122034387663
-0.0006584071088582
-0.0001947786659002
0.0002580820582807
0.0006894172402098
0.0010927722323685
0.0014672034885734
0.0018134138081222
0.0021311102900654
0.0024200056213885
0.0026813731528818
0.0029185991734266
0.0031371288932859
0.0033432156778872
0.0035411515273153
0.0037313299253582
0.0039112693630158
0.0040786955505609
0.0042340662330389
0.0043800538405776
0.0045180544257164
0.0046452432870864
0.0047547556459903
0.0048388545401394
0.0048932693898677
0.0049174642190337
0.0049075591377913
0.0048481160774827
0.0047113634645938
0.0044639026746153
0.0040746438317
0.0035209958441555
0.0027950056828558
0.0019083404913544
0.0008922686101868
-0.0002070007612928
-0.001334945554845
-0.0024358967784792
-0.0034585017710924
-0.0043581686913967
-0.0050984276458621
-0.0056542879901826
-0.0060166846960783
-0.0061934902332723
-0.0062070796266198
-0.0060906345024704
-0.0058824005536735
-0.0056192227639257
-0.005332501605153
-0.0050465282984077
-0.0047770510427653
-0.0045304833911359
-0.0043060444295406
-0.0040991813875734
-0.0039028723258525
-0.0037073511630296
-0.0035003253724426
-0.0032678400166332
-0.0029962020926177
-0.0026759696193039
-0.0023049162700772
-0.0018866874743252
-0.0014279828174039
-0.000937677337788
-0.0004273017402738
8.90200026333332e-05
0.0005959258414804
0.0010787857463583
0.0015256474725902
0.0019293274963274
0.0022886369843035
0.0026077802758663
0.0028951885178685
0.0031618513166904
0.0034179866779595
0.0036696968600153
0.0039179259911179
0.0041596102528274
0.0043903402984142
0.0046074753627181
0.0048111118376255
0.0050017749890685
0.005177991464734
0.0053368024528026
0.0054755727760493
0.0055919745936989
0.0056823366321623
0.0057424586266279
0.0057726134546101
0.0057800416834652
0.0057738195173442
0.0057582161389291
0.0057306010276079
0.0056820488534867
0.0055980398319661
0.0054573607631027
0.0052299993112683
0.0048796292394399
0.004371247254312
0.0036790685262531
0.0027930601499974
0.0017238550353795
0.0005043952260166
-0.0008124487940222
-0.0021596211008727
-0.0034645509440451
-0.0046600769273936
-0.0056935781612992
-0.0065303589217364
-0.0071534048765897
-0.0075628915801644
-0.0077748135663568
-0.0078172823414206
-0.0077250720933079
-0.0075347758829593
-0.0072821993380784
-0.0070004072040319
-0.006716757081449
-0.0064503834582865
-0.0062105800025165
-0.0059954295866191
-0.0057928687892854
-0.0055853431113064
-0.0053561003878712
-0.0050942725501954
-0.0047956192865967
-0.0044594970531761
-0.0040869805961847
-0.0036815227940678
-0.0032486082054674
-0.0027937644626945
-0.0023214581888169
-0.0018356611253693
-0.0013414031127467
-0.0008456512587144
-0.0003554068971425
0.0001254364615306
0.000596153200604
0.0010561232920736
0.0015025897882878
0.0019307156326249
0.0023345404770225
0.002708145417273
0.0030478609260171
0.0033546539489179
0.0036331457085907
0.0038875485770404
0.004120020661503
0.0043328925967216
0.0045295944437384
0.0047121415846049
0.004880167543888
0.0050335563719272
0.0051736729219555
0.0053013553842902
0.0054154484532773
0.0055133714340627
0.0055922074243426
0.0056497980840504
0.0056856675073504
0.0057004657573997
0.0056941853836178
0.005663878750056
0.0056003155186772
0.0054856715723872
0.0052945502102375
0.0049972077831625
0.0045649809762835
0.0039778430946171
0.0032300332095474
0.0023308023810386
0.0013025548541918
0.0001800856553018
-0.0009902359452098
-0.0021556534338742
-0.0032652090303599
-0.0042747356928884
-0.0051468657329678
-0.0058506801724433
-0.0063646156340837
-0.0066806599497795
-0.006806737743318
-0.0067659877240657
-0.0065932269208133
-0.0063298889435827
-0.0060186590999364
-0.00569918891415
-0.0054044933058321
-0.0051568550989031
-0.0049651600420475
-0.0048254956491291
-0.0047231339849531
-0.0046346690505743
-0.0045326119288802
-0.0043925484642386
-0.004198302514851
-0.0039425618015229
-0.0036246485542505
-0.0032473236788064
-0.0028150286525487
-0.0023348617833107
-0.0018182138446718
-0.0012816441012546
-0.0007459055632352
-0.000232302933
0.0002415679045952
0.0006650883005931
0.0010368581861257
0.0013650180771946
0.0016636392101645
0.0019457233138382
0.0022182357497513
0.0024829846806824
0.0027400013059377
0.002988914726302
0.0032300984021276
0.0034672147594392
0.003706828225404
0.0039533013477921
0.0042034210637211
0.0044456124305725
0.0046643489040434
0.0048463074490427
0.0049849934875965
0.005081451497972
0.0051408424042165
0.0051694940775632
0.0051744566299021
0.0051606195047497
0.0051230723038315
0.0050404514186084
0.004876933991909
0.0045930533669888
0.0041566551662981
0.0035477471537888
0.0027611192781478
0.0018106736242771
0.0007312335073947
-0.0004255875246599
-0.0015988589730113
-0.0027259974740445
-0.0037491284310817
-0.0046198558993637
-0.0053035584278404
-0.0057838032953441
-0.0060637928545475
-0.0061621330678462
-0.0061066234484314
-0.0059298472478985
-0.0056661693379282
-0.0053503662347793
-0.005016625393182
-0.0046947263181209
-0.0044049024581909
-0.0041560209356248
-0.0039473492652177
-0.0037707590963691
-0.0036120302975177
-0.0034521194174885
-0.0032700258307158
-0.0030468963086605
-0.0027698529884219
-0.0024347703438252
-0.0020453804172575
-0.0016086432151496
-0.0011323899962008
-0.0006283582188189
-0.0001149515155702
0.0003861958393827
0.0008570773061364
0.0012875756947323
0.0016755203250795
0.0020242212340235
0.0023400171194225
0.0026308314409106
0.0029041511006653
0.0031644098926335
0.0034120860509574
0.003645776072517
0.0038658236153423
0.0040760179981589
0.0042816125787794
0.0044856271706521
0.0046864980831742
0.0048778406344354
0.0050496659241616
0.0051919682882726
0.0052993465214967
0.0053719379939138
0.0054127988405525
0.0054262825287878
0.0054178875871002
0.0053932787850499
0.0053571690805256
0.0053127668797969
0.0052599771879613
0.0051924949511885
0.0050950511358678
0.0049408762715756
0.0046915193088352
0.0043019414879381
0.0037309736944735
0.0029542646370828
0.0019740259740501
0.0008207445498555
-0.0004525044932961
-0.00177940831054
-0.0030900544952601
-0.0043187788687646
-0.0054101832211017
-0.0063237454742193
-0.0070358524098992
-0.0075382003560662
-0.0078348172828555
-0.0079409871250391
-0.0078826127573847
-0.0076930145733058
-0.0074091162532567
-0.0070689534768462
-0.0067088566720485
-0.0063598519191145
-0.0060441899113357
-0.0057726581580936
-0.0055438447743654
-0.0053462535142898
-0.0051624970510602
-0.0049730641767382
-0.004758586641401
-0.0045016333460807
-0.0041881380602717
-0.0038089612498879
-0.0033623967319726
-0.0028554601594805
-0.0023022224195301
-0.0017209021607413
-0.0011317672906443
-0.0005554743111133
-9.844196029007437e-06
0.0004945384571328
0.0009559720056131
0.0013785962946712
0.0017689153319224
0.0021350756287574
0.0024859707336872
0.0028294173534959
0.0031705247238278
0.0035086048301309
0.0038356250151991
0.004140730947256
0.0044164708815515
0.0046603698283433
0.0048719034530222
0.0050493557937443
0.005191059783101
0.0052994298748672
0.0053820852190256
0.0054486552253365
0.0055065006017684
0.0055587599053978
0.0056059565395116
0.005648800637573
0.0056876889429986
0.0057193669490516
0.0057348194532096
0.0057179168798029
0.0056438576430082
0.0054795481264591
0.0051870360039174
0.0047302055172622
0.0040837870910763
0.0032416307367384
0.0022218795493245
0.0010672726202756
-0.0001611325424164
-0.0013947132974863
-0.0025674330536276
-0.0036225940566509
-0.0045168604701757
-0.0052234744653105
-0.0057337139733135
-0.0060540223494172
-0.0062014395371079
-0.0062013464048504
-0.0060858414508402
-0.0058905086480081
-0.005651285406202
-0.0054019410163164
-0.0051707769744098
-0.0049774823710322
-0.0048309508711099
-0.0047280071303248
-0.0046544452197849
-0.0045882314443588
-0.0045036175288259
-0.0043764649890363
-0.0041896449401974
-0.0039361519739031
-0.0036192182451486
-0.0032489944715052
-0.002837442792952
-0.0023960666730999
-0.0019368545617908
-0.0014724377542734
-0.0010143758263438
-0.0005707604577764
-0.0001444085501134
0.0002662259503267
0.0006641243235208
0.0010520796058699
0.0014330288395285
0.001809783745557
0.0021821956615895
0.0025449867825955
0.0028896462172269
0.0032077911309897
0.0034935884177684
0.0037446324713528
0.0039609265513718
0.004144134465605
0.0042983000166714
0.0044305399060249
0.0045496192760765
0.0046620396897196
0.0047698230482637
0.0048734624870121
0.0049754166975617
0.0050767930224537
0.0051697320304811
0.0052346470765769
0.0052425530739128
0.0051578101702034
0.0049423277378082
0.0045619225129485
0.0039928425103425
0.0032276278361678
0.0022792415693402
0.0011814414756372
-1.4821183867752552e-05
-0.0012462567538022
-0.0024428663309663
-0.0035359340254217
-0.0044668735936284
-0.0051952404901385
-0.0057035963982343
-0.0059961765073239
-0.006093252915889
-0.0060254200361669
-0.0058297701179981
-0.0055470787920057
-0.00521817849949
-0.0048795025795698
-0.0045592556707561
-0.004275029990822
-0.004033061210066
-0.0038297995924949
-0.0036549533251672
-0.0034938724711537
-0.003329356200993
-0.0031452602706849
-0.002930891001597
-0.0026815561577677
-0.0023958662059158
-0.0020745752844959
-0.0017213491955772
-0.00134242256172
-0.0009441610891371
-0.0005309912376105
-0.0001064128009602
0.0003246867563575
0.0007556625059805
0.0011788939591497
0.0015871791401878
0.0019770404323935
0.0023506293073296
0.0027116215787827
0.003058843081817
0.0033848672173917
0.0036796804051846
0.0039349417202174
0.0041466043330729
0.0043160840868949
0.004449610132724
0.0045552579686045
0.0046399775892496
0.0047086915001273
0.0047650136984884
0.0048127369955182
0.0048563904128968
0.0049008121713995
0.0049506733193993
0.0050080833025276
0.005069681443274
0.0051280795596539
0.0051758619956672
0.0052052736282348
0.005202580243349
0.0051436657086014
0.0049954196438193
0.004721151664853
0.0042874417267739
0.0036709057167172
0.0028638853691518
0.0018787533044815
0.0007489863783121
-0.0004749742802232
-0.001733025885187
-0.0029629764612764
-0.0041080783121287
-0.005122844595462
-0.0059754736721515
-0.0066486131399869
-0.0071390490047633
-0.0074551389552652
-0.0076132258400321
-0.0076344907283782
-0.0075427824631333
-0.0073640551418066
-0.0071252780035138
-0.006851153448224
-0.0065613598562777
-0.0062694991938769
-0.0059826956130564
-0.0057029025629162
-0.0054289754480123
-0.0051571410149335
-0.0048817065544426
-0.0045971092768013
-0.0042990390211343
-0.0039843646809458
-0.0036511558573693
-0.0032983953133225
-0.0029248520731925
-0.0025283708237111
-0.0021071452647447
-0.0016618445515632
-0.0011954505462199
-0.0007105660624802
-0.0002084898296743
0.0003072244580835
0.0008272003033198
0.0013377793366089
0.0018255593022331
0.0022801563609391
0.0026941657997667
0.003062366740778
0.0033816234208643
0.0036514117382466
0.0038751112297177
0.0040612332522869
0.0042219879105687
0.0043696537613868
0.0045140595175325
0.0046621556393802
0.0048186867497861
0.0049856156110763
0.0051601291634142
0.0053348746150732
0.0054993298836052
0.0056402757763862
0.0057444153353571
0.0058026043698191
0.0058125830255448
0.0057796025648713
0.0057141729630529
0.0056269713677465
0.0055230474099516
0.0053974287584424
0.0052334973588585
0.005004852078855
0.0046801338903605
0.0042288824915885
0.0036267922259867
0.0028607877902686
0.0019341751467436
0.0008702180348336
-0.0002887567970901
-0.0014875530032441
-0.0026661853771656
-0.0037673790939152
-0.004742638207972
-0.005555179901421
-0.0061806309968233
-0.0066075604408979
-0.0068376790732145
-0.0068855285644531
-0.0067780725657939
-0.0065532978624105
-0.0062556499615311
-0.0059287883341312
-0.0056103630922734
-0.0053304894827306
-0.005109753459692
-0.0049553848803043
-0.0048598665744066
-0.00480378838256
-0.0047603864222764
-0.0047005275264382
-0.0045983297750353
-0.0044353329576551
-0.0042008939199149
-0.0038900559302419
-0.0035025305114686
-0.0030448280740529
-0.0025321911089122
-0.0019860155880451
-0.0014286984223872
-0.0008801963413134
-0.0003567949170246
0.0001295616384595
0.0005718795000575
0.0009681590599939
0.0013205728027969
0.0016342274611815
0.001916154869832
0.0021745138801634
0.0024178070016205
0.0026550684124231
0.0028965340461581
0.0031509273685514
0.0034199596848338
0.003696116618812
0.0039655501022934
0.0042135142721235
0.0044292211532592
0.0046068998053669
0.0047437995672225
0.0048392484895884
0.0048955800011754
0.004919103346765
0.0049197231419384
0.0049076620489358
0.0048877676017582
0.0048548839986324
0.0047917505726218
0.0046680178493261
0.0044428147375583
0.004075129982084
0.0035368977114558
0.0028198999352753
0.0019372995011508
0.00092367088655
-0.0001679268316365
-0.0012733680196106
-0.0023268419317901
-0.0032689950894564
-0.0040537370368838
-0.0046530901454389
-0.0050568887963891
-0.0052677346393466
-0.0052970824763178
-0.0051662372425198
-0.004908830858767
-0.004569187760353
-0.0041952738538384
-0.0038304971531033
-0.0035084187984466
-0.0032494598999619
-0.0030599795281887
-0.0029348018579185
-0.0028593419119715
-0.0028104637749493
-0.0027599846944212
-0.0026809219270944
-0.0025528585538268
-0.0023632415104657
-0.0021051047369837
-0.001776399440132
-0.0013828225200995
-0.0009391185594722
-0.0004666812019422
9.774928912520409e-06
0.0004663547733798
0.0008851588354445
0.0012575280852615
0.0015840448904782
0.001871979678981
0.0021308748982846
0.0023691940587013
0.002593851648271
0.0028108421247452
0.0030259871855378
0.0032446822151541
0.0034692860208451
0.0036963480524718
0.0039168950170278
0.0041196388192474
0.0042951237410306
0.0044390829280018
0.0045525594614446
0.0046387398615479
0.0047003058716654
0.0047396542504429
0.0047604367136955
0.0047667892649769
0.0047588795423507
0.0047279219143092
0.0046532754786312
0.0045026475563645
0.0042361649684607
0.0038131461478769
0.0032010192517191
0.0023850481957197
0.0013748494675382
0.0002053056377917
-0.0010680941632017
-0.0023776434827595
-0.0036520683206617
-0.004823638126254
-0.005835105665028
-0.0066460957750678
-0.0072352667339146
-0.007598633877933
-0.0077474620193243
-0.00770572014153
-0.0075065675191581
-0.0071886302903294
-0.0067934598773717
-0.0063638584688305
-0.0059393770061433
-0.0055495160631835
-0.0052102366462349
-0.0049245981499552
-0.0046842936426401
-0.0044730613008141
-0.0042724423110485
-0.0040646130219101
-0.0038316114805638
-0.0035558477975428
-0.0032218089327216
-0.0028176123742014
-0.0023386764805763
-0.0017924068961292
-0.0011981017887592
-0.000580956460908
3.427802585065365e-05
0.0006266026757657
0.0011803518282249
0.0016859900206327
0.0021398104727268
0.0025432163383811
0.0029026446864008
0.0032291086390614
0.0035356460139155
0.0038337637670338
0.004131743684411
0.0044342107139527
0.0047397385351359
0.0050387657247483
0.0053167175501585
0.005560384131968
0.005761794745922
0.0059181787073612
0.0060310345143079
0.0061063785105943
