bvp
-0.0081305364146828
-0.00791238527745
-0.0075212335214018
-0.0070168059319257
-0.0064578936435282
-0.0058969799429178
-0.00537636782974
-0.0049250801093876
-0.0045571294613182
-0.0042714471928775
-0.0040531535632908
-0.0038763869088143
-0.0037079805042594
-0.0035132826305925
-0.003265923121944
-0.0029543919954448
-0.0025793695822358
-0.0021489677019417
-0.0016768618952482
-0.0011790600838139
-0.0006692901370115
-0.0001572238979861
0.0003505917266011
0.0008491385960951
0.0013333971146494
0.0017977196257561
0.0022361965384334
0.0026434636674821
0.0030162297189235
0.0033541303128004
0.0036576164420694
0.0039256084710359
0.0041563501581549
0.0043496685102581
0.004507980775088
0.0046350681222975
0.0047341012395918
0.0048069744370877
0.0048544015735387
0.0048771980218589
0.0048789833672344
0.0048671592958271
0.0048502474091947
0.0048346575349569
0.0048253764398396
0.0048264139331877
0.0048337243497371
0.0048265773802995
0.0047671226784586
0.0046071908436715
0.0042967018671333
0.0037906919606029
0.0030559878796339
0.002079521305859
0.0008764601079747
-0.0005063815042376
-0.0019955011084675
-0.0035032462328672
-0.0049407100304961
-0.0062250653281807
-0.007284190505743
-0.0080637568607926
-0.008536297827959
-0.0087061421945691
-0.0086052548140287
-0.0082836020737886
-0.007800446357578
-0.0072178831323981
-0.0065954569727182
-0.005985006224364
-0.0054252939298748
-0.0049381512217223
-0.0045290985144674
-0.0041914484463632
-0.0039097908884286
-0.0036625410430133
-0.0034247739240527
-0.0031706115696579
-0.0028764787130057
-0.0025252061896026
-0.0021079243160784
-0.0016242278506979
-0.0010817104484885
-0.0004937138874083
0.0001240377314388
0.0007563844555988
0.0013899739133194
0.0020121936686336
0.0026101518888026
0.0031716437079012
0.0036868518218398
0.0041499212384223
0.0045599327422678
0.0049197850748896
0.0052332608029246
0.0055029857903718
0.0057310448028147
0.005919808987528
0.0060700206086039
0.0061790561303496
0.0062429597601294
0.0062600988894701
0.0062334449030458
0.0061706593260169
0.0060815205797553
0.0059749139472842
0.0058581354096531
0.0057377899065613
0.0056214639917016
0.005518062505871
0.0054339552298188
0.0053684902377426
0.0053142360411584
0.0052604908123612
0.0051952232606709
0.0051036719232797
0.0049647465348243
0.0047480771318078
0.0044148215092718
0.0039221681654453
0.0032304164487868
0.0023128998000174
0.0011663713958114
-0.0001824235077947
-0.0016760573489591
-0.0032333724666386
-0.0047641489654779
-0.0061844806186854
-0.0074257869273424
-0.0084382658824324
-0.0091917254030704
-0.0096752410754561
-0.0098967496305704
-0.0098816789686679
-0.0096688820049166
-0.0093043697997927
-0.0088354917243123
-0.008306922391057
-0.0077577186748385
-0.0072192116640508
-0.0067135412245988
-0.0062520555220544
-0.0058349496684968
-0.0054543679580092
-0.0050986665301024
-0.0047548590227961
-0.004410286899656
-0.0040532220155
-0.0036718854680657
-0.0032550916075706
-0.0027955640107393
-0.0022927727550268
-0.0017527309246361
-0.0011846473207697
-0.0005969177000224
4.113651812076569e-06
0.0006126934313215
0.0012222856748849
0.0018245537066832
0.0024080106522887
0.0029574837535619
0.0034554444719105
0.0038859606720507
0.004240175243467
0.0045187110081315
0.0047293063253164
0.004883908201009
0.0049975579604506
0.0050862985663115
0.0051629645749926
0.0052347593009471
0.0053054010495543
0.0053789778612554
0.0054603037424385
0.0055503756739199
0.0056420466862618
0.0057209320366382
0.0057710306718945
0.0057817799970507
0.0057513178326189
0.0056837904267013
0.0055852625519037
0.0054605714976787
0.0053103622049093
0.0051289270631968
0.0049018240533769
0.0046028373762965
0.0041943914256989
0.0036359790246933
0.0028972586151212
0.0019659171812236
0.0008490276522934
-0.0004253392107784
-0.0018072901293635
-0.0032294788397848
-0.0046150088310241
-0.0058866189792752
-0.0069756880402565
-0.0078293262049555
-0.0084163360297679
-0.0087306573987007
-0.0087884245440363
-0.0086217392235994
-0.0082735586911439
-0.007792086340487
-0.0072261453606188
-0.0066239996813237
-0.0060324347577989
-0.0054929857142269
-0.0050352364778518
-0.0046713389456272
-0.0043961410410702
-0.0041909725405275
-0.0040284595452249
-0.0038771971594542
-0.0037042750045657
-0.0034780013374984
-0.0031741317361593
-0.0027817517984658
-0.0023038955405354
-0.0017539373366162
-0.0011505397269502
-0.0005136798135936
0.0001360344467684
0.0007765849586576
0.0013857039157301
0.0019450789550319
0.0024450628552585
0.0028850988019257
0.0032697001006454
0.0036042782012373
0.0038933297619223
0.0041403928771615
0.0043488172814249
0.0045226970687508
0.0046671922318637
0.0047897971235215
0.0049012550152838
0.005010874941945
0.0051200119778513
0.0052221002988517
0.00530770374462
0.0053687999024987
0.0054006511345505
0.0054021533578634
0.0053760414011776
0.005327621474862
0.0052585806697607
0.0051578455604612
0.0049971775151789
0.0047358409501612
0.0043314285576343
0.0037509039975702
0.0029774559661746
0.0020130746997892
0.0008800195646472
-0.0003788474132306
-0.0017030711751431
-0.0030201834160834
-0.0042535625398159
-0.0053320550359785
-0.0061981482431292
-0.0068133007735013
-0.0071610510349273
-0.0072479294613003
-0.0071012000553309
-0.0067633441649377
-0.0062854727730154
-0.0057204323820769
-0.0051163895986974
-0.0045146425254642
-0.0039508398622274
-0.0034540484193712
-0.0030430550687015
-0.0027235778979957
-0.0024881886783987
-0.002317807637155
-0.0021840366534888
-0.0020532165654003
-0.0018919213907793
-0.0016726690810173
-0.001378123415634
-0.00100278633181
-0.0005526050226762
-4.154455382376909e-05
0.0005130845820531
0.0010920392815023
0.0016736078541725
0.0022346365731209
0.0027531918603926
0.0032119003590196
0.0036008050665259
0.0039186966605484
0.0041718482971191
0.0043704803101718
0.004526044242084
0.0046504130586981
0.0047543784603476
0.0048451405018568
0.0049264598637819
0.005002299323678
0.0050788074731826
0.0051606935448944
0.0052462229505181
0.0053271679207682
0.0053923241794109
0.0054298462346196
0.0054286057129502
0.0053805708885192
0.0052831335924565
0.0051393830217421
0.0049563790671527
0.0047412854619324
0.0044956654310226
0.0042110155336558
0.003866784274578
0.0034308372996747
0.0028635850176215
0.0021249207202345
0.0011834993492811
2.8925715014338493e-05
-0.0013182553229853
-0.0028055752627551
-0.0043556648306548
-0.0058769974857568
-0.0072770840488374
-0.0084756463766098
-0.0094134388491511
-0.0100560933351516
-0.0103945191949605
-0.0104423258453607
-0.0102315600961446
-0.0098078846931457
-0.0092257484793663
-0.0085444105789065
-0.007823416031897
-0.0071154795587062
-0.0064597413875162
-0.0058796880766749
-0.0053839893080294
-0.0049677193164825
-0.0046146907843649
-0.0043007731437683
-0.0039975484833121
-0.0036759476643055
-0.0033106552436947
-0.0028856240678578
-0.00239650439471
-0.0018467699410393
-0.0012419605627655
-0.0005893027409911
9.74860740825534e-05
0.0007961000083014
0.0014798925258219
0.0021239530760794
0.0027087384369224
0.0032212175428867
0.0036547933705151
0.0040091397240757
0.0042905556038022
0.0045115603134036
0.0046883784234523
0.0048379441723227
0.0049764276482164
0.0051185390911996
0.0052757794037461
0.0054535125382244
0.0056495051831007
0.0058548627421259
0.0060554151423275
0.0062337690033018
0.0063728047534823
0.0064594466239213
0.0064873099327087
0.0064569823443889
0.006374692544341
0.00625173561275
0.0061032110825181
0.0059434436261653
0.005780769046396
0.0056143486872315
0.0054301391355693
0.0051952661015093
0.0048576416447758
0.0043550990521907
0.0036302718799561
0.0026471493765711
0.0014047506265342
-5.8276113122701645e-05
-0.0016688429750502
-0.0033302120864391
-0.0049354322254657
-0.0063828420825302
-0.0075912526808679
-0.0085085276514291
-0.0091112041845917
-0.0093995314091444
-0.0093930345028638
-0.0091289281845092
-0.0086603518575429
-0.0080512892454862
-0.0073698847554624
-0.0066810972057282
-0.006039070431143
-0.005481410305947
-0.0050264289602637
-0.0046737818047404
-0.0044075883924961
-0.0042003653943538
-0.0040186503902077
-0.0038293688558042
-0.003603586461395
-0.0033179805614054
-0.0029563410207629
-0.0025117783807218
-0.0019879061728715
-0.0013970456784591
-0.000757816596888
-9.401259012520312e-05
0.0005678734742105
0.001203391700983
0.0017944748979061
0.0023304990027099
0.0028064837679266
0.0032216862309724
0.0035795369185507
0.0038875588215887
0.0041562290862202
0.0043970746919512
0.0046205366961658
0.0048331366851925
0.0050350702367722
0.0052203210070729
0.0053799571469426
0.0055066826753318
0.0055972514674067
0.0056522833183407
0.0056747668422758
0.0056683765724301
0.0056366114877164
0.0055825300514698
0.0055103916674852
0.0054283756762743
0.0053466740064322
0.0052713588811457
0.0051983324810862
0.0051064658910036
0.0049534747377038
0.0046814964152872
0.0042297253385186
0.0035481115337461
0.0026094494387507
0.0014174575917422
1.0220799595117567e-05
-0.0015406421152874
-0.003137151710689
-0.0046700313687324
-0.0060375249013304
-0.0071592796593904
-0.007980833761394
-0.0084725944325327
-0.0086301313713192
-0.008477427996695
-0.0080667519941926
-0.0074697295203804
-0.006763762794435
-0.0060219718143343
-0.0053080478683114
-0.0046718325465917
-0.00414505507797
-0.0037400475703179
-0.0034515843726694
-0.0032602432183921
-0.0031374092213809
-0.0030506264884024
-0.0029658945277333
-0.0028483122587203
-0.0026658573187887
-0.0023962236009538
-0.0020316271111369
-0.0015782717382535
-0.0010520960204303
-0.0004735280526801
0.0001365632051602
0.0007580937817692
0.0013711361680179
0.0019556554034352
0.0024932431988418
0.0029698610305786
0.0033768496941775
0.0037109428085386
0.0039755320176482
0.0041816751472651
0.0043456186540424
0.0044838031753897
0.0046082539483904
0.0047234836965799
0.0048272991552948
0.0049152276478707
0.004983608610928
0.0050299228169023
0.0050524529069662
0.0050498875789344
0.0050217392854392
0.0049701430834829
0.0049010720103979
0.0048233163543045
0.0047461213544011
0.004677748773247
0.0046240705996751
0.0045846365392208
0.0045488215982913
0.004494544584304
0.0043885856866836
0.0041887271218001
0.0038465037941932
0.0033110633958131
0.0025388738140463
0.0015072971582412
0.000223766779527
-0.0012716278433799
-0.0029085078276693
-0.0045945574529469
-0.0062281368300318
-0.0077107995748519
-0.0089585911482572
-0.0099109886214137
-0.0105354646220803
-0.0108283720910549
-0.0108133684843778
-0.010536721907556
-0.0100592384114861
-0.0094465166330337
-0.0087605137377977
-0.0080551244318485
-0.0073747485876083
-0.0067522143945097
-0.0062052751891314
-0.005735513754189
-0.0053322440944612
-0.0049772742204368
-0.0046472628600895
-0.0043173804879188
-0.0039671156555414
-0.0035825134254992
-0.0031537101604044
-0.0026730268727988
-0.0021358123049139
-0.0015422862488776
-0.000899493927136
-0.0002218596637248
0.0004709830973297
0.0011573623633012
0.0018175018485635
0.0024386241566389
0.003017378039658
0.0035576438531279
0.0040657520294189
0.0045445086434483
0.0049889255315065
0.005387230310589
0.0057267006486654
0.0060003381222486
0.0062098782509565
0.0063635520637035
0.0064717200584709
0.0065437122248113
0.0065865777432918
0.0066061783581972
0.0066088316962122
0.0066003073006868
0.0065838885493576
0.0065612928010523
0.0065348241478204
0.0065062260255217
0.0064735412597656
0.0064312051981687
0.0063737570308148
0.0062975296750664
0.0061953356489539
0.0060483771376311
0.0058242734521627
0.0054816859774291
0.0049775377847254
0.0042763417586684
0.0033587752841413
0.0022258926182985
0.0009022863814607
-0.000560465385206
-0.0020868820138275
-0.0035902981180697
-0.0049881092272698
-0.006211900152266
-0.0072119375690817
-0.0079586058855056
-0.0084427539259195
-0.0086750639602541
-0.0086822425946593
-0.0085008572787046
-0.008172670379281
-0.0077415774576365
-0.0072493799962103
-0.0067307432182133
-0.0062109418213367
-0.0057074911892414
-0.0052327495068311
-0.0047954497858881
-0.0044012865982949
-0.0040522650815546
-0.0037449747323989
-0.0034693414345383
-0.003208257490769
-0.0029383078217506
-0.0026341846678406
-0.0022762699518352
-0.001855059992522
-0.0013699240516871
-0.0008265720680356
-0.0002362056402489
0.000385871506296
0.0010240892879664
0.0016643295530229
0.0022901569027453
0.0028797804843634
0.0034088736865669
0.0038561036344617
0.0042078136466443
0.0044609629549086
0.0046240971423685
0.0047157108783721
0.0047597689554095
0.004781087860465
0.0048018968664109
0.0048376568593084
0.0048938235267996
0.0049675838090479
0.0050536333583295
0.0051479171961545
0.0052453144453465
0.0053361412137746
0.0054076570086181
0.00544766895473
0.0054450868628919
0.0053875525481998
0.0052585792727768
0.0050358148291707
0.0046918140724301
0.004198043141514
0.0035305111669003
0.0026756401639431
0.0016360725276172
0.0004357342841103
-0.0008771128486841
-0.0022327599581331
-0.0035510882735252
-0.0047553614713251
-0.0057826312258839
-0.0065898513421416
-0.0071553299203515
-0.0074752396903932
-0.0075595844537019
-0.0074315695092082
-0.007127528078854
-0.0066938875243067
-0.0061818463727831
-0.0056404466740787
-0.0051098875701427
-0.00461913831532
-0.0041865967214107
-0.0038193636573851
-0.0035132193006575
-0.0032570473849773
-0.0030375295318663
-0.002838873071596
-0.002641390543431
-0.0024239760823547
-0.0021680670324712
-0.0018600572366267
-0.0014929000753909
-0.0010672447970137
-0.0005906258593313
-7.419195026159286e-05
0.0004703398444689
0.0010307112243026
0.0015935561386868
0.0021458375267684
0.0026743793860077
0.0031627374701201
0.003591809887439
0.0039450824260711
0.0042133834213018
0.0043969983235001
0.0045050680637359
0.0045527969487011
0.004558521322906
0.0045412969775497
0.0045178639702498
0.0044996920041739
0.0044919662177562
0.0044957529753446
0.0045124948956072
0.0045445594005286
0.0045892866328358
0.0046353442594408
0.0046655875630676
0.0046587670221924
0.0045866146683692
0.0044113947078585
0.0040880572050809
0.0035717305727303
0.0028287461027503
0.0018470742506906
0.0006420228164643
-0.000743358512409
-0.0022413856349885
-0.0037666391581296
-0.0052264723926782
-0.0065331812947988
-0.0076159536838531
-0.0084286853671073
-0.0089506972581148
-0.0091839041560888
-0.0091513087972998
-0.0088946428149938
-0.0084665017202496
-0.0079198824241757
-0.0073028896003961
-0.006659289356321
-0.006028417032212
-0.00544228637591
-0.0049215657636523
-0.0044715534895658
-0.0040812394581735
-0.0037278891541063
-0.0033852234482765
-0.0030301844235509
-0.0026457458734512
-0.0022218856029212
-0.0017554977675899
-0.0012488749343901
-0.0007086133118718
-0.000145322876051
0.0004276724066585
0.0009972166735678
0.0015532369725406
0.0020894967019557
0.0026022547390311
0.0030897643882781
0.0035538701340556
0.0039993920363485
0.004428373184055
0.0048353755846619
0.0052093551494181
0.0055381450802087
0.0058110300451517
0.0060206027701497
0.0061652492731809
0.0062498226761817
0.0062835067510604
0.0062780454754829
0.00624664966017
0.0062015703879296
0.0061520775780081
0.0061048930510878
0.00606668042019
0.006044577807188
0.0060417558997869
0.0060545564629137
0.0060752071440219
0.0060931178741157
0.0060927858576178
0.0060523618012666
0.0059420750476419
0.0057224221527576
0.0053464761003851
0.004767850972712
0.0039514913223683
0.0028842203319072
0.0015820073895156
9.16426070034504e-05
-0.001512317568995
-0.0031354930251836
-0.004677940160036
-0.0060508111491799
-0.007188668474555
-0.008053652010858
-0.0086326077580451
-0.008931784890592
-0.0089725628495216
-0.0087894992902874
-0.0084292152896523
-0.0079462174326181
-0.0073957340791821
-0.0068276249803602
-0.0062825190834701
-0.0057894643396139
-0.0053647118620574
-0.0050112293101847
-0.0047204531729221
-0.0044759819284081
-0.0042568771168589
-0.0040411907248198
-0.0038090830203145
-0.0035435231402516
-0.003230907022953
-0.0028632048051804
-0.0024388753809034
-0.0019614454358816
-0.0014384746318683
-0.0008822123054414
-0.0003089669626206
0.0002652992261573
0.0008302665664814
0.0013817197177559
0.0019164150580763
0.0024272319860756
0.002903135959059
0.0033327741548419
0.0037080943584442
0.0040260865353047
0.0042890957556664
0.004503374453634
0.0046760020777583
0.0048131300136446
0.004919808357954
0.0049993027932941
0.0050536794587969
0.0050874692387878
0.0051108775660395
0.0051370644941926
0.0051741665229201
0.0052202516235411
0.0052655544131994
0.0052975937724113
0.0053050089627504
0.0052798986434936
0.0052184076048433
0.0051186718046665
0.0049767564050853
0.0047823982313275
0.0045157875865697
0.0041469414718449
0.0036394670605659
0.0029589547775685
0.0020844433456659
0.0010182207915931
-0.0002114095259457
-0.0015540845924988
-0.0029443381354212
-0.0043091918341815
-0.0055751409381628
-0.0066742617636919
-0.0075497622601687
-0.008161986246705
-0.0084940418601036
-0.0085533056408166
-0.0083686113357543
-0.0079864133149385
-0.0074658067896962
-0.0068703149445354
-0.0062569649890065
-0.0056674960069358
-0.0051278132013976
-0.0046535157598555
-0.0042535117827355
-0.0039293896406888
-0.0036737045738846
-0.0034706371370702
-0.0032986302394419
-0.0031324326992034
-0.0029451374430209
-0.002711724024266
-0.0024131247773766
-0.0020391596481204
-0.0015898409765213
-0.0010743732564151
-0.0005074007785879
9.448151104152204e-05
0.0007128627039492
0.0013269645860418
0.0019157270435243
0.0024608764797449
0.0029484159313142
0.0033692861907184
0.0037208558060228
0.0040074801072478
0.0042384611442685
0.0044251405633986
0.0045790574513375
0.0047112731263041
0.0048305424861609
0.0049405260942876
0.0050404421053826
0.0051285065710544
0.0052029127255082
0.005259939469397
0.0052929767407476
0.0052942354232072
0.0052571222186088
0.0051783039234578
0.0050605311989784
0.004912809934467
0.0047437543980777
0.004551304038614
0.0043159062042832
0.0040010851807892
0.0035604615695774
0.0029489421285688
0.0021359839010983
0.0011160809081047
-8.828053250908852e-05
-0.0014296389417722
-0.00284154410474
-0.0042478279210627
-0.005572990514338
-0.0067498907446861
-0.0077250627800822
-0.0084625612944364
-0.0089452937245368
-0.0091740563511848
-0.0091652069240808
-0.0089473761618137
-0.0085578551515936
-0.0080386102199554
-0.007431723177433
-0.0067755258642137
-0.0061032343655824
-0.0054433546029031
-0.0048198890872299
-0.0042512286454439
-0.0037469863891601
-0.0033052249345928
-0.0029130193870514
-0.002550090663135
-0.0021943778265267
-0.0018270509317517
-0.0014352981233969
-0.0010128570720553
-0.0005583716556429
-7.314560934901237e-05
0.0004409790271893
0.0009823952568694
0.0015467292396351
0.002123178448528
0.0026947206351906
0.0032412584405392
0.0037430883385241
0.0041835098527371
0.0045516872778534
0.0048463521525263
0.0050763022154569
0.0052556940354406
0.0053992811590433
0.005520578008145
0.0056306337937712
0.00573724322021
0.0058457432314753
0.0059597711078822
0.0060796304605901
0.0061990823596715
0.0063049183227121
0.0063812667503952
0.0064147878438234
0.0063972654752433
0.0063266567885875
0.0062083876691758
0.0060556670650839
0.0058864476159214
0.0057175676338374
0.0055588423274457
0.0054094372317194
0.0052570854313671
0.0050788233056664
0.0048409672453999
0.0044982372783124
0.0039978958666324
0.0032924900297075
0.0023545695003122
0.0011855305638164
-0.0001833124551922
-0.0016947032418102
-0.0032716402783989
-0.0048260106705129
-0.0062685012817382
-0.0075180530548095
-0.0085115060210227
-0.0092107374221086
-0.009604200720787
-0.0097043141722679
-0.0095427203923463
-0.009165983647108
-0.0086325844749808
-0.0080080078914761
-0.0073564983904361
-0.0067326426506042
-0.0061769569292664
-0.0057152197696268
-0.0053574424237012
-0.0050968779250979
-0.0049125673249363
-0.0047742682509124
-0.0046475897543132
-0.004499256145209
-0.0043007275089621
-0.0040282090194523
-0.0036621019244194
-0.0031913777347654
-0.0026200227439403
-0.0019671046175062
-0.0012606068048626
-0.0005313340807333
0.000190163613297
0.0008745074737817
0.0014952954370528
0.0020333030261099
0.0024809630122035
0.0028442949987947
0.0031396751292049
0.003386971540749
0.0036056861281394
0.00381432287395
0.0040272590704262
0.0042501399293541
0.0044780587777495
0.0046976488083601
0.0048922253772616
0.0050467257387936
0.0051514157094061
0.0052049504593014
0.005213831551373
0.0051880259998142
0.0051373722963035
0.0050713960081338
0.0050008706748485
0.0049375710077583
0.0048907678574323
0.0048620053566992
0.0048393858596682
0.0047924858517944
0.0046721645630896
0.0044188192114233
0.0039766263216733
0.0033075055107474
0.0023998939432203
0.0012722450774163
-2.6889960281550884e-05
-0.0014227515785023
-0.0028237095102667
-0.0041352673433721
-0.0052745696157217
-0.0061803935095667
-0.0068161925300955
-0.0071679940447211
-0.0072426563128829
-0.0070689618587493
-0.0066960277035832
-0.0061851730570197
-0.0055998302996158
-0.0049980483017861
-0.0044281682930886
-0.0039266869425773
-0.0035167259629815
-0.0032067277934402
-0.0029904369730502
-0.0028495294973254
-0.0027579497545957
-0.0026855212636291
-0.0026006493717432
-0.002472611144185
-0.0022744452580809
-0.001988808857277
-0.0016140163643285
-0.0011634449474513
-0.0006589221302419
-0.000124713871628
0.0004161914694122
0.0009457418927922
0.0014527101302519
0.0019301215652376
0.0023715514689683
0.0027703647501766
0.003121031448245
0.0034208993893116
0.0036716796457767
0.0038798623718321
0.0040552127175033
0.0042061852291226
0.0043350076302886
0.0044376850128173
0.0045082699507474
0.0045425295829772
0.0045399144291877
0.004505664575845
0.0044515910558402
0.0043929885141551
0.0043438412249088
0.0043139299377799
0.0043072067201137
0.0043192096054553
0.0043342197313904
0.0043247160501778
0.0042534568347036
0.0040756477974355
0.0037415041588246
0.0032035033218562
0.0024282867088913
0.0014075343497097
0.0001641917042434
-0.0012464090250432
-0.0027424083091318
-0.0042283488437533
-0.0056092538870871
-0.0068020857870578
-0.0077447853982448
-0.0084001384675502
-0.0087543744593858
-0.0088147399947047
-0.0086074462160468
-0.0081763118505477
-0.0075809624977409
-0.0068912147544324
-0.0061774090863764
-0.0054997499100863
-0.0049010217189788
-0.0044044009409844
-0.004014219623059
-0.0037180955987423
-0.003490278031677
-0.0032975631766021
-0.0031067915260791
-0.0028888131491839
-0.0026186301838606
-0.002276461571455
-0.0018510550726205
-0.0013431839179247
-0.0007664510048925
-0.0001441237982362
0.0004959092475473
0.001125636161305
0.0017209637444466
0.0022656247019767
0.0027526479680091
0.0031826482154428
0.0035615321248769
0.0038979048840701
0.0041992357000708
0.0044691055081784
0.0047084856778383
0.0049203257076442
0.0051119606941938
0.0052909883670508
0.0054590925574302
0.0056104054674506
0.0057345824316143
0.005821912549436
0.0058669205754995
0.0058682961389422
0.0058277072384953
0.0057500903494656
0.005644186399877
0.0055211861617863
0.0053917062468826
0.0052632591687142
0.005140439607203
0.0050278515554964
0.0049303178675472
0.0048457952216267
0.0047571174800395
0.0046300366520881
0.0044163041748106
0.0040598614141345
0.0035071251913905
0.0027199126780033
0.0016863644123077
0.0004258994013071
-0.0010118532227352
-0.002552208257839
-0.0041041965596377
-0.0055725956335663
-0.0068703773431479
-0.0079279709607362
-0.0086991395801305
-0.0091649098321795
-0.0093340622261166
-0.0092390049248933
-0.0089294668287038
-0.0084655312821269
-0.0079102534800767
-0.0073228841647505
-0.0067527703940868
-0.0062353289686143
-0.0057914229109883
-0.0054272972047328
-0.0051347203552722
-0.0048949443735182
-0.0046843215823173
-0.0044762445613741
-0.0042421026155352
-0.0039561833254992
-0.0036017834208905
-0.003174296580255
-0.0026809060946106
-0.0021372928749769
-0.0015623362269252
-0.0009741134708747
-0.0003885735059157
0.0001820890465751
0.0007312631933018
0.0012568506645038
0.0017580452840775
0.0022329732310026
0.002679708879441
0.0030997819267213
0.0034982049837708
0.0038774581626057
0.0042327307164669
0.0045542777515947
0.0048322472721338
0.0050595831125974
0.0052336929365992
0.0053561031818389
0.0054309926927089
0.0054652350954711
0.0054677622392773
0.00544737232849
0.0054126107133924
0.0053728227503597
0.0053370078094303
0.0053127016872167
0.0053052492439746
0.0053146281279623
0.0053342096507549
0.0053542405366897
0.0053638285025954
0.0053489152342081
0.0052904477342963
0.005164080299437
0.0049399109557271
0.004584427922964
0.0040665408596396
0.0033640046603977
0.002467974089086
0.0013882122002542
0.0001581071410328
-0.0011657879222184
-0.0025116694159805
-0.0038042110390961
-0.0049741095863282
-0.0059633222408592
-0.0067290011793375
-0.0072469152510166
-0.0075126988813281
-0.0075408648699522
-0.0073624430224299
-0.0070213312283158
-0.0065683545544743
-0.0060546286404132
-0.0055278930813074
-0.0050310185179114
-0.0045984787866473
-0.0042500984854996
-0.003987425006926
-0.0037974873557686
-0.0036600963212549
-0.0035516989883035
-0.0034462353214621
-0.0033176569268107
-0.0031441864557564
-0.0029118831735104
-0.002616103272885
-0.0022596302442252
-0.0018494658870622
-0.0013957442715764
-0.0009118393645621
-0.0004134300979785
8.44415626488626e-05
0.0005720362532883
0.0010461261263117
0.0015044879401102
0.001940389513038
0.0023427042178809
0.002699616830796
0.0030033267103135
0.00325269671157
0.0034518702886998
0.0036075981333851
0.0037273324560374
0.0038184928707778
0.0038889101706445
0.0039465958252549
0.0039988467469811
0.0040524560026824
0.0041139079257845
0.0041870158165693
0.004268703982234
0.0043468060903251
0.0044004125520586
0.0043993354775011
0.0043045533820986
0.0040741162374615
0.0036716919858008
0.0030727193225175
0.0022687355522066
0.0012715350603684
0.000115921604447
-0.0011411450104787
-0.0024260045029222
-0.0036566667258739
-0.0047526485286653
-0.0056459242478013
-0.0062902206555008
-0.0066655501723289
-0.0067778769880533
-0.0066555137746036
-0.0063434080220758
-0.0058956770226359
-0.0053676883690059
-0.0048095304518938
-0.0042609488591551
-0.0037492692936211
-0.0032922397367656
-0.0029011445585638
-0.0025791586376726
-0.0023180674761533
-0.0020992918871343
-0.0018998757004737
-0.0016986018745228
-0.0014788839034736
-0.0012295480119064
-0.0009443167364224
-0.0006197094917297
-0.000253799255006
0.0001519008073955
0.0005898990202695
0.0010475222952663
0.0015110590029507
0.0019692766945809
0.0024134977720677
0.0028361938893795
0.003231598297134
0.0035976464860141
0.0039353431202471
0.0042448700405657
0.0045226924121379
0.0047630676999688
0.0049616764299571
0.0051173260435462
0.0052316128276288
0.005308246705681
0.0053522251546382
0.0053693195804953
0.0053652850911021
0.0053433296270668
0.0053036753088235
0.0052469065412878
0.0051756016910076
0.0050943861715495
0.005009876564145
0.0049255234189331
0.0048327976837754
0.0047064195387065
0.0045063998550176
0.0041849706321954
0.0036950602661818
0.0029988591559231
0.0020766831003129
0.0009344762656837
-0.0003926985664293
-0.00184285081923
-0.0033344312105327
-0.0047767646610736
-0.0060822507366538
-0.0071779070422053
-0.0080128032714128
-0.0085619622841477
-0.0088278204202651
-0.0088365580886602
-0.0086299609392881
-0.0082578752189874
-0.0077726948074996
-0.0072247167117893
-0.0066588441841304
-0.0061119748279452
-0.0056104278191924
-0.005169294308871
-0.0047922185622155
-0.0044695897959172
-0.0041800355538725
-0.0038971956819295
-0.0035967570729553
-0.0032613894436508
-0.0028833216056227
-0.002462905133143
-0.0020048390142619
-0.0015159175964072
-0.0010035921586677
-0.0004746768390759
6.378500256687403e-05
0.0006044906331226
0.001141432323493
0.0016677108360454
0.0021729529835283
0.0026464990805834
0.0030822339467704
0.0034804544411599
0.003846530104056
0.0041848737746477
0.0044917771592736
0.0047563286498188
0.0049686394631862
0.0051260907202959
0.0052344286814332
0.0053051556460559
0.0053502018563449
0.005377231631428
0.0053896242752671
0.0053895786404609
0.0053795063868165
0.0053610145114362
0.005335399415344
0.00530715752393
0.0052842302247881
0.0052715544588863
0.0052661285735666
0.0052586155943572
0.0052363094873726
0.0051831374876201
0.0050763143226504
0.0048827556893229
0.0045609311200678
0.0040680025704205
0.0033676489256322
0.0024392923805862
0.0012886819895356
-4.749372601509094e-05
-0.0015064664185047
-0.003008373780176
-0.0044652973301708
-0.0057922345586121
-0.0069195069372653
-0.0078006070107221
-0.0084130689501762
-0.0087559949606657
-0.0088467616587877
-0.0087169148027896
-0.0084077548235654
-0.007966274395585
-0.0074418382719159
-0.0068829390220344
-0.0063330945558846
-0.0058272713795304
-0.0053888373076915
-0.0050250077620148
-0.0047251735813915
-0.0044677834957838
-0.0042298045009374
-0.0039904569275677
-0.0037315145600587
-0.0034385803155601
-0.0031022108159959
-0.0027169620152562
-0.0022798567079007
-0.0017914701020345
-0.001258434029296
-0.0006934442790225
-0.0001133836340159
0.0004633421776816
0.0010213524801656
0.0015522110043093
0.0020534649956971
0.0025226839352399
0.0029526178259402
0.0033331369049847
0.0036560613662004
0.0039178170263767
0.0041208998300135
0.004274143371731
0.0043906867504119
0.0044848145917057
0.0045684846118092
0.004648164846003
0.0047248834744095
0.0047977925278246
0.0048674345016479
0.0049373544752597
0.0050124623812735
0.0050931721925735
0.0051723131909966
0.0052388664335012
0.005282447207719
0.00529461260885
0.0052681490778923
0.0051946677267551
0.005060457624495
0.0048419646918773
0.0045052766799926
0.0040131486020982
0.0033355019986629
0.0024581314064562
0.0013895081356167
0.0001648212783038
-0.0011558816768229
-0.0024966953787952
-0.0037784748710691
-0.0049289409071207
-0.0058888616040349
-0.006616348400712
-0.0070894896052777
-0.0073072370141744
-0.0072886883281171
-0.0070696738548576
-0.0066964672878384
-0.0062198680825531
-0.0056920321658253
-0.0051631927490234
-0.0046751135960221
-0.0042534377425909
-0.0039049258921295
-0.0036224436480551
-0.0033920176792889
-0.0031955738086253
-0.0030121670570224
-0.0028215500060468
-0.0026073737535625
-0.0023579273838549
-0.0020657631102949
-0.0017275176942348
-0.0013436707668006
-0.0009175904560834
-0.0004549297736957
3.5975826904177666e-05
0.0005446011782623
0.0010608049342408
0.0015763631090521
0.0020820146892219
0.0025638942606747
0.0030056033283472
0.0033933049999177
0.0037176324985921
0.0039734710007905
0.0041613201610744
0.0042886333540081
0.0043678516522049
0.0044118976220488
0.0044305445626378
0.0044304495677351
0.0044181239791214
0.0044019101187586
0.0043919859454035
0.0043990775011479
0.0044296300038695
0.0044803665950894
0.0045396876521408
0.0045943679288029
0.0046341186389327
0.0046509290114045
0.0046346778981387
0.0045682284981012
0.0044244341552257
0.0041662878356873
0.0037512299604713
0.003140146844089
0.0023089537862688
0.0012579564936459
1.573888584971428e-05
-0.0013629944296553
-0.00280501996167
-0.0042288117110729
-0.0055539794266223
-0.006709000095725
-0.007637376897037
-0.0083021996542811
-0.0086889741942286
-0.0088061913847923
-0.0086827026680111
-0.0083622084930539
-0.0078975614160299
-0.0073454515077173
-0.0067600826732814
-0.0061868773773312
-0.0056570735760033
-0.0051850997842848
-0.004771847743541
-0.0044105472043156
-0.0040898760780692
-0.0037960638292133
-0.0035157483071088
-0.0032367222011089
-0.0029464210383594
-0.0026311101391911
-0.0022772774100303
-0.0018745847046375
-0.0014186780899763
-0.0009118918096646
-0.0003614559536799
0.0002227335935458
0.000830314005725
0.0014515670482069
0.0020747506059706
0.0026831198483705
0.0032561600673943
0.0037736664526164
0.0042205126956105
0.0045893527567386
0.0048800557851791
0.0050987396389245
0.0052564544603228
0.0053662098944187
0.0054405950941145
0.0054906858131289
0.0055250683799386
0.0055501693859696
0.0055726496502757
0.0056008319370448
0.0056426371447741
0.0057020625099539
0.0057766372337937
0.0058563081547617
0.0059251375496387
0.0059658992104232
0.0059640663675963
0.0059098582714796
0.0058001428842544
0.0056394478306174
0.0054383277893066
0.0052096839062869
0.004964405670762
0.004707078449428
0.0044318125583231
0.004118790384382
0.0037339073605835
0.0032337175216525
0.0025755655951797
0.0017296932637691
0.0006883379537612
-0.0005308978725224
-0.0018860718701034
-0.003314406145364
-0.0047386288642883
-0.0060772891156375
-0.0072575672529637
-0.0082248607650399
-0.0089456932619214
-0.0094061009585857
-0.0096074882894754
-0.0095644919201731
-0.0093087442219257
-0.0088907750323414
-0.0083719221875071
-0.0078111342154443
-0.0072560450062155
-0.0067402352578938
-0.0062824264168739
-0.0058867307379841
-0.005545875057578
-0.0052457675337791
-0.0049690413288772
-0.0046972115524113
-0.0044117867946624
-0.0040953890420496
-0.0037331124767661
-0.0033145667985081
-0.0028381035663187
-0.0023140518460422
-0.0017615964170545
-0.0012009736383333
-0.0006475340342149
-0.0001106085255742
0.0004051816649734
0.0008993202354758
0.0013748609926551
0.0018354831263422
0.0022816532291471
0.0027092834934592
0.0031112669967114
0.0034808395430445
0.0038148947060108
0.0041142865084111
0.0043808608315885
0.0046143974177539
0.0048127388581633
0.0049747191369533
0.0051013249903917
0.0051937769167125
0.0052527305670082
0.0052806297317147
0.0052840490825474
0.0052723442204296
0.0052538304589688
0.0052334605716168
0.0052125453948974
0.0051890024915337
0.0051589077338576
0.0051193889230489
0.0050698188133537
0.0050105452537536
0.0049409451894462
0.0048571438528597
0.0047501674853265
0.0046052392572164
0.0044013913720846
0.0041121668182313
0.0037081921473145
0.0031606112606823
0.0024459578562527
0.0015533654950559
0.0004918312188237
-0.0007056382019072
-0.0019824085757136
-0.0032651689834892
-0.0044779935851693
-0.005556896328926
-0.0064566694200038
-0.0071501610800623
-0.0076258024200797
-0.0078862588852643
-0.0079475883394479
-0.0078375162556767
-0.0075924759730696
-0.0072538265958428
-0.0068621891550719
-0.0064513180404901
-0.0060463277623057
-0.0056650969199836
-0.0053175059147179
-0.0050041433423757
-0.0047185909934341
-0.0044519593939185
-0.0041961381211876
-0.0039439084939658
-0.0036876408848911
-0.0034194707404822
-0.0031318452674895
-0.002817150671035
-0.0024684516247361
-0.0020809276029467
-0.0016522868536412
-0.0011834520846605
-0.0006793371867388
-0.0001483591040596
0.0003983190981671
0.0009472469100728
0.0014829927822574
0.0019890889525413
0.0024505271576344
0.0028554871678352
0.0031957379542291
0.003468592185527
0.0036789546720683
0.0038375742733478
0.0039560417644679
0.0040432186797261
0.0041061891242861
0.0041529987938702
0.0041933199390769
0.0042374869808554
0.0042956848628818
0.0043756994418799
0.0044779013842344
0.0045920964330434
0.0047004506923258
0.0047842753119766
0.0048305075615644
0.0048335408791899
0.0047906511463224
0.0046953484416007
0.0045331283472478
0.0042812856845557
0.0039124889299273
0.0034005257766693
0.0027281066868454
0.0018948692595586
0.000921158818528
-0.0001537336502224
-0.0012773463968187
-0.0023912191390991
-0.0034375821705907
-0.0043651862069964
-0.0051322444342076
-0.00570685043931
-0.0060690040700137
-0.0062139495275914
-0.0061538638547062
-0.0059168329462409
-0.0055422978475689
-0.0050746570341289
-0.0045583308674395
-0.0040337666869163
-0.0035324688069522
-0.003074106760323
-0.002669904846698
-0.0023278214503079
-0.0020521436817944
-0.0018400149419903
-0.001681457972154
-0.0015626543899998
-0.0014674225822091
-0.0013756381813436
-0.0012636603787541
-0.0011092969216406
-0.000897092395462
-0.0006204745732247
-0.0002811608137562
0.0001135966740548
0.0005551548674702
0.0010355974081903
0.0015443873126059
0.0020628164056688
0.0025642882101237
0.0030214143916964
0.0034133470617234
0.0037297937087714
0.0039710160344839
0.0041439877822995
0.0042586987838149
0.0043271142058074
0.0043629137799143
0.0043796068057417
0.0043870215304195
0.004390079062432
0.0043915356509387
0.0043937391601502
0.004396631848067
0.0043958518654108
0.0043837344273924
0.0043523185886442
0.0042962864972651
0.0042143054306507
0.0041096149943768
0.0039900210686028
0.0038653307128697
0.0037422068417072
0.0036190603859722
0.00348303001374
0.0033093350939452
0.0030639844480901
0.0027108518406748
0.0022193889599293
0.00156877678819
0.0007510676514357
-0.0002245467621833
-0.0013292196672409
-0.0025156165938824
-0.0037229156587272
-0.0048849275335669
-0.0059390626847743
-0.006833448074758
-0.0075309965759515
-0.0080120330676436
-0.0082762017846107
-0.0083410870283842
-0.0082364985719323
-0.0079963766038417
-0.0076523637399077
-0.0072343894280493
-0.0067757042124867
-0.0063125407323241
-0.0058769639581441
-0.0054897861555218
-0.0051584993489086
-0.0048795156180858
-0.0046406253241002
-0.0044232248328626
-0.0042057535611093
-0.0039667417295277
-0.0036872483324259
-0.00335399270989
-0.0029607955366373
-0.002505661221221
-0.0019879285246133
-0.00141187524423
-0.0007921315263956
-0.0001517708878964
0.0004843989154323
0.001094173407182
0.0016602536197751
0.0021721692755818
0.002625853056088
0.003022120334208
0.0033668288961052
0.0036698002368211
0.0039407592266798
0.0041861957870423
0.0044090980663895
0.0046099824830889
0.0047883111983537
0.0049434108659625
0.0050740162841975
0.0051778070628643
0.0052517997100949
0.005293034017086
0.0052998140454292
0.0052735018543899
0.0052201990038156
0.0051507977768778
0.0050779283046722
0.0050115096382796
0.004956021439284
0.00491035124287
0.0048699206672608
0.0048300754278898
0.0047865365631878
0.004730291198939
0.0046417214907705
0.0044892742298543
0.0042334636673331
0.003835464362055
0.0032670884393155
0.0025173332542181
0.0015935455448925
0.0005199494771659
-0.0006632641889154
-0.0019020141335204
-0.0031337039545178
-0.0042930585332214
-0.0053161969408392
-0.0061460491269826
-0.0067414809018373
-0.0070860595442354
-0.0071903332136571
