bvp
0.035009741783142
0.0349345058202743
0.0348072126507759
0.0346096716821193
0.0343210138380527
0.033924825489521
0.0334132462739944
0.0327853225171566
0.0320420376956462
0.031182300299406
0.0301998481154441
0.0290751717984676
0.0277568306773901
0.0261367037892341
0.0240351893007755
0.0212104357779026
0.0173941869288682
0.0123483417555689
0.0059305634349584
-0.0018484536558389
-0.0107929660007357
-0.0205241329967975
-0.0305176135152578
-0.0401719510555267
-0.048893216997385
-0.0561756119132041
-0.0616607069969177
-0.0651671141386032
-0.0666907578706741
-0.0663821771740913
-0.0645098611712455
-0.0614161565899848
-0.0574733316898345
-0.0530475601553916
-0.0484706163406372
-0.0440156534314155
-0.0398783683776855
-0.0361671596765518
-0.0329033583402633
-0.0300322100520133
-0.0274440292268991
-0.0249994825571775
-0.0225524809211492
-0.019970379769802
-0.0171506218612194
-0.0140306027606129
-0.0105913868173956
-0.0068562217056751
-0.0028843311592936
0.0012372154742479
0.0054027969017624
0.0094991950318217
0.0134171638637781
0.0170630011707544
0.0203682370483875
0.0232942067086696
0.0258306059986352
0.0279893968254327
0.0297975037246942
0.0312911346554756
0.0325110107660293
0.0334984473884105
0.0342928953468799
0.0349302999675273
0.035441804677248
0.0358519777655601
0.0361771807074546
0.0364258885383605
0.036600038409233
0.0366960242390632
0.0367066413164138
0.0366233848035335
0.0364362932741642
0.0361329466104507
0.0356989912688732
0.0351192131638526
0.0343807190656662
0.0334792993962764
0.0324242264032363
0.0312360152602195
0.0299351289868354
0.0285214427858591
0.0269459970295429
0.0250851400196552
0.022734235972166
0.0196309741586446
0.0155059043318033
0.0101481908932328
0.0034679938107728
-0.0044594816863536
-0.013376846909523
-0.0228616297245025
-0.032378114759922
-0.0413504056632518
-0.0492386855185031
-0.0556050688028335
-0.060158047825098
-0.062771126627922
-0.0634800344705581
-0.0624638870358467
-0.060014009475708
-0.056494552642107
-0.0522988103330135
-0.0478073172271251
-0.0433549657464027
-0.0392066910862922
-0.0355382226407527
-0.0324262715876102
-0.0298530552536249
-0.0277224425226449
-0.0258826278150081
-0.0241525750607252
-0.0223487243056297
-0.0203074347227811
-0.0179033353924751
-0.015063976868987
-0.0117774493992328
-0.0080910651013255
-0.0041006011888384
6.758701056241989e-05
0.0042747557163238
0.0083837695419788
0.012269533239305
0.0158284306526184
0.01898711360991
0.0217074006795883
0.0239848606288433
0.0258426070213317
0.0273245796561241
0.0284893997013568
0.0294026657938957
0.0301290918141603
0.0307264551520347
0.0312405005097389
0.0317021757364273
0.0321285352110862
0.0325241163372993
0.03288134932518
0.0331829376518726
0.0334058403968811
0.0335251614451408
0.033519446849823
0.0333761349320411
0.0330926999449729
0.0326707512140274
0.032101109623909
0.0313403196632862
0.0302857309579849
0.0287623852491378
0.0265336595475673
0.0233386922627687
0.018948933109641
0.0132294557988643
0.0061911744996905
-0.0019773677922785
-0.0109106767922639
-0.0201047025620937
-0.0289847254753112
-0.0369856134057045
-0.0436243005096912
-0.048550933599472
-0.0515761040151119
-0.0526763498783111
-0.0519819036126136
-0.0497514531016349
-0.0463364347815513
-0.0421362146735191
-0.0375513397157192
-0.0329454876482486
-0.0286181010305881
-0.0247836261987686
-0.021558228880167
-0.0189575962722301
-0.0169079266488552
-0.0152685632929205
-0.0138594713062047
-0.0124875213950872
-0.0109710684046149
-0.0091627268120646
-0.0069670313969254
-0.0043490976095199
-0.0013323137536644
0.0020122686401009
0.005578632466495
0.0092384368181228
0.0128556136041879
0.0163011420518159
0.0194645598530769
0.0222621001303195
0.0246418341994285
0.0265852846205234
0.0281045883893966
0.0292351860553026
0.03002754971385
0.0305411238223314
0.0308392494916915
0.0309837087988853
0.0310299880802631
0.0310237500816583
0.0309974029660224
0.030966330319643
0.0309274047613143
0.030862171202898
0.0307436045259237
0.0305438488721847
0.0302408151328563
0.0298214685171842
0.0292810145765543
0.0286196582019329
0.0278362482786178
0.0269144680351018
0.0258007571101188
0.0243806317448616
0.0224658548831939
0.0198052059859037
0.0161219406872987
0.0111706778407096
0.0048036910593509
-0.0029687173664569
-0.0119442343711853
-0.0217326283454895
-0.0317974798381328
-0.0415272302925586
-0.0503191128373146
-0.0576571822166442
-0.0631702989339828
-0.0666622519493103
-0.0681147128343582
-0.0676694437861442
-0.0655951350927352
-0.062244214117527
-0.0580078735947608
-0.0532759130001068
-0.0484026744961738
-0.043678268790245
-0.0393070392310619
-0.0353984795510768
-0.0319720953702926
-0.0289719197899103
-0.0262867286801338
-0.023772370070219
-0.0212731398642063
-0.0186423193663358
-0.0157616958022117
-0.0125560797750949
-0.0089990282431244
-0.0051111597567796
-0.0009546941146254
0.0033743800595402
0.0077568693086504
0.0120637025684118
0.0161709208041429
0.0199738964438438
0.023396847769618
0.026395808905363
0.0289572291076183
0.0310937389731407
0.0328379496932029
0.034236766397953
0.0353461131453514
0.0362237021327018
0.0369220003485679
0.0374860391020774
0.0379540398716926
0.0383548140525817
0.0387036614120006
0.0390021540224552
0.0392406620085239
0.03940125182271
0.0394612997770309
0.0393975526094436
0.0391903594136238
0.038827046751976
0.0383025743067264
0.0376176908612251
0.0367765799164772
0.0357864424586296
0.034658994525671
0.0334099829196929
0.0320511199533939
0.0305698178708553
0.0288994777947664
0.0268949270248413
0.0243301540613174
0.0209253393113613
0.0163991879671812
0.0105362143367528
0.0032537784427404
-0.0053486516699194
-0.0149742476642131
-0.0251552946865558
-0.0353131666779518
-0.0448352918028831
-0.0531537719070911
-0.0598123222589492
-0.0645125061273574
-0.0671357810497284
-0.0677408054471015
-0.0665390044450759
-0.0638561025261879
-0.0600879192352294
-0.0556549876928329
-0.0509590581059455
-0.0463450290262699
-0.042072556912899
-0.0383012257516384
-0.0350889042019844
-0.032400406897068
-0.0301252100616693
-0.0281024388968944
-0.0261492077261209
-0.0240873116999864
-0.0217648297548294
-0.0190720539540052
-0.015952443704009
-0.0124078569933772
-0.0084951082244515
-0.0043133310973644
1.2681819498538973e-05
0.004347295500338
0.008557055145502
0.0125237572938203
0.0161542650312185
0.0193850304931402
0.0221835821866989
0.0245472807437181
0.0264996290206909
0.0280846394598484
0.0293579250574111
0.0303771737962961
0.0311966259032487
0.0318652801215648
0.0324260517954826
0.0329138189554214
0.033352043479681
0.033750481903553
0.0341068431735038
0.0344114638864994
0.0346511416137218
0.0348106250166893
0.0348740220069885
0.0348272286355495
0.0346590466797351
0.0343546457588672
0.033875185996294
0.0331297703087329
0.0319557636976242
0.0301188118755817
0.027338370680809
0.0233408436179161
0.0179305560886859
0.0110563691705465
0.0028543351218104
-0.0063432855531573
-0.0160369705408811
-0.0256234221160411
-0.0344790741801261
-0.0420435294508934
-0.0478860922157764
-0.0517466999590396
-0.05355079844594
-0.0534011013805866
-0.0515486598014831
-0.0483490824699401
-0.0442143082618713
-0.0395671650767326
-0.0347994305193424
-0.0302354153245687
-0.0261080097407102
-0.0225499924272298
-0.0195973645895719
-0.017201542854309
-0.0152474530041217
-0.0135740553960204
-0.0119958231225609
-0.0103267170488834
-0.0084071224555373
-0.0061280382797122
-0.0034437226131558
-0.0003704875707626
0.0030228989198803
0.0066285328939557
0.010315291583538
0.0139454156160354
0.0173885561525821
0.0205323677510023
0.0232913680374622
0.0256140436977148
0.0274862758815288
0.0289296247065067
0.0299934763461351
0.0307428073137998
0.0312455929815769
0.0315642245113849
0.0317525342106819
0.0318544767796993
0.0319015905261039
0.0319117605686187
0.031891118735075
0.0318378135561943
0.031744722276926
0.0316004566848278
0.03139079362154
0.0311004128307104
0.0307137742638587
0.03021677210927
0.0295999385416507
0.028860367834568
0.0279999244958162
0.0270211808383464
0.0259208902716636
0.02467542886734
0.0232168603688478
0.0214095991104841
0.0190425664186477
0.0158476792275905
0.0115479845553636
0.0059266481548547
-0.0011037830263376
-0.0094511015340685
-0.0188243575394153
-0.0287548415362834
-0.038655012845993
-0.0479007363319397
-0.0559191182255744
-0.0622631572186946
-0.0666574835777282
-0.0690114349126815
-0.0694060772657394
-0.0680645704269409
-0.0653122663497924
-0.0615306086838245
-0.0571114458143711
-0.0524183809757232
-0.0477578788995742
-0.043360348790884
-0.0393709391355514
-0.0358497090637683
-0.0327795892953872
-0.0300798900425434
-0.0276252925395965
-0.0252695847302675
-0.022869111970067
-0.0203000456094741
-0.0174693223088979
-0.0143231181427836
-0.0108524216338992
-0.0070923771709203
-0.0031157145276665
0.0009775678627192
0.0050733215175569
0.0090576875954866
0.0128296520560979
0.0163085386157035
0.0194366723299026
0.0221807286143302
0.0245323963463306
0.0265062525868415
0.0281349755823612
0.0294624734669923
0.0305364299565553
0.0314037092030048
0.0321087352931499
0.0326920822262764
0.0331879965960979
0.0336213000118732
0.0340052768588066
0.0343424305319786
0.0346265695989131
0.0348447561264038
0.034981295466423
0.0350215211510658
0.0349502339959144
0.0347495079040527
0.0344026647508144
0.0338999666273593
0.0332400985062122
0.0324288047850132
0.0314765535295009
0.0303943213075399
0.0291840359568595
0.0278203822672367
0.026228055357933
0.0242648236453533
0.0217212494462728
0.0183458793908357
0.0138975046575069
0.0082129724323749
0.0012689512223005
-0.0067814840003848
-0.0156073113903403
-0.0247349739074707
-0.0336132198572158
-0.0416903644800186
-0.0484859831631183
-0.0536459758877754
-0.0569749176502227
-0.0584427863359451
-0.0581700503826141
-0.0563985295593738
-0.0534537397325038
-0.0497037917375564
-0.0455188862979412
-0.041234903037548
-0.0371258221566677
-0.0333877094089984
-0.0301323104649782
-0.027388148009777
-0.025108790025115
-0.0231875702738761
-0.0214776862412691
-0.0198153965175151
-0.0180426593869924
-0.0160270277410745
-0.0136770606040954
-0.0109505522996187
-0.0078556966036558
-0.0044471081346273
-0.0008163535967469
0.0029219514690339
0.0066435076296329
0.0102244988083839
0.0135508524253964
0.0165292024612426
0.0190978497266769
0.0212328899651765
0.0229471903294324
0.0242833048105239
0.0253020673990249
0.0260702036321163
0.0266516804695129
0.0271038506180048
0.0274756681174039
0.0278064589947462
0.0281253308057785
0.0284496843814849
0.0287824049592018
0.0291112158447504
0.0294115804135799
0.0296515375375747
0.0297986883670091
0.0298278927803039
0.0297252386808395
0.0294865854084491
0.029111947864294
0.0285958014428615
0.0279105138033628
0.0269836727529764
0.0256791599094867
0.0237956028431653
0.0210911910980939
0.017333447933197
0.012361598201096
0.0061453012749552
-0.0011768089607357
-0.0092932600528001
-0.017752818763256
-0.0260242708027362
-0.033568724989891
-0.0399100333452224
-0.0446909107267856
-0.0477061942219734
-0.0489113554358482
-0.0484111495316028
-0.0464344732463359
-0.0433006845414638
-0.0393810681998729
-0.0350582376122474
-0.0306885335594415
-0.0265718102455139
-0.022928450256586
-0.0198845900595188
-0.0174693316221237
-0.0156242251396179
-0.0142214521765708
-0.0130875203758478
-0.0120295118540525
-0.0108612654730677
-0.0094276387244462
-0.0076237516477704
-0.0054044644348323
-0.002782572992146
0.0001798374578356
0.0033831568434834
0.0067047914490103
0.0100144166499376
0.0131865693256258
0.0161104518920183
0.0186984371393919
0.0208922382444143
0.0226657148450613
0.0240246448665857
0.0250028073787689
0.0256543271243572
0.0260445922613143
0.0262415558099746
0.0263091493397951
0.0263045877218246
0.0262766368687152
0.0262608267366886
0.0262749399989843
0.0263191517442464
0.0263785421848297
0.0264261625707149
0.0264293849468231
0.0263586714863777
0.0261923484504222
0.0259155724197626
0.0255181621760129
0.0249943453818559
0.0243423599749803
0.0235562697052955
0.0226034447550773
0.0213955398648977
0.0197705086320638
0.0174972061067819
0.0143071291968226
0.0099522043019533
0.0042756628245115
-0.0027260454371571
-0.0108694043010473
-0.0197879169136285
-0.0289738662540912
-0.0378475114703178
-0.045838363468647
-0.0524620972573757
-0.0573770478367805
-0.0604116916656494
-0.0615648478269577
-0.0609841980040073
-0.0589304789900779
-0.0557363107800483
-0.0517655313014984
-0.0473757795989513
-0.0428859926760196
-0.0385520346462726
-0.0345537103712558
-0.0309908483177423
-0.0278853364288806
-0.025190133601427
-0.0228051077574491
-0.020596969872713
-0.0184196569025516
-0.0161332115530967
-0.013621917925775
-0.0108093824237585
-0.0076651684939861
-0.0042043244466185
-0.0004844209179282
0.0034014796838164
0.0073372507467865
0.0111984629184007
0.0148680182173848
0.0182502884417772
0.0212794598191976
0.0239208005368709
0.0261664967983961
0.0280296970158815
0.0295402836054563
0.0307420752942562
0.0316884852945804
0.0324365496635437
0.0330414101481437
0.0335512533783912
0.0340024307370185
0.034416701644659
0.0348017215728759
0.035152830183506
0.0354544706642627
0.0356830954551696
0.0358129292726516
0.0358220487833023
0.0356952585279941
0.0354230999946594
0.0350003726780414
0.0344267822802066
0.0337079726159572
0.032855674624443
0.0318869426846504
0.0308180302381515
0.0296467244625091
0.0283262990415096
0.0267420746386051
0.0247022751718759
0.0219534933567047
0.0182234682142734
0.0132825039327144
0.0070089409127831
-0.0005576349794864
-0.0091913547366857
-0.0184932295233011
-0.0279396381229162
-0.0369527600705623
-0.0449787303805351
-0.0515590496361255
-0.0563823617994785
-0.05931081995368
-0.0603789687156677
-0.059767261147499
-0.0577606596052646
-0.0547035783529281
-0.0509575605392456
-0.0468659475445747
-0.0427272692322731
-0.0387759506702423
-0.0351698286831378
-0.0319867469370365
-0.0292301923036575
-0.0268407817929983
-0.0247121397405862
-0.0227094143629074
-0.0206878539174795
-0.0185119248926639
-0.0160747244954109
-0.0133126834407448
-0.0102108670398592
-0.0067998692393302
-0.0031476095318794
0.0006514284759759
0.0044875768944621
0.0082474239170551
0.0118243647739291
0.01512754522264
0.0180897545069456
0.0206719785928726
0.0228628721088171
0.0246765166521072
0.0261495038866996
0.0273339413106441
0.0282874293625354
0.0290652364492416
0.0297166295349597
0.0302831791341304
0.0307965017855167
0.0312755033373832
0.031725738197565
0.0321418866515159
0.0325115472078323
0.0328182503581047
0.0330429896712303
0.0331657044589519
0.0331675074994564
0.0330328159034252
0.0327511131763458
0.0323175303637981
0.0317319892346859
0.0309988092631101
0.0301259271800518
0.0291195567697286
0.0279711671173572
0.0266370382159948
0.0250163730233907
0.0229393783956766
0.0201772786676883
0.0164812244474887
0.01164420414716
0.0055664014071226
-0.0016950611025094
-0.0099046546965837
-0.0186648089438676
-0.0274683777242898
-0.0357703417539596
-0.0430603101849556
-0.0489246882498264
-0.0530900135636329
-0.0554417595267295
-0.0560205243527889
-0.0550016202032566
-0.0526639893651008
-0.0493536815047264
-0.045444905757904
-0.0413013659417629
-0.0372416898608207
-0.0335117429494857
-0.030267022550106
-0.027568956837058
-0.0253940597176551
-0.0236502569168806
-0.0221961326897144
-0.0208619255572557
-0.0194719564169645
-0.0178672336041927
-0.0159254055470228
-0.0135746793821454
-0.0107995998114347
-0.0076391017064452
-0.0041775223799049
-0.0005299136973917
0.0031730844639241
0.0067977653816342
0.0102200675755739
0.0133395381271839
0.016089791432023
0.0184399373829364
0.0203893259167671
0.0219624917954206
0.0232043154537677
0.0241727028042078
0.0249303039163351
0.0255365278571844
0.0260414332151412
0.0264841001480817
0.0268931630998849
0.0272859390825033
0.0276675857603549
0.0280318744480609
0.0283635277301073
0.0286420676857233
0.0288447644561529
0.028947303071618
0.0289248768240213
0.0287558212876319
0.028425820171833
0.0279293172061443
0.0272687375545501
0.026451775804162
0.0254803877323865
0.0243275016546249
0.0229086689651012
0.0210640951991081
0.0185671001672744
0.0151635194197297
0.0106316283345222
0.0048468634486198
-0.0021660262718796
-0.0102090938016772
-0.0189210828393697
-0.0278173703700304
-0.0363524444401264
-0.043993555009365
-0.0502898059785366
-0.0549223460257053
-0.0577299483120441
-0.0587116032838821
-0.0580099001526832
-0.0558805167675018
-0.0526540093123912
-0.0486947447061538
-0.0443614535033702
-0.0399742610752582
-0.0357904881238937
-0.0319890528917312
-0.0286637917160987
-0.0258262492716312
-0.0234162230044603
-0.0213177856057882
-0.019380260258913
-0.0174421239644289
-0.0153540773317217
-0.0129985390231013
-0.0103028966113924
-0.007244954816997
-0.0038517192006111
-0.000192423351109
0.0036341454833745
0.0075140888802707
0.0113293742761015
0.0149666024371981
0.0183263886719942
0.02133160084486
0.0239330120384693
0.0261125452816486
0.0278831161558628
0.0292840767651796
0.0303729437291622
0.0312158577144145
0.031879149377346
0.0324225611984729
0.032893780618906
0.0333252325654029
0.0337349660694599
0.0341302305459976
0.0345087796449661
0.03485719114542
0.0351510345935821
0.0353602357208728
0.0354566238820552
0.0354180596768856
0.0352285280823707
0.0348777472972869
0.0343618877232074
0.0336839407682418
0.0328523553907871
0.0318795293569564
0.0307813417166471
0.0295758955180645
0.0282805040478706
0.0269049815833568
0.0254360251128673
0.0238122250884771
0.0219011232256889
0.0194948054850101
0.0163330733776092
0.0121524296700954
0.0067512299865484
5.272775888442993e-05
-0.007853508926928
-0.0167001821100711
-0.0260621029883623
-0.0354066863656044
-0.044166512787342
-0.0518173389136791
-0.057944931089878
-0.0622895136475563
-0.0647618323564529
-0.0654325038194656
-0.0645037367939949
-0.0622706711292266
-0.0590780377388
-0.0552798919379711
-0.0512057989835739
-0.0471312180161476
-0.0432538092136383
-0.0396827012300491
-0.0364423505961895
-0.0334857888519763
-0.0307132825255393
-0.0279946401715278
-0.0251925718039274
-0.0221854839473962
-0.0188882518559694
-0.015265854075551
-0.0113351717591285
-0.0071571646258234
-0.002824502531439
0.0015519959852099
0.0058555593714118
0.0099737485870718
0.0138077158480882
0.017279976978898
0.020339136943221
0.0229610502719879
0.0251478366553783
0.0269252136349678
0.0283375568687915
0.0294410642236471
0.0302949175238609
0.03095243871212
0.0314571261405944
0.0318437218666076
0.0321392714977264
0.0323626324534416
0.0325245447456836
0.0326287671923637
0.0326734744012355
0.032652199268341
0.0325544252991676
0.0323661528527736
0.0320711955428123
0.0316548086702823
0.0311088152229785
0.0304336752742528
0.0296358410269022
0.0287238806486129
0.0277060605585575
0.0265889726579189
0.0253777652978897
0.0240781232714653
0.0226955749094486
0.0212269127368927
0.0196433775126934
0.0178699567914009
0.0157699808478355
0.0131466854363679
0.0097697898745536
0.005426786839962
-1.3986602425575256e-05
-0.0065510012209415
-0.0140244588255882
-0.0221233218908309
-0.0304208621382713
-0.0384277440607547
-0.0456533059477806
-0.0516688749194145
-0.0561612024903297
-0.0589628890156745
-0.0600566864013671
-0.0595608502626419
-0.0577033534646034
-0.0547884851694107
-0.0511598847806453
-0.0471637174487113
-0.0431139841675758
-0.0392643921077251
-0.0357914790511131
-0.0327897034585475
-0.0302752181887626
-0.0281952191144227
-0.0264419503509998
-0.0248702354729175
-0.0233169943094253
-0.021621573716402
-0.0196456350386142
-0.0172918364405632
-0.0145179471001029
-0.011340475641191
-0.0078275697305798
-0.0040856911800801
-0.0002415897324681
0.003576960414648
0.0072534084320068
0.0106878615915775
0.0138036245480179
0.0165531560778617
0.0189169757068157
0.0208988673985004
0.0225229710340499
0.0238311346620321
0.0248777605593204
0.0257235523313283
0.0264290831983089
0.0270469486713409
0.0276159401983022
0.0281619727611541
0.0287025161087512
0.0292468648403882
0.0297911614179611
0.030315862968564
0.0307903513312339
0.0311798807233572
0.03145058080554
0.0315741747617721
0.0315322875976562
0.0313176214694976
0.0309311337769031
0.0303742382675409
0.0296349003911018
0.0286684036254882
0.027378037571907
0.0256072953343391
0.0231537297368049
0.0198044124990701
0.0153846135362982
0.0098104299977421
0.0031338548287749
-0.0044356174767017
-0.0125419534742832
-0.0207233019173145
-0.028473699465394
-0.0353123508393764
-0.0408455654978752
-0.0448106713593006
-0.0470956452190876
-0.0477350912988185
-0.0468896329402923
-0.0448142737150192
-0.0418201275169849
-0.0382377207279205
-0.0343878157436847
-0.0305569879710674
-0.0269746296107769
-0.023795548826456
-0.0210924595594406
-0.0188583526760339
-0.0170177910476923
-0.0154459625482559
-0.0139923756942152
-0.012505074031651
-0.0108517250046134
-0.0089337872341275
-0.0066930009052157
-0.0041134506464004
-0.0012202737852931
0.0019251033663749
0.0052320128306746
0.0085908882319927
0.0118859857320785
0.0150076225399971
0.0178635101765394
0.0203864574432373
0.0225362405180931
0.0242989398539066
0.0256864037364721
0.0267348568886518
0.0274995435029268
0.0280438438057899
0.0284284986555576
0.0287077240645885
0.0289290659129619
0.0291298050433397
0.029331337660551
0.0295376516878604
0.029738925397396
0.029916763305664
0.0300476811826229
0.0301050748676061
0.0300619639456272
0.029894933104515
0.0295877829194068
0.0291330814361572
0.0285311583429574
0.0277884099632501
0.0269160997122526
0.0259295310825109
0.0248479507863521
0.0236918274313211
0.0224709473550319
0.0211645774543285
0.0197022315114736
0.0179509278386831
0.015714107081294
0.0127511890605092
0.0088231423869729
0.00375522300601
-0.0025035599246621
-0.0098423697054386
-0.0179818496108055
-0.0265021454542875
-0.034899566322565
-0.0426576286554336
-0.0493161156773567
-0.0545251742005348
-0.0580789670348167
-0.0599271804094314
-0.0601633340120315
-0.0589943677186965
-0.0567022711038589
-0.0536062940955162
-0.050028596073389
-0.0462648943066597
-0.04256097599864
-0.039095688611269
-0.0359727256000041
-0.0332235060632228
-0.0308177806437015
-0.0286762509495019
-0.0266856160014867
-0.0247175730764865
-0.0226491279900074
-0.0203804895281791
-0.0178461000323295
-0.015017619356513
-0.011902717873454
-0.0085420180112123
-0.0050031943246722
-0.0013716686517
0.0022601466625928
0.0058023245073854
0.0091739548370242
0.0123068923130631
0.0151484590023756
0.0176646020263433
0.0198431685566902
0.0216944925487041
0.0232466049492359
0.0245376229286193
0.0256103724241256
0.0265091639012098
0.027276299893856
0.0279489643871784
0.0285569988191127
0.0291207171976566
0.0296497866511344
0.0301440618932247
0.030594564974308
0.0309841223061084
0.0312902405858039
0.0314909517765045
0.0315704420208931
0.0315207615494728
0.0313399508595466
0.031030036509037
0.0305953491479158
0.0300402622669935
0.0293679032474756
0.0285785272717475
0.0276625622063875
0.0265859011560678
0.0252705570310354
0.0235816407948732
0.0213332027196884
0.0183162540197372
0.014344235882163
0.0093056112527847
0.0032084295526146
-0.003795355092734
-0.0114123150706291
-0.0192382354289293
-0.0268109068274498
-0.0336720868945121
-0.0394251905381679
-0.0437800660729408
-0.0465798415243625
-0.0478066653013229
-0.0475687868893146
-0.0460758283734321
-0.0436073765158653
-0.0404781997203826
-0.0370050817728042
-0.03347809612751
-0.0301355738192796
-0.0271453596651554
-0.0245976746082305
-0.0225079208612442
-0.0208240542560815
-0.0194387473165988
-0.0182078052312135
-0.0169726312160491
-0.0155838970094919
-0.0139226643368601
-0.0119145866483449
-0.0095347519963979
-0.0068047358654439
-0.0037857210263609
-0.0005688285455107
0.0027376217767596
0.0060221324674785
0.0091817816719412
0.012128840200603
0.0147936586290597
0.0171263106167316
0.0190979652106761
0.0207028742879629
0.0219596717506647
0.0229093022644519
0.0236085969954729
0.0241208579391241
0.0245065037161111
0.0248164013028144
0.0250886138528585
0.025348138064146
0.0256088227033615
0.0258755385875701
0.0261445026844739
0.0264020357280969
0.0266243200749158
0.0267805699259042
0.0268392618745565
0.0267736501991748
0.0265642423182725
0.0262005776166915
0.0256832484155893
0.0250223129987716
0.0242291763424873
0.0233012754470109
0.0222003925591707
0.0208313465118408
0.0190326198935508
0.0165892615914344
0.0132707701995968
0.0088845146819949
0.0033302875235676
-0.0033554676920175
-0.0109766954556107
-0.0191851649433374
-0.0275195986032485
-0.0354691185057163
-0.0425461828708648
-0.0483514778316021
-0.0526182129979133
-0.0552308484911918
-0.0562189817428588
-0.0557334497570991
-0.0540143325924873
-0.0513549223542213
-0.0480648353695869
-0.0444398075342178
-0.0407405011355876
-0.037175565958023
-0.0338879637420177
-0.0309485904872417
-0.0283589717000722
-0.0260605402290821
-0.0239505376666784
-0.0219036564230918
-0.019792590290308
-0.0175046436488628
-0.0149561548605561
-0.0121024064719676
-0.0089399255812168
-0.0055020470172166
-0.0018524155020713
0.0019204821437597
0.0057117715477943
0.0094133168458938
0.0129264276474714
0.0161712020635604
0.0190918482840061
0.021657571196556
0.0238610133528709
0.0257155895233154
0.0272513981908559
0.0285103563219308
0.0295411869883537
0.0303939133882522
0.0311147775501012
0.0317440554499626
0.0323147550225257
0.0328479409217834
0.0333480648696422
0.0338046848773956
0.0341989658772945
0.0345100834965705
0.0347197279334068
0.0348140224814415
0.034783374518156
0.0346215665340423
0.034324437379837
0.0338887050747871
0.0333118177950382
0.0325937792658805
0.0317409038543701
0.0307684410363435
0.0296982247382402
0.0285518486052751
0.0273423045873641
0.0260632447898387
0.0246732290834188
0.0230768006294965
0.0211117640137672
0.0185563750565052
0.015163404867053
0.0107141062617301
0.0050769932568073
-0.0017436733469367
-0.0095819942653179
-0.0181147325783967
-0.0268961936235427
-0.0354158580303192
-0.0431668534874916
-0.0497130788862705
-0.0547414124011993
-0.0580889359116554
-0.0597447603940963
-0.0598325207829475
-0.0585807375609874
-0.0562865361571311
-0.053276177495718
-0.0498681738972663
-0.0463447086513042
-0.0429313406348228
-0.0397830419242382
-0.0369779095053672
-0.0345203094184398
-0.0323518030345439
-0.0303677804768085
-0.0284391604363918
-0.0264358818531036
-0.0242457091808319
-0.0217847600579261
-0.0190025866031646
-0.0158858932554721
-0.0124594271183013
-0.0087821511551737
-0.0049401270225644
-0.0010364241898059
0.002821460366249
0.006533283740282
0.0100142564624547
0.0132003333419561
0.0160514283925294
0.0185513757169246
0.0207042731344699
0.0225293412804603
0.0240563973784446
0.0253231842070817
0.0263750217854976
0.027264017611742
0.0280432812869548
0.0287573039531707
0.0294355452060699
0.0300923809409141
0.0307303071022033
0.0313427150249481
0.0319144576787948
0.0324214063584804
0.0328334234654903
0.033121183514595
0.0332608632743358
0.0332348942756652
0.0330335088074207
0.0326573587954044
0.032116949558258
0.0314284488558769
0.0306062195450067
0.0296484939754009
0.0285157896578311
0.0271102394908666
0.0252680759876966
0.0227748602628707
0.0194050930440425
0.0149782989174127
0.0094162477180361
0.0027832798659801
-0.0047029792331159
-0.012690519914031
-0.0207335948944091
-0.0283489376306533
-0.0350798517465591
-0.0405544377863407
-0.0445249937474727
-0.0468839146196842
-0.047659657895565
-0.0469996780157089
-0.0451454371213912
-0.0424020178616046
-0.0391046777367591
-0.0355842635035514
-0.0321335904300212
-0.0289796702563762
-0.0262670814990997
-0.0240526124835014
-0.0223090834915637
-0.0209395661950111
-0.019800754263997
-0.0187280569225549
-0.0175577271729707
-0.0161460936069488
-0.0143858697265386
-0.0122176147997379
-0.0096335336565971
-0.0066740289330482
-0.0034196292981505
2.117035910487175e-05
0.0035261795856058
0.0069715538993477
0.0102404002100229
0.0132310427725315
0.0158664099872112
0.0181009881198406
0.0199229046702384
0.0213519558310508
0.0224335417151451
0.0232300870120525
0.0238126888871192
0.0242524407804012
0.0246119238436222
0.0249394699931144
0.0252668969333171
0.0256100408732891
0.0259704776108264
0.0263367686420679
0.0266858022660017
0.0269866436719894
0.0272072441875934
0.0273206811398267
0.0273080077022314
0.0271580759435892
0.0268650650978088
0.0264212228357791
0.0258013755083084
0.0249409824609756
0.0237166117876768
0.0219410583376884
0.0193835012614727
0.0158158205449581
0.0110727194696664
0.0051073627546429
-0.0019733989611268
-0.0099034653976559
-0.0182815287262201
-0.0266190897673368
-0.034404806792736
-0.0411733388900756
-0.0465629361569881
-0.0503497198224067
-0.052457757294178
-0.052950169891119
-0.0520055964589118
-0.0498865731060504
-0.0469057448208332
-0.043390467762947
-0.0396481417119503
-0.0359391085803508
-0.0324606075882911
-0.0293387454003095
-0.0266249347478151
-0.024297971278429
-0.0222746916115283
-0.0204300656914711
-0.0186220351606607
-0.0167127940803766
-0.0145840365439653
-0.0121499374508857
-0.0093681570142507
-0.0062445923686027
-0.0028296913951635
0.000791517086327
0.0045120036229491
0.0082149794325232
0.0117845023050904
0.015116237103939
0.0181288812309503
0.0207716915756464
0.0230259150266647
0.0249024182558059
0.0264355763792991
0.0276735797524452
0.0286687202751636
0.0294708758592605
0.0301246251910924
0.0306682549417018
0.0311327874660491
0.0315411798655986
0.0319094322621822
0.0322483777999877
0.0325618907809257
0.0328419581055641
0.033067338168621
0.0332091078162193
0.0332382097840309
0.0331299677491188
0.0328659452497959
0.0324358195066452
0.0318398252129554
0.0310884173959493
0.0301980916410684
0.0291876960545778
0.0280755516141653
0.0268731862306594
0.0255723446607589
0.0241226106882095
0.0224062763154506
0.0202288143336772
0.0173386745154857
0.013474921695888
0.0084308311343193
0.0021173618733882
-0.0053914180025458
-0.0138450358062982
-0.0228396579623222
-0.0318713672459125
-0.0404066033661365
-0.04795453697443
-0.0541276186704635
-0.0586795844137668
-0.0615158192813396
-0.06268110871315
-0.0623362809419631
-0.0607299879193306
-0.0581652522087097
-0.0549627318978309
-0.0514265112578868
-0.0478158295154571
-0.0443253628909587
-0.0410767421126365
-0.0381196737289428
-0.0354390852153301
-0.0329681485891342
-0.0306068938225507
-0.0282414983958005
-0.0257592722773551
-0.0230610966682434
-0.0200745072215795
-0.0167652629315853
-0.0131418667733669
-0.0092517407611012
-0.005173816345632
-0.0010101124644279
0.0031257215887308
0.0071222279220819
0.0108821680769324
0.0143312886357307
0.0174237489700317
0.0201422814279794
0.022493839263916
0.0245040878653526
0.0262123234570026
0.0276664234697818
0.0289172679185867
0.0300126373767852
0.0309915728867054
0.0318809822201728
0.0326953530311584
0.0334393233060836
0.0341111868619918
0.0347045995295047
0.0352092832326889
0.0356130190193653
0.0359037816524505
0.0360704250633716
0.0361030958592891
0.0359941646456718
0.0357394628226757
0.0353395231068134
0.0347997620701789
0.0341281667351722
0.0333322808146476
0.0324190855026245
0.0313956029713153
0.0302653424441814
0.029019471257925
0.0276211351156234
0.0259846448898315
0.023960892111063
0.0213414058089256
0.0178885124623775
0.013389372266829
0.0077186683192849
0.0008912906050682
-0.0069109862670302
-0.0153486914932727
-0.0239673405885696
-0.0322615467011928
-0.0397451445460319
-0.0460124686360359
-0.0507802218198776
-0.0539061576128006
-0.0553882159292697
-0.0553499236702919
-0.054014254361391
-0.0516702756285667
-0.0486395880579948
-0.0452446267008781
-0.0417781993746757
-0.0384769551455974
-0.0355031229555606
-0.0329366810619831
-0.0307770110666751
-0.0289531275629997
-0.0273424070328474
-0.025794830173254
-0.0241575986146926
-0.0222964622080326
-0.0201120749115943
-0.0175502859055995
-0.0146055677905678
-0.0113183446228504
-0.0077670887112617
-0.0040554543957114
-0.0002971868962049
0.0033973595127463
0.0069315517321228
0.0102285388857126
0.0132319740951061
0.0159045308828353
0.0182286538183689
0.0202077813446521
0.0218634810298681
0.0232301838696002
0.0243511646986007
0.0252755992114543
0.0260559786111116
0.0267432890832424
0.0273789428174495
0.0279885083436965
0.0285812243819236
0.0291537642478942
0.0296942703425884
0.0301841851323843
0.030599258840084
0.0309121850878
0.0310971084982156
0.0311346109956502
0.0310157239437103
0.0307416133582592
0.0303160343319177
0.0297316964715719
0.0289518255740404
0.0278892014175653
0.0263920724391937
0.0242500938475132
0.0212267376482486
0.0171124842017889
0.0117846010252833
0.0052570840343832
-0.0022941343486309
-0.0105384644120931
-0.0190283451229333
-0.0272574890404939
-0.0347267128527164
-0.0410070456564426
-0.0457897558808326
-0.0489131771028041
-0.0503649152815341
-0.0502649247646331
-0.0488360449671745
-0.0463691316545009
-0.0431884825229644
-0.0396195165812969
-0.0359580405056476
-0.0324438288807868
-0.0292440839111804
-0.0264469236135482
-0.0240621864795684
-0.0220307782292366
-0.0202432125806808
-0.0185630526393651
-0.0168493147939443
-0.0149753354489803
-0.0128438407555222
-0.0103959310799837
-0.0076133832335472
-0.0045176781713962
-0.0011675516143441
0.0023476304486393
0.0059208874590694
0.0094426050782203
0.0128105310723185
0.0159351136535406
0.0187447480857372
0.0211918279528617
0.0232572797685861
0.024950485676527
0.0263036303222179
0.0273637175559997
0.0281859338283538
0.028828214854002
0.0293456949293613
0.029784869402647
0.0301782079041004
0.0305421277880668
0.030879994854331
0.0311865042895078
0.0314495153725147
0.031650111079216
0.0317630916833877
0.0317602083086967
0.0316167883574962
0.031317263841629
0.0308559518307447
0.0302367303520441
0.0294736213982105
0.0285873673856258
0.0275976881384849
0.026516668498516
0.0253416076302528
0.0240407399833202
0.022533718496561
0.0206759739667177
0.0182580612599849
0.0150308711454272
0.0107568334788084
0.0052738636732101
-0.0014462452381849
-0.0092640714719891
-0.0178733486682176
-0.0268330238759517
-0.0356235094368457
-0.0437174625694751
-0.050650417804718
-0.0560765601694583
-0.0598001331090927
-0.061780747026205
-0.062117762863636
-0.0610218346118927
-0.0587814003229141
-0.0557268112897872
-0.0521919429302215
-0.0484778620302677
-0.0448250956833362
-0.0413973219692707
-0.0382771380245685
-0.0354733690619468
-0.0329366475343704
-0.0305778011679649
-0.0282852910459041
-0.0259410105645656
-0.0234353486448526
-0.0206813514232635
-0.0176253356039524
-0.0142529793083667
-0.0105922920629382
-0.00671162083745
-0.002709406428039
0.0013032108545303
0.0052199121564626
0.008950057439506
0.0124234985560178
0.0155923860147595
0.0184305924922227
0.0209325682371854
0.023112004622817
0.0249969065189361
0.0266214609146118
0.0280209891498088
0.0292324516922235
0.0302941277623176
0.0312399268150329
0.0320930257439613
0.0328644923865795
0.0335563868284225
0.0341657027602195
0.0346867553889751
0.0351114459335804
0.0354286730289459
0.0356253571808338
0.0356888361275196
0.0356087982654571
0.0353783443570137
0.034994401037693
0.0344588160514831
0.0337806493043899
0.0329755395650863
0.0320605188608169
0.0310495607554912
0.0299512017518281
0.0287621971219778
0.0274530127644538
0.0259481109678745
0.0241115242242813
0.0217483341693878
0.0186269618570804
0.0145227434113621
0.0092755230143666
0.0028450191020965
-0.0046527329832315
-0.0129386913031339
-0.0215972438454628
-0.0301309339702129
-0.0380303040146827
-0.0448416694998741
-0.050220038741827
-0.0539610385894775
-0.0560093820095062
-0.0564472377300262
-0.0554700344800949
-0.0533547736704349
-0.0504243373870849
-0.0470116548240184
-0.0434263348579406
-0.0399277620017528
-0.0367068760097026
-0.0338750444352626
-0.0314612761139869
-0.0294206719845533
-0.0276527181267738
-0.0260235667228698
-0.0243874341249465
-0.0226064026355743
-0.0205673314630985
-0.0181930549442768
-0.0154486568644642
-0.0123443258926272
-0.0089319925755262
-0.0052952580153942
-0.0015371777117252
0.0022317771799862
0.0059045827947556
0.0093848807737231
0.0125924618914723
0.0154692996293306
0.0179825350642204
0.0201237425208091
0.0219078063964843
0.0233704783022403
0.0245629586279392
0.0255446545779705
0.0263751819729805
0.0271067041903734
0.0277778729796409
0.0284111611545085
0.0290144272148609
0.0295842885971069
0.030109766870737
0.0305766481906175
0.0309712793678045
0.0312815085053443
0.031494565308094
0.0315951220691204
0.0315661057829856
0.0313913524150848
0.0310586057603359
0.0305592454969882
0.029879679903388
0.0289838723838329
0.0277912076562643
0.0261588543653488
0.0238836612552404
0.0207332782447338
0.0165011193603277
0.0110690835863351
0.0044586369767785
-0.0031450064852833
-0.0114023368805646
-0.0198605637997388
-0.0280146487057209
-0.0353732146322727
-0.0415180325508117
-0.0461494252085685
-0.0491123236715793
-0.0504007413983345
-0.0501422248780727
-0.0485681369900703
-0.0459771640598773
-0.04269764944911
-0.0390537120401859
-0.0353370048105716
-0.0317827239632606
-0.0285526495426893
-0.0257293470203876
-0.0233198311179876
-0.0212661363184452
-0.019462639465928
-0.0177773889154195
-0.0160730388015508
-0.0142250740900635
-0.0121359284967184
-0.0097442381083965
-0.0070289997383952
-0.0040091322734951
-0.0007396424189209
0.0026951301842927
0.0061923093162477
0.009644791483879
0.0129535030573606
0.0160332508385181
0.0188155211508274
0.0212524123489856
0.023320022970438
0.0250184722244739
0.0263690538704395
0.0274103246629238
0.0281931068748235
0.0287736617028713
0.0292070023715496
0.0295427851378917
0.0298223197460174
0.0300740171223878
0.0303097944706678
0.0305275674909353
0.0307173170149326
0.0308635123074054
0.0309441909193992
0.0309329479932785
0.0308048781007528
0.0305411200970411
0.0301294047385454
0.0295636225491762
0.0288444217294454
