bvp
0.0021417511161416
0.0026050254236906
0.0030213114805519
0.0033763200044631
0.0036608902737498
0.003872821573168
0.0040163020603358
0.0041001392528414
0.0041364138014614
0.0041402340866625
0.0041289590299129
0.0041196104139089
0.0041249077767133
0.0041505973786115
0.0041976515203714
0.0042652823030948
0.0043483506888151
0.004434501286596
0.0045076208189129
0.0045531438663601
0.0045594698749482
0.0045155244879424
0.0044070207513868
0.004213779233396
0.0039096865803003
0.0034671030007302
0.0028650669846683
0.0020965940784662
0.0011726182419806
0.0001239090925082
-0.0009993187850341
-0.0021332681644707
-0.0032126409932971
-0.004182216245681
-0.0050012646242976
-0.0056434138678014
-0.0060964240692555
-0.0063613452948629
-0.0064505832269787
-0.006385744549334
-0.0061947805806994
-0.0059087029658257
-0.0055592972785234
-0.0051773013547062
-0.0047896052710711
-0.004415865521878
-0.0040657385252416
-0.0037392538506537
-0.0034318228717893
-0.0031395617406815
-0.0028609384316951
-0.0025948698166757
-0.0023367761168628
-0.0020776828750967
-0.0018084769835695
-0.0015228355769068
-0.0012159359175711
-0.0008831401355564
-0.0005203956970945
-0.0001259326236322
0.0002973015652969
0.0007417777087539
0.0011990505736321
0.0016620120732113
0.0021228236146271
0.0025699040852487
0.0029881400987505
0.0033624947536736
0.0036824410781264
0.0039443969726562
0.0041501480154693
0.0043030781671404
0.0044069224968552
0.0044675953686237
0.0044943438842892
0.0044988244771957
0.0044928858987987
0.0044862520880997
0.0044869240373373
0.0045028608292341
0.0045397318899631
0.0045965276658535
0.0046634734608232
0.0047210450284183
0.004739437252283
0.004680864047259
0.0045042969286441
0.0041707521304488
0.0036502708680927
0.0029302842449396
0.0020211478695273
0.0009566018707118
-0.0002100357669405
-0.0014120549894869
-0.0025763306766748
-0.0036319587379693
-0.0045209564268589
-0.0052061062306165
-0.0056719863787293
-0.0059227379970252
-0.0059786424972116
-0.0058703040704131
-0.0056332210078835
-0.0053045162931084
-0.0049203764647245
-0.0045142015442252
-0.0041154874488711
-0.0037486050277948
-0.0034302938729524
-0.0031653384212404
-0.0029436168260872
-0.0027434665244072
-0.0025408831425011
-0.002317851409316
-0.0020657097920775
-0.0017847809940576
-0.0014819947537034
-0.0011672261171042
-0.000848293013405
-0.0005265055224299
-0.0001969410805031
0.0001467143301852
0.0005076638772152
0.0008844191906973
0.001271077315323
0.0016589949373155
0.0020399172790348
0.0024078316055238
0.002757430775091
0.0030818372033536
0.0033723576925694
0.0036196173168718
0.0038157443050295
0.0039571882225573
0.0040452894754707
0.0040852124802768
0.0040861601009964
0.004061032552272
0.0040237782523036
0.0039866766892373
0.0039592501707375
0.0039484621956944
0.0039597139693796
0.0039968215860426
0.0040590520948171
0.0041370908729732
0.0042098276317119
0.0042421361431479
0.0041860677301883
0.0039868569001555
0.0035918783396482
0.0029613925144076
0.002079350175336
0.0009598010219633
-0.0003530071116983
-0.0017896916251629
-0.0032649876084178
-0.0046880333684384
-0.0059714084491133
-0.0070408238098025
-0.0078457510098814
-0.0083665503188967
-0.0086127379909157
-0.0086138248443603
-0.0084110032767057
-0.0080528985708951
-0.0075910491868853
-0.0070734685286879
-0.0065396879799664
-0.0060196230188012
-0.0055344253778457
-0.0050963927060365
-0.0047085527330636
-0.0043649920262396
-0.0040501914918422
-0.0037400017026811
-0.0034097565803676
-0.0030447505414485
-0.0026425814721733
-0.0022075898014009
-0.0017455609049648
-0.0012614348670467
-0.0007587159052491
-0.0002405883278697
0.0002880670363083
0.0008198269642889
0.001346098491922
0.0018589841201901
0.0023512847255915
0.0028158735949546
0.003247729036957
0.0036473856307566
0.0040196808986365
0.0043679270893335
0.0046900263987481
0.0049785370938479
0.0052241273224353
0.0054204771295189
0.0055664260871708
0.005665757227689
0.0057265572249889
0.0057587404735386
0.0057708621025085
0.0057691978290677
0.0057581262663006
0.0057405983097851
0.0057197287678718
0.005699835717678
0.005684177391231
0.0056717628613114
0.005656364839524
0.0056255096569657
0.0055575538426637
0.0054201306775212
0.0051732589490711
0.0047754603438079
0.0041899541392922
0.0033913562074303
0.0023729763925075
0.0011519257677718
-0.0002288516843691
-0.0017014952609315
-0.0031794165261089
-0.0045697968453168
-0.0057896813377738
-0.0067792222835123
-0.0075064413249492
-0.0079656364396214
-0.0081734219565987
-0.0081622200086712
-0.0079729529097676
-0.0076506100594997
-0.0072413119487464
-0.0067876344546675
-0.0063237659633159
-0.0058736214414238
-0.0054510179907083
-0.0050598829984664
-0.0046959002502262
-0.0043507730588316
-0.0040166093967854
-0.0036877712700515
-0.0033606158103793
-0.0030327739659696
-0.0027013071812689
-0.0023602796718478
-0.0020007737912237
-0.0016129780560731
-0.0011888438602909
-0.000725382589735
-0.0002267062664031
0.0002973123919218
0.0008342420915141
0.001371684949845
0.0018990982789546
0.0024079610593616
0.0028892601840198
0.0033315974287688
0.0037229340523481
0.0040539186447858
0.0043194610625505
0.0045182453468441
0.0046525686047971
0.0047299964353442
0.0047652320936322
0.0047782994806766
0.0047876005992293
0.0048038717359304
0.0048307897523045
0.0048684454523026
0.0049151973798871
0.0049686338752508
0.0050251274369657
0.0050782486796379
0.0051184352487325
0.0051335468888282
0.0051090512424707
0.0050267805345356
0.0048617455177009
0.0045804879628121
0.0041447472758591
0.0035202715080231
0.0026877159252762
0.0016512451693415
0.0004419193137437
-0.0008846349082887
-0.002254901221022
-0.0035873635206371
-0.0048054018989205
-0.0058480193838477
-0.0066727483645081
-0.0072546442970633
-0.0075865173712372
-0.0076782065443694
-0.007553688250482
-0.0072487867437303
-0.0068094348534941
-0.0062876958400011
-0.0057350825518369
-0.0051958095282316
-0.0047021964564919
-0.0042725475504994
-0.0039104190655052
-0.0036052681971341
-0.0033379418309777
-0.0030900940764695
-0.00284897047095
-0.0026052065659314
-0.002350476803258
-0.0020774966105818
-0.0017793637234717
-0.0014496520161628
-0.0010855046566575
-0.000689317646902
-0.0002661682083271
0.000179075228516
0.0006417233962565
0.0011158083798363
0.0015942745376378
0.0020699012093245
0.0025340472348034
0.0029751169495284
0.0033797342330217
0.0037365504540503
0.0040400708094239
0.0042900326661765
0.0044875717721879
0.0046344241127371
0.004735009279102
0.0047961985692381
0.004824380390346
0.0048247929662466
0.0048040333203971
0.0047711669467389
0.0047376337461173
0.0047164070419967
0.0047159795649349
0.0047336788848042
0.004757301416248
0.0047722654417157
0.00476617179811
0.0047281417064368
0.0046446770429611
0.0044947038404643
0.0042474116198718
0.003864571917802
0.0033050826750695
0.0025318104308098
0.001523322192952
0.0002877253573387
-0.0011294540017843
-0.0026501298416405
-0.0041806963272392
-0.0056312074884772
-0.0069262976758182
-0.0080083590000867
-0.0088387541472911
-0.0093977935612201
-0.0096831303089857
-0.0097093190997838
-0.0095080146566033
-0.0091246552765369
-0.0086115542799234
-0.0080207586288452
-0.0073983534239232
-0.0067802341654896
-0.0061897658742964
-0.0056387870572507
-0.0051318197511136
-0.0046695917844772
-0.0042489981278777
-0.0038623416330665
-0.0034985889215022
-0.0031446043867617
-0.0027852589264512
-0.0024044059682637
-0.0019872859120368
-0.0015231850557029
-0.0010082492372021
-0.0004474649904295
0.0001462359214201
0.0007552688475698
0.0013618401717394
0.0019523873925209
0.0025182936806231
0.0030518544372171
0.0035435783211141
0.0039842762053012
0.0043683070689439
0.0046956082805991
0.0049719675444066
0.0052062533795833
0.0054063899442553
0.0055777765810489
0.0057238200679421
0.0058458549901843
0.0059436801820993
0.0060186134651303
0.0060765198431909
0.0061274953186511
0.0061812051571905
0.0062410323880612
0.0063017532229423
0.006351220421493
0.0063748699612915
0.0063612991943955
0.0063057956285774
0.0062109380960464
0.0060848575085401
0.0059371409006416
0.0057727033272385
0.005585775244981
0.0053568044677376
0.0050529120489954
0.0046321083791553
0.0040510385297238
0.003273379523307
0.0022776119876652
0.0010654083453118
-0.0003323378041386
-0.0018565866630524
-0.0034271827898919
-0.0049524856731295
-0.0063419640064239
-0.0075202826410532
-0.0084359990432858
-0.0090632857754826
-0.0094009554013609
-0.0094687957316637
-0.0093017797917127
-0.0089447554200887
-0.0084477541968226
-0.0078629497438669
-0.0072422567754983
-0.0066335606388747
-0.006076605990529
-0.0055990442633628
-0.0052133351564407
-0.0049161058850586
-0.0046901660971343
-0.0045079155825078
-0.0043357172980904
-0.0041397977620363
-0.0038913399912416
-0.0035690057557076
-0.0031616094056516
-0.0026704031042754
-0.0021072449162602
-0.0014908362645655
-0.0008441102690994
-0.0001910260180011
0.0004471228457987
0.0010535501642152
0.0016166546847671
0.0021308693103492
0.0025962884537875
0.0030160679016262
0.0033935359679162
0.0037307934835553
0.0040282080881297
0.0042845057323575
0.004498740658164
0.0046740900725126
0.004819325171411
0.0049436944536864
0.0050501208752393
0.0051352116279304
0.0051941014826297
0.0052239708602428
0.00522549636662
0.0052029425278306
0.0051631461828947
0.0051142061129212
0.0050643263384699
0.0050195846706628
0.0049789305776357
0.0049283364787697
0.0048388391733169
0.004670385736972
0.0043781241402029
0.0039174580015242
0.0032508568838238
0.0023598014377057
0.0012549924431368
-2.252275589853525e-05
-0.0014065332943573
-0.0028135653119534
-0.0041539277881383
-0.0053445068188011
-0.0063192127272486
-0.0070338640362024
-0.0074667306616902
-0.0076183080673217
-0.0075101559050381
-0.0071808169595897
-0.0066803260706365
-0.0060660135932266
-0.0053991065360605
-0.0047397715970873
-0.0041400361806154
-0.0036362193059176
-0.0032443376258015
-0.0029614833183586
-0.0027706252876669
-0.002644311171025
-0.0025484401267021
-0.0024485830217599
-0.0023155724629759
-0.0021262622904032
-0.0018616484012454
-0.0015072197420522
-0.0010564386611804
-0.0005155504914
9.363098070025444e-05
0.0007376925786957
0.0013814815320074
0.0019958079792559
0.0025583088863641
0.0030520749278366
0.003466566093266
0.0037986976094543
0.0040519870817661
0.0042354241013526
0.0043628099374473
0.0044504702091217
0.0045137819834053
0.0045662662014365
0.0046198545023798
0.0046812295913696
0.0047477059997618
0.0048097856342792
0.0048575703985989
0.0048841391690075
0.004884717054665
0.0048553864471614
0.0047950195148587
0.0047082551755011
0.0046051228418946
0.0044971322640776
0.0043902019970119
0.0042761708609759
0.0041283583268523
0.0039036781527101
0.0035495799966156
0.0030135612469166
0.0022538555786013
0.0012517208233475
2.2041145712137226e-05
-0.0013854518765583
-0.0028950287960469
-0.0044174725189805
-0.0058623789809644
-0.0071479082107543
-0.0082066105678677
-0.0089904107153415
-0.0094763543456792
-0.0096686780452728
-0.0095935771241784
-0.0092898206785321
-0.0088016549125313
-0.008176838979125
-0.007467208430171
-0.006727481726557
-0.0060104359872639
-0.0053598689846694
-0.0048042652197182
-0.004353245254606
-0.0039981491863727
-0.0037166876718401
-0.0034790376666933
-0.0032535437494516
-0.0030113412067294
-0.002728528343141
-0.0023862747475504
-0.0019711018539965
-0.00147674838081
-0.0009069964289665
-0.0002770798746496
0.0003879498690366
0.0010579073568806
0.0017035872442647
0.0023017751518636
0.0028390299994498
0.0033132683020085
0.003729669842869
0.0040938919410109
0.0044095544144511
0.0046798666007816
0.0049095647409558
0.0051062563434243
0.0052816686220467
0.0054503288120031
0.0056226113811135
0.0057977731339633
0.0059646507725119
0.006108006928116
0.0062152058817446
0.0062794773839414
0.0062985587865114
0.0062730279751122
0.00620730035007
0.0061102602630853
0.0059934179298579
0.0058681974187493
0.0057440949603915
0.0056277513504028
0.005521657411009
0.0054200636222958
0.0053008287213742
0.0051189996302127
0.0048115872777998
0.0043131103739142
0.0035722232423722
0.0025642747059464
0.0012996930163353
-0.0001743726897984
-0.0017805438255891
-0.0034224004484713
-0.0049972077831625
-0.0064085549674928
-0.0075772907584905
-0.0084494976326823
-0.0089991698041558
-0.0092265326529741
-0.0091568380594253
-0.0088379783555865
-0.0083331149071455
-0.0077115250751376
-0.0070413560606539
-0.0063841892406344
-0.0057900357060134
-0.0052920402958989
-0.0049025267362594
-0.0046129031106829
-0.0043983119539916
-0.0042257099412381
-0.0040613822638988
-0.003874922869727
-0.0036411522887647
-0.00334202661179
-0.0029687890782952
-0.0025232257321476
-0.0020164996385574
-0.0014655471313744
-0.0008879305096343
-0.0002985240425914
0.0002893639029935
0.0008628004579804
0.0014111686032265
0.0019277499523013
0.0024081435985863
0.0028473455458879
0.0032393080182373
0.003579500131309
0.0038679749704897
0.004110338166356
0.0043144114315509
0.0044857370667159
0.0046267425641417
0.0047379462048411
0.0048194066621363
0.0048727411776781
0.004902122542262
0.0049137324094772
0.0049139731563627
0.0049072061665356
0.0048956698738038
0.0048816236667335
0.0048679593019187
0.0048568099737167
0.0048503587022423
0.0048521934077143
0.004862698726356
0.0048704710789024
0.0048478399403393
0.0047539756633341
0.0045422897674143
0.0041676820255815
0.0035938811488449
0.0028021335601806
0.0017980160191655
0.0006128540262579
-0.0006994744762778
-0.002068699337542
-0.0034167105332016
-0.0046672290191054
-0.005754548124969
-0.006629423238337
-0.0072618634440004
-0.007641508243978
-0.0077764322049915
-0.007692084647715
-0.0074290186166763
-0.0070360228419303
-0.0065615214407444
-0.0060497825033962
-0.0055416743271052
-0.0050734472461044
-0.0046709198504686
-0.0043442598544061
-0.0040890118107199
-0.0038909481372684
-0.0037288393359631
-0.0035763576161116
-0.003407065058127
-0.0032002374064177
-0.0029436482582241
-0.0026329543907195
-0.0022690135519951
-0.0018558081937953
-0.0014001419767737
-0.0009109051316045
-0.0003978348104283
0.0001285304315388
0.0006563311908394
0.0011727651581168
0.0016657750820741
0.0021259784698486
0.0025487744715064
0.0029360591433942
0.0032937652431428
0.0036254595033824
0.0039281281642615
0.0041935876943171
0.0044128517620265
0.004578951280564
0.004688027780503
0.0047418172471225
0.0047503840178251
0.0047305021435022
0.0046993377618491
0.0046685640700161
0.0046440558508038
0.004630739800632
0.0046355258673429
0.0046619055792689
0.0046993121504783
0.0047169597819447
0.0046671344898641
0.0044944202527403
0.0041463207453489
0.0035833893343806
0.0027875648811459
0.0017676027491688
0.0005598049610853
-0.000776398810558
-0.0021652085706591
-0.0035224696621298
-0.0047667119652032
-0.0058305170387029
-0.0066661848686635
-0.0072460980154573
-0.0075624678283929
-0.0076270876452326
-0.0074695702642202
-0.0071336086839437
-0.0066712098196148
-0.0061364816501736
-0.005580810829997
-0.0050479155033826
-0.0045680995099246
-0.0041552809998393
-0.0038087018765509
-0.0035169338807463
-0.0032620949205011
-0.0030236146412789
-0.0027798148803412
-0.002508770674467
-0.0021923664025962
-0.0018207828979939
-0.0013930236455053
-0.0009154005674645
-0.0003999252803623
0.0001378833549097
0.0006814653752371
0.001215829513967
0.0017300681211054
0.0022181330714374
0.0026773302815854
0.0031063850037753
0.0035042944364249
0.0038703982718288
0.0042054839432239
0.0045113107189536
0.0047881798818707
0.005033834837377
0.0052438890561461
0.0054122847504913
0.0055326353758573
0.0056005083024501
0.0056148674339056
0.0055787535384297
0.0055008251219987
0.0053955763578414
0.0052787885069847
0.0051619196310639
0.0050518298521637
0.0049546095542609
0.0048773819580674
0.0048253838904201
0.0047972965985536
0.0047833886928856
0.0047668484039604
0.0047255549579858
0.0046324245631694
0.0044539924710989
0.0041498648934066
0.0036776431370526
0.003003169549629
0.0021101892925798
0.0010059201158583
-0.0002767066471278
-0.0016811741515994
-0.003134258557111
-0.0045536179095506
-0.0058557405136525
-0.0069671832025051
-0.0078355986624956
-0.0084348749369382
-0.0087641542777419
-0.008843595162034
-0.0087086912244558
-0.0084033571183681
-0.007973781786859
-0.0074656419456005
-0.0069226333871483
-0.0063837589696049
-0.0058807921595871
-0.005436694715172
-0.0050631635822355
-0.0047574797645211
-0.0045025893487036
-0.0042734583839774
-0.0040456559509038
-0.0037990941200405
-0.003517041914165
-0.0031857017893344
-0.0027971246745437
-0.0023529268801212
-0.0018630432896316
-0.0013399113668128
-0.0007946663536131
-0.0002376955235376
0.0003191027790307
0.0008626283961348
0.0013829477829858
0.0018763043917715
0.0023424532264471
0.002779834670946
0.0031832775566726
0.0035451480653136
0.0038592270575463
0.0041245408356189
0.0043448652140796
0.0045255725271999
0.0046733259223401
0.0047965701669454
0.0049028033390641
0.0049966685473918
0.0050812941044569
0.005158731713891
0.0052290740422904
0.0052913390100002
0.0053448416292667
0.005387736018747
0.0054143453016877
0.0054158573038876
0.0053840079344809
0.0053140558302402
0.005205885041505
0.0050623761489987
0.0048850663006305
0.0046692192554473
0.0043997047469019
0.0040505174547433
0.0035898084752261
0.0029874457977712
0.002222989918664
0.0012938752770423
0.0002205653581768
-0.0009556545410305
-0.0021812180057168
-0.0033986757043749
-0.0045511643402278
-0.0055856183171272
-0.0064578792080283
-0.0071375332772731
-0.007609236985445
-0.0078718559816479
-0.0079367831349372
-0.0078250747174024
-0.007565151900053
-0.0071916473098099
-0.0067430166527628
-0.0062576718628406
-0.005770978052169
-0.0053134653717279
-0.0049083502963185
-0.0045691095292568
-0.0042992332018911
-0.0040921429172158
-0.0039306432008743
-0.0037896172143518
-0.0036413569469004
-0.0034597087651491
-0.0032230452634394
-0.0029171505011618
-0.0025372928939759
-0.0020885162521153
-0.0015830423217266
-0.0010357233695685
-0.0004614643985405
0.0001241427380591
0.0007035716553218
0.0012573280837386
0.0017659910954535
0.002214640378952
0.0025967778638005
0.0029139276593923
0.0031725205481052
0.0033823205158114
0.0035558296367526
0.0037061243783682
0.0038434208836406
0.0039728991687297
0.0040970095433294
0.0042205080389976
0.0043507004156708
0.004491445608437
0.0046383901499211
0.0047794445417821
0.0048984163440763
0.0049803522415459
0.0050166263245046
0.0050059556961059
0.0049504139460623
0.0048496294766664
0.0046962792985141
0.004473544191569
0.0041553527116775
0.003711218945682
0.0031149936839938
0.0023544875439256
0.0014388407580554
0.000399860960897
-0.0007140883244574
-0.0018472186056897
-0.0029430722352117
-0.0039483336731791
-0.0048150797374546
-0.0055019743740558
-0.0059777842834591
-0.0062287780456244
-0.0062631228938698
-0.0061074425466358
-0.0057998015545308
-0.0053840866312384
-0.0049058515578508
-0.0044070766307413
-0.0039213025011122
-0.0034735328517854
-0.0030823678243905
-0.0027589404489845
-0.0025043007917702
-0.0023093014024198
-0.0021567274816334
-0.0020236717537045
-0.0018844783771783
-0.0017145357560366
-0.0014939472312107
-0.0012111319229006
-0.0008647292852401
-0.0004617961822077
-1.420371700078249e-05
0.0004642078420147
0.0009592113783583
0.0014565757010132
0.0019420825410634
0.0024028862826526
0.002829116070643
0.003213093150407
0.003547724802047
0.0038273250684142
0.0040508485399186
0.0042237238958477
0.0043547851964831
0.0044516469351947
0.0045200185850262
0.0045652436092495
0.0045927893370389
0.0046088020317256
0.0046204524114727
0.004633795004338
0.0046506002545356
0.0046678292565047
0.0046794256195425
0.0046780002303421
0.0046568606048822
0.0046119443140923
0.0045406543649733
0.0044372854754328
0.0042881667613983
0.004069254733622
0.0037470159586519
0.0032834177836775
0.0026460466906428
0.0018204976804554
0.0008169589564204
-0.0003332564374431
-0.0015844913432374
-0.0028803837485611
-0.0041569336317479
-0.0053484970703721
-0.0063954535871744
-0.0072502866387367
-0.0078810174018144
-0.0082732830196619
-0.0084305275231599
-0.0083711836487054
-0.0081253135576844
-0.0077321510761976
-0.0072362278588116
-0.0066820438951253
-0.0061099641025066
-0.0055544828064739
-0.0050432370044291
-0.0045942706055939
-0.0042131533846259
-0.0038937726058065
-0.0036222964990884
-0.0033806581050157
-0.0031478609889745
-0.0029010190628468
-0.0026175300590693
-0.0022780089639127
-0.0018705470720306
-0.0013945550890639
-0.0008599157445132
-0.0002813385799527
0.0003260225057601
0.0009449927601963
0.0015533964615315
0.0021265996620059
0.0026439232751727
0.0030933963134884
0.0034732050262391
0.0037897478323429
0.0040531018748879
0.0042733796872198
0.0044598425738513
0.0046210307627916
0.0047638700343668
0.0048923115245997
0.0050088996067643
0.0051193730905652
0.0052339155226945
0.0053607416339218
0.0054976977407932
0.0056310407817363
0.005741111934185
0.0058087208308279
0.0058204247616231
0.0057713622227311
0.0056647071614861
0.0055106622166931
0.0053253876976668
0.0051274793222546
0.0049316552467644
0.0047418628819286
0.0045476807281374
0.0043257032521069
0.0040418719872832
0.0036519621498882
0.0031059025786817
0.0023608996998518
0.0013980413787066
0.0002327805850654
-0.0010861327173188
-0.0024870398920029
-0.0038882344961166
-0.0052091851830482
-0.0063784411177039
-0.0073379464447498
-0.0080469399690628
-0.0084858415648341
-0.0086566787213087
-0.0085807275027036
-0.0082955984398722
-0.0078513640910387
-0.007305696606636
-0.0067179603502154
-0.0061422204598784
-0.0056203948333859
-0.0051767635159194
-0.0048157279379665
-0.0045250318944454
-0.0042827115394175
-0.0040631843730807
-0.0038408276159316
-0.0035925682168453
-0.0033013024367392
-0.0029582167044281
-0.0025604777038097
-0.0021082311868667
-0.0016062729991972
-0.0010659414110705
-0.000502215581946
6.971473339945078e-05
0.0006343731074593
0.0011756337480619
0.0016783102182671
0.0021302048116922
0.0025247379671782
0.0028630392625927
0.0031525641679763
0.0034033115953207
0.0036245035007596
0.0038236349355429
0.0040085194632411
0.0041884672828018
0.0043707126751542
0.0045554898679256
0.0047358539886772
0.0049020331352949
0.0050449324771761
0.0051568346098065
0.005231752526015
0.0052666631527245
0.0052625969983637
0.0052235098555684
0.0051537007093429
0.0050584152340888
0.0049463454633951
0.0048275343142449
0.0047062980011105
0.0045738932676613
0.0044045718386769
0.004156669601798
0.0037793735973536
0.0032243055757135
0.0024585963692516
0.0014754988951608
0.0002997443079948
-0.0010138778015971
-0.002387871267274
-0.0037330603227019
-0.0049613397568464
-0.0059977211058139
-0.0067895073443651
-0.0073101171292364
-0.0075564538128674
-0.0075443554669618
-0.007306876592338
-0.006893215700984
-0.0063634528778493
-0.0057796714827418
-0.00519784912467
-0.0046620978973805
-0.0042018145322799
-0.0038318245206028
-0.0035524973645806
-0.0033506762702018
-0.0032049694564193
-0.0030913236550986
-0.0029844378586858
-0.0028578222263604
-0.002685054205358
-0.0024432046338915
-0.0021186093799769
-0.0017114648362621
-0.0012355828657746
-0.0007132666651159
-0.0001686330069787
0.0003765154397115
0.0009036450646817
0.0013979749055579
0.0018500853329896
0.0022567971609532
0.0026188264600932
0.0029375874437391
0.0032151490449905
0.0034560698550194
0.0036680763587355
0.0038596442900598
0.0040349890477955
0.004191949032247
0.0043253959156572
0.0044315648265182
0.0045095193199813
0.0045601851306855
0.0045848777517676
0.0045855278149247
0.0045662792399525
0.0045335129834711
0.0044940044172108
0.0044538336805999
0.0044191083870828
0.0043971482664346
0.0043952451087534
0.0044132019393146
0.0044315201230347
0.0044057709164917
0.0042736940085887
0.0039697606116533
0.0034394047688692
0.0026500113308429
0.0015975073911249
0.0003077699802815
-0.0011646073544397
-0.002738689770922
-0.0043150959536433
-0.0057908329181373
-0.007074792869389
-0.0080986907705664
-0.008822089061141
-0.0092325257137417
-0.0093438420444726
-0.0091931913048028
-0.0088352421298623
-0.0083340946584939
-0.0077541475184261
-0.0071520670317113
-0.0065725645981729
-0.0060466011054813
-0.0055894888937473
-0.005201834719628
-0.0048739542253315
-0.0045885220170021
-0.0043222797103226
-0.0040495707653462
-0.0037443998735398
-0.0033825263381004
-0.0029475395567715
-0.0024362988770008
-0.0018593048444017
-0.0012370498152449
-0.0005940914852544
4.679872654378414e-05
0.0006684815743938
0.0012603682698681
0.001816381001845
0.0023322030901908
0.0028046509250998
0.0032328930683434
0.0036189646925777
0.003968094009906
0.0042896922677755
0.0045948806218802
0.004889250267297
0.0051679164171218
0.0054185288026928
0.0056290533393621
0.0057927314192056
0.0059077022597193
0.0059765488840639
0.0060078920796513
0.006015014834702
0.0060107549652457
0.006003875285387
0.0059982724487781
0.0059927683323621
0.0059824706986546
0.0059633245691657
0.0059356871061027
0.0059022069908678
0.0058632222935557
0.0058155660517513
0.005754109006375
0.0056715747341513
0.0055557624436914
0.0053857173770666
0.0051287594251334
0.0047420021146535
0.0041798306629061
0.0034045409411191
0.0023971912451088
0.001166196539998
-0.0002488638274371
-0.0017789544072002
-0.0033344463445246
-0.0048216930590569
-0.0061598825268447
-0.0072900243103504
-0.008176022209227
-0.0088020591065287
-0.0091699622571468
-0.009297190234065
-0.0092141302302479
-0.0089603755623102
-0.0085802283138036
-0.008117701858282
-0.0076125967316329
-0.0070993797853589
-0.0066064712591469
-0.0061520868912339
-0.0057409456931054
-0.0053687216714024
-0.0050290692597627
-0.0047150840982794
-0.0044173072092235
-0.004123352933675
-0.003819887060672
-0.0034939635079354
-0.0031324648298323
-0.0027227657847106
-0.0022561016958206
-0.0017310157418251
-0.0011542703723534
-0.0005390829173848
9.83133213594556e-05
0.0007428757380694
0.0013828864321112
0.0020070225000381
0.0026001464575529
0.0031433084513992
0.0036171693354845
0.0040071653202176
0.0043091024272143
0.0045310510322451
0.0046893451362848
0.0048029161989688
0.0048902765847742
0.0049674087204039
0.0050457315519452
0.0051319389604032
0.0052298456430435
0.0053431633859872
0.0054746232926845
0.0056199776008725
0.0057650706730782
0.0058900034055113
0.0059746918268501
0.0060037737712264
0.0059712841175496
0.0058806319721043
0.0057407366111874
0.0055639650672674
0.005363717675209
0.0051498427055776
0.0049259103834629
0.0046877516433596
0.0044210911728441
0.0041012074798345
0.0036954630631953
0.0031664897687733
0.0024778496008366
0.0016035323496907
0.0005375535693019
-0.0007000407204031
-0.0020626427140086
-0.0034817070700228
-0.0048756250180304
-0.0061625717207789
-0.0072726192884147
-0.0081535466015338
-0.0087721236050128
-0.0091157564893364
-0.0091938562691211
-0.0090352203696966
-0.008683362044394
-0.0081932451575994
-0.0076271812431514
-0.0070474850945174
-0.0065071946009993
-0.0060422583483159
-0.0056687872856855
-0.0053856107406318
-0.0051792287267744
-0.0050278208218514
-0.0049036727286875
-0.0047763716429471
-0.0046165320090949
-0.00439821369946
-0.0041016726754605
-0.0037161284126341
-0.0032397264149039
-0.0026791265700012
-0.0020509941969066
-0.0013817598810419
-0.0007029045955277
-4.362541949376464e-05
0.0005746065289713
0.0011381524382159
0.0016386082861572
0.00207280064933
0.002443678677082
0.002758010989055
0.0030237301252782
0.0032495083287358
0.0034453556872904
0.0036243386566638
0.0038024061359465
0.0039922222495079
0.0041963984258472
0.0044071651063859
0.00461030844599
0.0047898143529891
0.0049327369779348
0.0050320881418883
0.0050868699327111
0.0051022190600633
0.0050893211737275
0.0050620515830814
0.0050320653244853
0.0050050280988216
0.0049772039055824
0.0049324170686304
0.004841364454478
0.0046634320169687
0.0043511330150067
0.0038594477809965
0.0031584580428898
0.0022435956634581
0.0011395761976018
-0.000102823250927
-0.0014144290471449
-0.0027160034514963
-0.0039268061518669
-0.0049744457937777
-0.0058043147437274
-0.0063849869184195
-0.0067075164988636
-0.0067806337028741
-0.0066274660639464
-0.0062864776700735
-0.0058118025772273
-0.0052671637386083
-0.0047151297330856
-0.0042076539248228
-0.0037806089967489
-0.0034516188316047
-0.0032193735241889
-0.0030647576786577
-0.0029560469556599
-0.0028576711192727
-0.0027386122383177
-0.0025770606007426
-0.0023597180843353
-0.002077046316117
-0.0017214260296896
-0.0012920233421027
-0.0007994470652192
-0.000264172325842
0.0002888378221541
0.0008352858712896
0.0013549129944294
0.0018335247877985
0.0022644207347184
0.0026484141126275
0.0029917233623564
0.0033020807895809
0.0035846950486302
0.0038412027060985
0.0040722051635384
0.0042801480740308
0.0044696861878037
0.0046453792601823
0.0048086969181895
0.0049569280818104
0.0050848792307078
0.0051869791932404
0.0052577997557818
0.0052929986268281
0.0052912379615008
0.0052547818049788
0.0051892101764678
0.0051026372238993
0.0050035011954605
0.004898939281702
0.0047957166098058
0.0047022532671689
0.0046276315115392
0.0045745004899799
0.0045302715152502
0.0044634449295699
0.0043259039521217
0.0040606837719678
0.0036140037700533
0.002946657128632
0.0020422819070518
0.000912811839953
-0.0004005443770438
-0.0018317189533263
-0.0032986649312078
-0.0047148261219263
-0.0059991437010467
-0.0070823659189045
-0.0079132569953799
-0.0084664933383464
-0.0087460912764072
-0.0087807551026344
-0.0086151203140616
-0.0083007244393229
-0.0078891701996326
-0.007428275886923
-0.0069587808102369
-0.0065110940486192
-0.0061047235503792
-0.0057495469227433
-0.0054461425170302
-0.0051867011934518
-0.0049570254050195
-0.004736989736557
-0.0045020058751106
-0.0042290734127163
-0.0039031882770359
-0.0035191506613045
-0.0030794960912317
-0.0025914348661899
-0.00206503062509
-0.0015119973104447
-0.0009441598085686
-0.0003734710626304
0.0001877669710665
0.0007291527581401
0.0012433904921635
0.0017245846102014
0.0021683713421225
0.0025750396307557
0.0029502785764634
0.0033014384098351
0.003633119398728
0.0039452258497476
0.0042338073253631
0.0044934777542948
0.0047197109088301
0.0049105705693364
0.0050672967918217
0.0051933228969573
0.005293617490679
0.0053743864409625
0.0054410672746598
0.0054965312592685
0.0055422554723918
0.0055808150209486
0.005616174545139
0.005650304723531
0.0056793834082782
0.0056938747875392
0.0056815538555383
0.0056298822164535
0.0055259689688682
0.0053546889685094
0.0050965957343578
0.0047271754592657
0.0042194020934402
0.0035502801183611
0.0027087237685918
0.0017006006091833
0.0005499727558344
-0.000700608594343
-0.0019918857142329
-0.0032565998844802
-0.0044316221028566
-0.0054651340469717
-0.006319023668766
-0.0069705811329185
-0.007413072977215
-0.0076542384922504
-0.0077137816697359
-0.0076203094795346
-0.0074071870185434
-0.007107863202691
-0.0067531615495681
-0.006370672956109
-0.0059830630198121
-0.0056055635213851
-0.0052460534498095
-0.0049081523902714
-0.0045941970311105
-0.0043056258000433
-0.004041121341288
-0.0037940070033073
-0.0035508340224623
-0.0032927170395851
-0.0029999040998518
-0.002658270066604
-0.0022632384207099
-0.0018192549468949
-0.0013371795648708
-0.0008300292538478
-0.0003089957172051
0.000216991174966
0.0007397375302389
0.0012502635363489
0.0017376532778143
0.0021906865295022
0.0026021092198789
0.0029698822181671
0.0032933559268712
0.0035700090229511
0.0037965853698551
0.0039723245427012
0.0041011027060449
0.0041911518201231
0.004253024701029
0.0042977235279977
0.0043359994888305
0.0043786475434899
0.0044356668367981
0.0045124692842364
0.0046064713969826
0.0047075995244085
0.0048015532083809
0.004873480182141
0.0049097565934062
0.0048968694172799
0.0048193139955401
0.004657779354602
0.0043874573893845
0.003979445900768
0.0034083887003362
0.0026628649793565
0.0017531136982142
0.000713795539923
-0.0004002875648438
-0.0015255149919539
-0.0026016358751803
-0.0035775145515799
-0.0044109988957643
-0.0050692982040345
-0.0055319583043456
-0.0057932594791054
-0.0058613675646483
-0.0057553462684154
-0.0055032228119671
-0.0051408493891358
-0.0047095520421862
-0.0042525818571448
-0.0038093486800789
-0.0034082953352481
-0.0030645211227238
-0.0027838293462991
-0.0025661417748779
-0.0024036772083491
-0.00227867718786
-0.0021667261607944
-0.0020436770282685
-0.0018898430280387
-0.0016902511706575
-0.0014352336293086
-0.0011230172822251
-0.0007604554994031
-0.0003597305621951
6.550038233399391e-05
0.0005022038822062
0.0009402997093275
0.0013744982425123
0.0018014834495261
0.0022142743691802
0.0026007634587585
0.0029476508498191
0.0032445497345179
0.0034853324759751
0.0036691077984869
0.0038015462923794
0.0038940645754337
0.0039610341191291
0.004016273189336
0.0040695420466363
0.0041249692440032
0.0041829156689345
0.004243697039783
0.0043086581863462
0.0043766032904386
0.0044399187900125
0.0044865263625979
0.0045064310543239
0.0044943979009985
0.0044456836767494
0.00435092439875
0.0041944622062146
0.0039548226632177
0.0036070835776627
0.0031277076341211
0.002499772934243
0.0017164378659799
0.0007839392637833
-0.0002736742608249
-0.0014125728048384
-0.0025765844620764
-0.0037094028666615
-0.0047616502270102
-0.0056920899078249
-0.0064677824266254
-0.0070646051317453
-0.0074680289253592
-0.0076749012805521
-0.007695757318288
-0.0075548798777163
-0.0072855371981859
-0.0069238329306244
-0.0065058483742177
-0.0060648932121694
-0.0056264265440404
-0.0052062175236642
-0.0048138727433979
-0.0044557061046361
-0.0041340249590575
-0.0038452267181128
-0.0035781250335276
-0.0033136557321995
-0.0030283827800303
-0.002701458055526
-0.0023206791374832
-0.0018847513711079
-0.0014017989160493
-0.000885920249857
-0.0003536141011863
0.0001807252410799
0.0007091409061104
0.0012291683815419
0.001737444079481
0.0022254956420511
0.0026813871227204
0.0030934228561818
0.0034534721635282
0.0037591005675494
0.0040129777044057
0.0042201122269034
0.0043855649419128
0.0045148991048336
0.0046162204816937
0.0046994579024612
0.004772697109729
0.0048408969305455
0.0049077025614678
0.0049759768880903
0.0050460482016205
0.0051139388233423
0.0051716514863073
0.0052098031155765
0.0052209799177944
0.0052025341428816
0.005157274659723
0.0050908117555081
0.0050074886530637
0.0049056308344006
0.0047724856995046
0.0045834071934223
0.004305905662477
0.0039048215840011
0.0033492520451545
0.0026206322945654
0.0017166704637929
0.0006513943662866
-0.0005435576895251
-0.0018173158168792
-0.0031033551786094
-0.0043291528709232
-0.0054274029098451
-0.0063442178070545
-0.0070427889004349
-0.0075042275711894
-0.0077274520881474
-0.0077280644327402
-0.0075356373563408
-0.0071892621926963
-0.0067328074946999
-0.0062120319344103
-0.0056726299226284
-0.0051563535816967
-0.0046959402970969
-0.0043116733431816
-0.0040094959549605
-0.0037808865308761
-0.0036063429433852
-0.0034604829270392
-0.0033157630823552
-0.0031456847209483
-0.0029277298599481
-0.0026453803293406
-0.0022903191857039
-0.001863497076556
-0.0013724311720579
-0.0008278526365756
-0.0002449663588777
0.000353894312866
0.0009419053094461
0.0014932784251868
0.0019861932378262
0.0024046655744314
0.0027420725673437
0.0030036689713597
0.0032046372070908
0.0033646442461758
0.0035017067566514
0.0036281202919781
0.0037517552264034
0.0038802223280072
0.0040212133899331
0.0041790199466049
0.0043519642204046
0.004532451275736
0.004707645624876
0.0048607061617076
0.0049750190228223
0.0050389217212796
0.0050468184053897
0.0049991342239081
0.0049044177867472
0.0047798110172152
0.0046444456093013
0.0045081069692969
0.0043632900342345
0.0041853166185319
0.0039391871541738
0.0035886829718947
0.0031027914956212
0.0024596625007689
0.0016519561177119
0.0006921337917447
-0.0003860353026539
-0.0015299719525501
-0.0026750210672616
-0.0037542704958468
-0.0047068786807358
-0.0054839188233017
-0.0060541909188032
-0.0064075575210154
-0.0065521611832082
-0.0065084574744105
-0.0063045662827789
-0.0059744622558355
-0.005558670964092
-0.0051038055680692
-0.0046571046113967
-0.004257908090949
-0.003931360784918
-0.0036862592678517
-0.003516040276736
-0.0034025555942207
-0.003321077208966
-0.0032447683624923
-0.0031486544758081
-0.0030118685681372
-0.0028178899083286
-0.002555064857006
-0.0022172280587255
-0.0018034860258921
-0.0013191568432375
-0.0007779181469231
-0.0002016614889726
0.0003835332463495
0.0009523192420601
0.0014826820697635
0.0019573343452066
0.0023650932125747
0.0027010114863514
0.0029658069834113
0.0031656478531658
0.0033118361607193
0.0034197829663753
0.0035070460289716
0.003590959822759
0.0036853444762527
0.0037958398461341
0.0039176996797323
0.004039385356009
0.0041487491689622
0.0042372192256152
0.0043008835054934
0.0043395324610173
0.0043551218695938
0.004350381437689
0.004326696973294
0.0042799520306289
0.004195608664304
0.0040466417558491
0.0037976943422108
0.0034147296100854
0.0028733934741467
0.0021621510386466
0.0012846121098846
0.0002632972318679
-0.0008593002567067
-0.0020248531363904
-0.0031676029320806
-0.0042239800095558
-0.0051393886096775
-0.0058722011744976
-0.0063970377668738
-0.0067059276625514
-0.0068065770901739
-0.0067197387106716
-0.0064757978543639
-0.0061098574660718
-0.0056580146774649
-0.0051573421806097
-0.0046468158252537
-0.0041645825840532
-0.0037411847151815
-0.0033933075610548
-0.0031221453100442
-0.0029155074153095
-0.0027516027912497
-0.002603892236948
-0.0024460135027766
-0.002256111241877
-0.0020196633413434
-0.0017297102604061
-0.0013852061238139
-0.000988341635093
-0.0005425715353339
-5.387677811086178e-05
0.0004666278837248
0.00100246979855
0.0015339447418227
0.00204076198861
0.002504305448383
0.0029101045802235
0.0032507460564374
0.0035277351271361
0.0037505822256207
0.0039328983984887
0.0040878825820982
0.0042258216999471
0.0043540662154555
0.0044784247875213
0.0046029323711991
