bvp
0.0009569228859618
0.001363665680401
0.0017151992069557
0.0020072173792868
0.0022416408173739
0.0024254107847809
0.0025689601898193
0.0026860428042709
0.002792605664581
0.0029035271145403
0.0030303776729851
0.0031801119912415
0.0033518942072987
0.0035351244732737
0.0037135065067559
0.0038723987527191
0.0040026325732469
0.0040994100272655
0.0041602780111134
0.0041841934435069
0.004171687643975
0.004126408137381
0.0040561249479651
0.0039714649319648
0.0038822840433567
0.0037914055865257
0.0036887102760374
0.0035497196950018
0.0033380761742591
0.0030113875400274
0.0025311603676527
0.0018732232274487
0.0010350074153393
3.922125324606896e-05
-0.0010674061486497
-0.0022205503191798
-0.0033477107062935
-0.0043789595365524
-0.0052561084739863
-0.0059371851384639
-0.0063976575620472
-0.006630815565586
-0.0066467919386923
-0.0064705810509622
-0.0061402600258588
-0.0057032611221075
-0.0052098021842539
-0.0047075971961021
-0.0042385747656226
-0.0038342564366757
-0.0035115450154989
-0.0032723273616284
-0.0031047526281327
-0.0029856190085411
-0.002886961447075
-0.0027838458772748
-0.0026572970673441
-0.0024927831254899
-0.0022786257322877
-0.002007391070947
-0.0016797678545117
-0.001306424383074
-0.0009052361128851
-0.0004960729274898
-9.59868193604052e-05
0.0002832456957548
0.0006355445948429
0.0009602771606296
0.0012607229873538
0.0015418699476867
0.0018092001555487
0.002067657187581
0.0023203925229609
0.0025686048902571
0.0028125382959842
0.0030515184625983
0.0032820249907672
0.003497437108308
0.0036911612842231
0.0038585162255913
0.0039953449741005
0.0040971538983285
0.0041610565967857
0.004188282880932
0.0041843228973448
0.00415596133098
0.0041070599108934
0.0040354104712605
0.0039303647354245
0.0037711421027779
0.0035295146517455
0.0031776255927979
0.0026953993365168
0.0020748551469296
0.0013228417374193
0.0004626030568033
-0.0004665495362132
-0.0014131736243143
-0.0023212984669953
-0.003138325875625
-0.0038209189660847
-0.0043389936909079
-0.0046773832291364
-0.0048350198194384
-0.0048228097148239
-0.0046600797213613
-0.0043698186054825
-0.0039771855808794
-0.0035130109172314
-0.0030157107394188
-0.0025270846672356
-0.002085241023451
-0.0017185877077281
-0.0014422779204323
-0.0012574736028909
-0.0011527580209076
-0.0011064894497394
-0.0010905519593507
-0.0010755211114883
-0.0010350139345973
-0.0009487167699262
-0.0008034034981392
-0.0005905642174184
-0.0003055340494029
4.743743920698762e-05
0.0004508660349529
0.0008775629103183
0.0012985401554033
0.0016893157735466
0.0020332867279648
0.0023224204778671
0.0025557735934853
0.0027373183984309
0.002873518038541
0.0029714033007621
0.0030389297753572
0.0030860351398587
0.0031237888615578
0.0031628748401999
0.0032118433155119
0.0032737927976995
0.0033447346650063
0.0034161284565925
0.0034777498804032
0.0035195909440517
0.0035349354147911
0.0035223586019128
0.0034844523761421
0.0034254062920808
0.0033483211882412
0.0032522971741855
0.0031302897259593
0.0029668929055333
0.0027369351591914
0.0024088094942271
0.0019525673706084
0.0013479865156114
0.0005894345231354
-0.0003121984191238
-0.0013290210627019
-0.0024158703163266
-0.0035133301280438
-0.0045569958165287
-0.0054874988272786
-0.006256207358092
-0.0068287709727883
-0.00718813855201
-0.0073355096392333
-0.0072887302376329
-0.0070781074464321
-0.0067392997443675
-0.0063077970407903
-0.0058188792318105
-0.0053078094497323
-0.0048067267052829
-0.0043415413238108
-0.0039300085045397
-0.0035802852362394
-0.0032899209763854
-0.0030456699896603
-0.002826391486451
-0.0026096063666045
-0.00237771961838
-0.0021205109078437
-0.0018347681034356
-0.0015223699156194
-0.0011861834209412
-0.0008260476170107
-0.0004399550380185
-2.938369289040565e-05
0.0003980529727414
0.0008306437521241
0.0012553273700177
0.0016589168226346
0.0020293495617806
0.0023579683620482
0.0026415211614221
0.0028827339410781
0.0030893911607563
0.0032721704337745
0.0034416967537254
0.0036059580743312
0.0037703234702348
0.0039392113685607
0.0041147605516016
0.0042931763455271
0.0044640474952757
0.0046135867014527
0.0047290208749473
0.0048020491376519
0.0048298682086169
0.0048137083649635
0.0047581228427588
0.0046727447770535
0.0045729987323284
0.0044765942730009
0.0043969354592263
0.0043377610854804
0.004292385187
0.0042446805164217
0.0041678729467093
0.0040243864059448
0.0037712533958256
0.0033690016716718
0.0027903947047889
0.0020279129967093
0.0010969939175993
3.28791793435812e-05
-0.0011145047610625
-0.0022843973711133
-0.0034115007147192
-0.0044346493668854
-0.0053027886897325
-0.0059784781187772
-0.0064396234229207
-0.0066789565607905
-0.0067050354555249
-0.0065438309684395
-0.0062356083653867
-0.0058286157436668
-0.0053727119229733
-0.0049130343832075
-0.0044849906116724
-0.0041117477230727
-0.0038034443277865
-0.0035575956571847
-0.0033615832217037
-0.00319769163616
-0.003048550337553
-0.0028987734112888
-0.0027323369868099
-0.0025320530403405
-0.0022843789774924
-0.001984552713111
-0.0016381714958697
-0.001259692129679
-0.0008681392646394
-0.0004809931269846
-0.0001094827312044
0.0002419389784336
0.0005734671722166
0.0008880390669219
0.0011890713358297
0.0014782177750021
0.0017559297848492
0.0020246475469321
0.0022909673862159
0.0025632416363805
0.0028450023382902
0.0031299795955419
0.0034034978598356
0.003648187732324
0.0038496095221489
0.0039997640997171
0.0040974090807139
0.0041449377313256
0.0041453191079199
0.004103104583919
0.0040273461490869
0.0039314795285463
0.0038301500026136
0.0037366559263318
0.0036620574537664
0.0036134051624685
0.0035896666813641
0.0035777892917394
0.0035523637197911
0.0034796274267137
0.0033235237933695
0.0030512476805597
0.0026384205557405
0.0020743473432958
0.0013643372803926
0.0005277923773974
-0.000403857207857
-0.0013875270960852
-0.0023704669438302
-0.0032954146154224
-0.0041075223125517
-0.0047617312520742
-0.0052291369065642
-0.0055004996247589
-0.0055854134261608
-0.0055079427547752
-0.0053011570125818
-0.0050019659101963
-0.0046474682167172
-0.0042726225219666
-0.0039067300967872
-0.0035700988955795
-0.0032741629984229
-0.0030224430374801
-0.0028101387433707
-0.0026251228991895
-0.0024508407805114
-0.0022698359098285
-0.0020679340232163
-0.0018377738306298
-0.0015798243694007
-0.0012996473815292
-0.0010023129871115
-0.0006892962846904
-0.0003609578125178
-2.017657971009612e-05
0.0003275039489381
0.0006761441472917
0.001020940952003
0.0013578092912212
0.0016824970953166
0.0019916105084121
0.002284811111167
0.0025640889070928
0.0028291039634495
0.0030740303918719
0.0032895556651055
0.0034665123093873
0.0035974099300801
0.0036767602432519
0.003702042158693
0.0036750901490449
0.0036034060176461
0.0035009433049708
0.0033866302110254
0.0032797630410641
0.0031952413264662
0.0031421142630279
0.0031239776872098
0.0031372704543173
0.003166748676449
0.0031824139878153
0.0031424760818481
0.0030009439215064
0.0027160181198269
0.0022582933306694
0.0016174594638869
0.0008045482682064
-0.0001505527179688
-0.0012032568920403
-0.0022983672097325
-0.0033754820469766
-0.0043755555525422
-0.005245357286185
-0.005939663387835
-0.0064250072464346
-0.0066863228566944
-0.0067318244837224
-0.0065906425006687
-0.0063055721111595
-0.005926155950874
-0.0055014197714626
-0.0050726560875773
-0.0046698213554918
-0.0043108607642352
-0.0040019978769123
-0.0037393425591289
-0.0035115820355713
-0.0033031832426786
-0.0030972929671406
-0.0028766526374965
-0.0026246921624988
-0.0023305350914597
-0.0019940850324928
-0.0016249303007498
-0.0012363569112494
-0.0008399829966947
-0.0004437218885868
-5.1822629757225513e-05
0.0003347777528688
0.0007168976590037
0.0010944220703095
0.0014653257094323
0.0018265056423842
0.002174953231588
0.0025094901211559
0.0028321086429059
0.00314671266824
0.0034547876566648
0.0037522423081099
0.0040314057841897
0.0042839720845222
0.0045009371824562
0.0046734102070331
0.0047957887873053
0.0048673069104552
0.0048916139639914
0.004876575898379
0.0048337187618017
0.0047763027250766
0.0047174054197967
0.004669421352446
0.004642691463232
0.0046408241614699
0.0046553411521017
0.0046639209613204
0.004633346106857
0.0045250104740262
0.0043003819882869
0.0039257877506315
0.0033768680877983
0.0026430943980813
0.0017327604582533
0.0006765846046619
-0.0004727640771307
-0.0016466164961457
-0.0027717635966837
-0.0037825375329703
-0.0046273930929601
-0.0052714953199028
-0.005699464585632
-0.0059162741526961
-0.0059435018338263
-0.0058130118995904
-0.0055610421113669
-0.0052239410579204
-0.0048355879262089
-0.0044258581474423
-0.0040198015049099
-0.0036378791555762
-0.0032962895929813
-0.0030048948246985
-0.0027642026543617
-0.0025655392091721
-0.0023937018122524
-0.0022299734409898
-0.0020568477921187
-0.0018630103440955
-0.0016440527979284
-0.001399558619596
-0.0011304360814392
-0.0008370841387659
-0.0005181063897907
-0.0001714031677693
0.0002020439133048
0.000594672455918
0.0009920680895447
0.0013767841737717
0.0017338769976049
0.0020544009748846
0.0023371130228042
0.0025887684896588
0.0028199297375977
0.003038530005142
0.0032473586034029
0.0034452595282346
0.0036290045827627
0.0037947467062622
0.0039381673559546
0.0040543437935411
0.0041390345431864
0.0041907839477062
0.0042129149660468
0.0042137713171541
0.0042035966180264
0.0041904412209987
0.004178762435913
0.0041706929914653
0.0041667730547487
0.0041642016731202
0.0041542463004589
0.004120813217014
0.0040401937440037
0.0038827001117169
0.0036171823740005
0.003216347657144
0.002661220729351
0.0019452515989542
0.0010768936481326
7.980549708008766e-05
-0.0010080974316224
-0.0021373089402914
-0.0032513432670384
-0.0042918752878904
-0.0052051926031708
-0.0059494292363524
-0.0064993919804692
-0.0068481815978884
-0.0070059839636087
-0.006995880510658
-0.0068484349176287
-0.0065970248542726
-0.0062741688452661
-0.0059093632735311
-0.0055291159078478
-0.0051576192490756
-0.0048151230439543
-0.0045136334374547
-0.0042528277263045
-0.0040205111727118
-0.0037995888851583
-0.0035764698404818
-0.0033438543323427
-0.0030984922777861
-0.0028382851742208
-0.0025602758396416
-0.0022603999823331
-0.0019352948293089
-0.0015848751645535
-0.0012139393948018
-0.0008307237876579
-0.0004427223466336
-5.3713913075625896e-05
0.0003358168178237
0.0007267332985065
0.001119403867051
0.0015111262910068
0.0018939530709758
0.00225625699386
0.0025868413504213
0.0028778526466339
0.0031254414934664
0.0033288728445768
0.0034899492748081
0.0036134631372988
0.0037074661813676
0.0037825377658009
0.003848667955026
0.0039107939228415
0.0039684567600488
0.004020829219371
0.0040710493922233
0.0041244560852646
0.0041829980909824
0.0042427689768373
0.0042951656505465
0.0043267617002129
0.0043179732747375
0.0042431810870766
0.0040724561549723
0.0037752836942672
0.0033265380188822
0.0027131913229823
0.0019399395678192
0.001030787709169
2.508494071662426e-05
-0.0010271669598296
-0.0020678332075476
-0.0030362119432538
-0.0038790605030953
-0.0045588165521621
-0.0050555621273815
-0.0053640138357877
-0.0054908022284507
-0.0054536610841751
-0.0052787000313401
-0.0049957893788814
-0.0046357628889381
-0.0042300168424844
-0.0038098376244306
-0.0034030568785965
-0.0030293627642095
-0.0026982191484421
-0.0024109298828989
-0.0021648281253874
-0.0019561662338674
-0.0017797945765778
-0.0016276591923087
-0.0014887535944581
-0.0013504344969987
-0.001200626604259
-0.0010299496352672
-0.0008323629153892
-0.0006050399970263
-0.0003478523576632
-6.157939787954092e-05
0.0002537026302888
0.000598334474489
0.0009723670082166
0.0013742431765422
0.0017968825995922
0.0022246758453547
0.0026355457957834
0.0030062654986977
0.0033174781128764
0.0035561290569603
0.0037160660140216
0.0037998519837856
0.0038205527234822
0.0037988992407917
0.0037561357021331
0.0037084589712321
0.00366649357602
0.0036374137271195
0.0036262976936995
0.0036348514258861
0.0036591184325516
0.0036904383450746
0.0037194017786532
0.0037379474379122
0.0037378100678324
0.0037078775931149
0.0036315405741333
0.0034843767061829
0.0032352479174733
0.002852039411664
0.0023094124626368
0.0015961175085976
0.0007201113039627
-0.0002902074484154
-0.0013885520165786
-0.0025166347622871
-0.0036132517270743
-0.0046223420649766
-0.0054964805021882
-0.0061990451067686
-0.0067069763317704
-0.0070119309239089
-0.0071191191673278
-0.0070451786741614
-0.0068168216384947
-0.0064697694033384
-0.0060453596524894
-0.0055848392657935
-0.0051241149194538
-0.0046901116147637
-0.0042980834841728
-0.0039509916678071
-0.0036430971231311
-0.0033657369203865
-0.0031104676891118
-0.002868611132726
-0.0026298037264496
-0.0023819901980459
-0.0021139895543456
-0.0018189889378845
-0.0014959573745727
-0.0011484078131616
-0.0007814145646989
-0.0003987476229667
-3.0191149562597275e-06
0.0004024506779387
0.0008139298297464
0.0012282887473702
0.0016408378724008
0.0020421147346496
0.0024194105062633
0.0027622126508504
0.003065142314881
0.003327254904434
0.0035510011948645
0.0037410361692309
0.003903019009158
0.0040442286990582
0.0041736881248652
0.0042988378554582
0.0044224085286259
0.004543961957097
0.0046637654304504
0.0047837300226092
0.0049038338474929
0.0050175813958048
0.0051118414849042
0.0051727565005421
0.0051933526992797
0.005176693201065
0.0051324823871254
0.0050699613057076
0.004991705995053
0.0048899208195507
0.0047447178512811
0.0045251767151057
0.0041938801296055
0.0037151696160435
0.0030659195035696
0.0022431726101785
0.0012634326703846
0.0001578363589942
-0.0010298511479049
-0.0022441302426159
-0.0034220400266349
-0.0045007122680544
-0.0054256515577435
-0.0061567574739456
-0.0066703227348625
-0.0069588883779942
-0.0070313867181539
-0.0069121341221034
-0.0066370950080454
-0.0062478687614202
-0.0057851187884807
-0.0052858982235193
-0.0047849523834884
-0.0043141702190041
-0.003899001982063
-0.0035546489525586
-0.003283888567239
-0.0030776371713727
-0.0029173679649829
-0.0027786479331552
-0.0026363458018749
-0.0024691962171345
-0.0022604786790907
-0.0019976519979536
-0.0016749859787523
-0.0012955879792571
-0.0008684350177645
-0.0004050191491842
7.920770440250635e-05
0.0005635913694277
0.00102611084003
0.0014481428079307
0.0018171722767874
0.0021290748845785
0.0023887483403086
0.0026069032028317
0.0027954804245382
0.0029649892821907
0.0031230794265866
0.0032736607827246
0.003418369218707
0.0035594129003584
0.0036999199073761
0.003841649275273
0.0039831260219216
0.0041196215897798
0.0042446167208254
0.0043506789952516
0.0044291536323726
0.0044721597805619
0.0044770296663045
0.0044481512159109
0.0043951817788183
0.0043307617306709
0.0042679044418036
0.0042154151014983
0.0041724010370671
0.0041247401386499
0.0040447292849421
0.0038932019378989
0.003624421544373
0.0031943607609719
0.0025710221379995
0.0017445635749027
0.000732569838874
-0.0004233290674164
-0.0016649826429784
-0.0029237703420221
-0.0041263988241553
-0.0052021718584001
-0.006091060116887
-0.0067506884224712
-0.0071592396125197
-0.0073144622147083
-0.0072316010482609
-0.0069425138644874
-0.0064953193068504
-0.0059495400637388
-0.0053661605343222
-0.0047990414313972
-0.0042905807495117
-0.0038693391252309
-0.0035486354026943
-0.0033267070539295
-0.0031881020404398
-0.0031068227253854
-0.0030513864476233
-0.0029893422033637
-0.0028907707892358
-0.0027313556056469
-0.0024933249223977
-0.0021666528191417
-0.0017544159200042
-0.001276425900869
-0.0007642278796993
-0.0002517135581001
0.0002321305219084
0.0006674733594991
0.0010456185555085
0.001368366414681
0.0016450288239866
0.0018886043690145
0.0021123229525983
0.0023271376267075
0.002540587214753
0.00275638862513
0.0029741814360022
0.0031908710952848
0.003402505069971
0.0036032213829457
0.0037839272990822
0.0039353370666503
0.0040529356338083
0.0041389623656868
0.0041999244131147
0.0042417161166667
0.0042667612433433
0.00427519204095
0.0042670555412769
0.0042425021529197
0.0042011812329292
0.0041439379565417
0.0040764119476079
0.0040091145783662
0.0039503136649727
0.003896024543792
0.0038243734743446
0.0036969911307096
0.0034651886671781
0.0030782788526266
0.0024936557747423
0.0016875346191227
0.0006627617403864
-0.0005490640178322
-0.0018911245279014
-0.0032883393578231
-0.0046557197347283
-0.0059079620987176
-0.0069687310606241
-0.0077782687731087
-0.0083011267706751
-0.008531785570085
-0.0084933340549469
-0.0082298964262008
-0.0077963732182979
-0.0072500598616898
-0.0066467355936765
-0.0060384683310985
-0.0054704016074538
-0.0049758437089622
-0.0045704017393291
-0.0042493171058595
-0.0039917407557368
-0.0037689267192035
-0.0035499930381774
-0.0033060091082006
-0.00301621761173
-0.002672447822988
-0.0022778499405831
-0.0018430147320032
-0.0013822398614138
-0.0009102455805987
-0.0004395797150209
2.062844578176737e-05
0.0004648455651476
0.0008915417129173
0.00130213459488
0.0016975516919046
0.0020766076631844
0.002437540795654
0.0027796330396085
0.0031038546003401
0.0034123891964554
0.0037062936462461
0.0039830170571804
0.0042363395914435
0.0044588129967451
0.0046448828652501
0.0047924001701176
0.0049022305756807
0.0049776476807892
0.0050242240540683
0.0050493902526795
0.0050608948804438
0.0050655100494623
0.0050698402337729
0.0050814654678106
0.0051071881316602
0.0051489905454218
0.0052015637047588
0.0052536795847117
0.0052921967580914
0.0053061181679368
0.0052877166308462
0.0052297748625278
0.0051214974373579
0.0049446546472609
0.0046716583892703
0.0042691356502473
0.0037059129681438
0.0029610993806272
0.00203039473854
0.0009301997488364
-0.0003009889042004
-0.0016059243353083
-0.0029172995127737
-0.0041676997207105
-0.0052974140271544
-0.006259536370635
-0.0070217102766036
-0.00756511464715
-0.0078831613063812
-0.0079816803336143
-0.0078798914328217
-0.007609287276864
-0.0072091887705028
-0.0067212809808552
-0.0061853406950831
-0.0056360932067036
-0.0051021105609834
-0.0046074180863797
-0.0041713444516062
-0.0038040291983634
-0.0035029782447963
-0.003254719544202
-0.0030396908987313
-0.00283719971776
-0.0026279471348971
-0.0023947975132614
-0.0021244157105684
-0.0018092531245201
-0.0014476610813289
-0.0010421704500913
-0.0005984927993267
-0.0001261836150661
0.0003618277260102
0.0008515587542206
0.001329081133008
0.0017802352085709
0.0021920765284448
0.0025562851224094
0.0028708011377602
0.0031373240053653
0.0033576765563338
0.0035335221327841
0.0036688216496258
0.0037704177666455
0.0038452334702014
0.0038983519189059
0.00393553590402
0.0039672409184277
0.0040081059560179
0.0040699457749724
0.0041542826220393
0.0042521064169704
0.0043498612940311
0.0044353492558002
0.0045004640705883
0.004540757741779
0.0045536351390182
0.0045380350202322
0.0044958018697798
0.0044319191947579
0.0043515725992619
0.0042549460195004
0.0041337441653013
0.0039713676087558
0.0037434478290379
0.0034178663045167
0.0029583072755485
0.0023329632822424
0.0015247706323862
0.0005389952566474
-0.0005933588836342
-0.0018174079013988
-0.0030620680190622
-0.004250984173268
-0.0053131249733269
-0.0061912024393677
-0.0068472255952656
-0.0072649996727705
-0.0074488846585154
-0.0074188439175486
-0.0072048651054501
-0.0068437745794653
-0.0063781766220927
-0.0058550233952701
-0.0053215804509818
-0.0048198318108916
-0.0043820473365485
-0.0040276562795042
-0.0037608379498124
-0.0035709438379853
-0.0034368969500064
-0.0033325408585369
-0.0032303999178111
-0.0031048576347529
-0.0029354796279221
-0.0027088094502687
-0.0024185427464544
-0.002066122367978
-0.0016610501334071
-0.0012182008940726
-0.0007524585234932
-0.0002750617568381
0.0002050671319011
0.0006779732648283
0.0011319951154291
0.0015552578261122
0.0019367481581866
0.0022673066705465
0.002540836809203
0.0027551667299121
0.0029137539677321
0.0030282873194664
0.0031182025559246
0.0032036749180406
0.0032973550260066
0.0034031025134027
0.0035193371586501
0.0036410335451364
0.0037607573904097
0.0038699358701705
0.0039607528597116
0.0040282332338392
0.0040705795399844
0.0040886793285608
0.0040858318097889
0.0040655178017914
0.0040274909697473
0.0039647952653467
0.0038603865541517
0.0036832303740084
0.0033908165059983
0.0029402798973023
0.0023006219416856
0.0014609708450734
0.0004349632654339
-0.0007382628973573
-0.0019969893619418
-0.0032651294022798
-0.0044639217667281
-0.005522096529603
-0.0063821086660027
-0.0070039401762187
-0.0073670777492225
-0.0074698054231703
-0.0073283435776829
-0.0069772568531334
-0.0064671230502426
-0.0058580795302987
-0.0052123302593827
-0.0045865648426115
-0.0040245191194117
-0.0035527183208614
-0.0031807401683181
-0.0029036875348538
-0.0027045796159654
-0.0025568036362528
-0.0024284610990434
-0.0022882984485477
-0.0021098998840898
-0.0018725063418969
-0.0015619924524798
-0.0011748084798455
-0.0007205063011497
-0.0002181506715714
0.000310713192448
0.0008470450993627
0.0013755566906183
0.0018842612626031
0.0023633991368114
0.0028035980649292
0.0031957710161805
0.003533886745572
0.0038164858706295
0.0040449774824082
0.0042234044522047
0.0043617072515189
0.0044769467785954
0.0045878649689257
0.0047061443328857
0.0048331012949347
0.0049638114869594
0.0050910827703773
0.0052059972658753
0.0052988822571933
0.0053616818040609
0.0053896880708634
0.0053822742775082
0.0053423936478793
0.0052751903422176
0.0051876017823815
0.0050888550467789
0.004989945795387
0.0049012498930096
0.0048286844976246
0.0047694486565887
0.004707986023277
0.004613981116563
0.0044456874020397
0.0041573336347937
0.0037059504538774
0.0030575527343899
0.0021952027454972
0.0011272318661212
-0.0001093975733965
-0.0014534222427755
-0.0028291177004575
-0.004156625829637
-0.0053599178791046
-0.0063738147728145
-0.0071517871692776
-0.0076714623719453
-0.0079341931268572
-0.0079611698165535
-0.0077896700240671
-0.0074683781713247
-0.0070501011796295
-0.0065840389579534
-0.0061110639944672
-0.0056621455587446
-0.0052570160478353
-0.0049027651548385
-0.0045951758511364
-0.0043219896033406
-0.004065731074661
-0.0038081796374171
-0.0035368977114558
-0.003247957676649
-0.0029426217079162
-0.002623408799991
-0.0022927932441234
-0.0019532579462975
-0.0016070439014583
-0.001254734583199
-0.0008941438281908
-0.0005213000113144
-0.0001326210331171
0.0002726573729887
0.0006896330742165
0.0011073886416852
0.0015143463388085
0.0019043907523155
0.0022760755382478
0.0026271182578057
0.0029519977979362
0.0032444363459944
0.0035002289805561
0.0037171489093452
0.0038944943808019
0.0040341657586395
0.0041405418887734
0.0042183301411569
0.0042707826942205
0.0042999819852411
0.0043086209334433
0.0043018362484872
0.0042880359105765
0.0042766099795699
0.0042729200795292
0.0042754029855132
0.0042775701731443
0.0042725424282252
0.0042549483478069
0.0042186835780739
0.0041545508429408
0.0040489044040441
0.003881508950144
0.0036248159594833
0.0032477756030857
0.0027233336586505
0.0020362455397844
0.0011885971762239
0.0002035894431173
-0.0008742837235331
-0.0019872193224728
-0.0030755852349102
-0.004085233900696
-0.0049714222550392
-0.0057007661089301
-0.0062511493451893
-0.0066117336973547
-0.0067835627123713
-0.0067789363674819
-0.0066194147802889
-0.0063342405483126
-0.0059584584087133
-0.0055290726013481
-0.0050808684900403
-0.0046426355838775
-0.0042340788058936
-0.0038661586586385
-0.0035443953238427
-0.0032718328293412
-0.0030495969112962
-0.0028743650764226
-0.002735644346103
-0.0026162604335695
-0.0024952229578047
-0.0023506167344748
-0.0021627726964652
-0.001918536494486
-0.0016138423234224
-0.001252458197996
-0.0008432643371634
-0.0003976037260144
7.275363896042109e-05
0.0005548796034418
0.0010327883064746
0.0014888806035742
0.0019074876327067
0.0022761351428925
0.0025859191082417
0.0028336117975413
0.0030228360556066
0.0031623980030417
0.0032639277633279
0.0033401013351976
0.0034028864465653
0.0034625390544533
0.0035284669138491
0.0036102167796343
0.0037156464532017
0.0038463408127427
0.0039943670853972
0.004144812002778
0.004282091744244
0.0043936553411185
0.0044696298427879
0.0045000715181231
0.00447035767138
0.0043580918572843
0.0041347257792949
0.0037702429108321
0.0032393729779869
0.0025291140191257
0.0016461622435599
0.0006220706854946
-0.0004881944623775
-0.0016166303539648
-0.0026951988693326
-0.0036640504840761
-0.0044756801798939
-0.0050982721149921
-0.0055169481784105
-0.0057316734455525
-0.0057550515048205
-0.0056113796308636
-0.0053346017375588
-0.00496470881626
-0.0045434297062456
-0.0041093900799751
-0.0036934243980795
-0.0033148804213851
-0.0029808364342898
-0.0026904428377747
-0.0024403538554906
-0.0022251440677791
-0.0020354301668703
-0.0018591601401567
-0.0016846932703629
-0.0015015382086858
-0.0012988349189981
-0.0010648606112226
-0.0007891862187534
-0.0004668118199333
-0.0001014617737382
0.0002953222719952
0.0007087653502821
0.0011255897115916
0.0015350949252024
0.0019262109417468
0.0022861687466502
0.002604057546705
0.0028746947646141
0.0030988787766546
0.0032819146290421
0.0034320263657718
0.0035583483986556
0.0036697713658213
0.0037745041772723
0.0038786972872912
0.0039850706234574
0.0040923552587628
0.0041957395151257
0.0042899693362414
0.0043724658899009
0.0044418149627745
0.0044947955757379
0.0045265578664839
0.0045323688536882
0.0045087044127285
0.0044535673223435
0.004367449786514
0.0042554065585136
0.0041263252496719
0.0039880760014057
0.0038425377570092
0.0036817346699535
0.0034844831097871
0.0032170959748327
0.0028413897380232
0.0023248875513672
0.0016467256937175
0.0008016766514629
-0.000195194967091
-0.0013077468611299
-0.002483838237822
-0.0036629363894462
-0.0047845803201198
-0.0057955095544457
-0.0066513512283563
-0.0073155341669917
-0.0077623566612601
-0.0079833511263132
-0.0079901060089468
-0.0078106587752699
-0.0074824141338467
-0.0070461449213325
-0.0065437122248113
-0.006017736159265
-0.0055085150524973
-0.0050481394864618
-0.0046567688696086
-0.0043421513400971
-0.0040998887270689
-0.0039148740470409
-0.0037644898984581
-0.0036217630840837
-0.0034589709248393
-0.0032532098703086
-0.0029916982166469
-0.0026721020694822
-0.0022968081757426
-0.0018685040995478
-0.0013929738197475
-0.0008829904254525
-0.0003566422965377
0.0001670328201726
0.0006706038257107
0.0011394912144169
0.0015638459008187
0.0019395854324102
0.0022675639484077
0.002553605241701
0.0028086225502192
0.003044762648642
0.0032701180316507
0.0034873415715992
0.0036958884447813
0.0038948215078562
0.0040832450613379
0.0042590261436998
0.0044190529733896
0.0045595341362059
0.0046749305911362
0.004759032279253
0.004808853380382
0.0048274216242134
0.0048228530213236
0.0048046903684735
0.0047809039242565
0.0047571454197168
0.004735613707453
0.004712775349617
0.004679194651544
0.0046203741803765
0.0045137819834053
0.0043245344422757
0.0040083611384034
0.0035237739793956
0.0028464365750551
0.0019780367147177
0.000946654821746
-0.0001984207192435
-0.0013937671901658
-0.0025700822006911
-0.0036601442843675
-0.0046051819808781
-0.0053609707392752
-0.0059027853421866
-0.0062253619544208
-0.006338195875287
-0.0062618074007332
-0.0060274535790085
-0.0056761805899441
-0.0052539501339197
-0.0048054396174848
-0.0043699080124497
-0.0039780787192285
-0.0036484850570559
-0.0033857191447168
-0.0031819730065762
-0.0030203422065824
-0.0028799863066524
-0.0027415340300649
-0.0025888863019645
-0.0024081985466182
-0.0021879107225686
-0.0019216239452362
-0.0016112518496811
-0.0012664647074416
-0.0009009856730699
-0.0005286175291985
-0.0001600608229637
0.0001987633295357
0.0005457203951664
0.0008792850421741
0.0011968495091423
0.0014965789159759
0.0017781195929273
0.0020404243841767
0.0022824583575129
0.0025067520327866
0.0027196505106985
0.0029267747886478
0.0031285360455513
0.0033200420439243
0.0034932186827063
0.0036388225853443
0.0037498059682548
0.00382432481274
0.0038661158178001
0.0038841473869979
0.0038913805037736
0.0039002681151032
0.0039166277274489
0.0039358767680823
0.0039428435266017
0.0039130575023591
0.0038135482463985
0.0036045380402356
0.0032452673185616
0.0027033491060137
0.0019637800287455
0.0010354727273806
-4.605425056070089e-05
-0.0012212431756779
-0.0024144579656422
-0.0035456414334475
-0.0045414110645651
-0.0053427889943122
-0.0059102205559611
-0.0062262527644634
-0.0062954924069345
-0.0061414381489157
-0.005801411345601
-0.0053226421587169
-0.0047591985203325
-0.0041673080995678
-0.0035986618604511
-0.0030927844345569
-0.0026718531735241
-0.0023411796428263
-0.0020935777574777
-0.0019135012989863
-0.0017800347413867
-0.0016696661477908
-0.0015589462127536
-0.0014274719869717
-0.0012596299638971
-0.0010428559035062
-0.0007667759200558
-0.0004282958107069
-3.708247095346451e-05
0.0003865032922476
0.0008190464577637
0.0012404484441503
0.0016352778766304
0.0019913378637284
0.0023004808463156
0.0025608970317989
0.0027766018174588
0.0029550946783274
0.003106131684035
0.0032398353796452
0.0033640703186392
0.0034852577373385
0.0036102468147873
0.0037438175641
0.0038848719559609
0.0040267128497362
0.0041600381955504
0.0042747510597109
0.0043610846623778
0.0044124266132712
0.0044287363998591
0.0044173351489007
0.004389523062855
0.0043547176755964
0.0043165143579244
0.0042731128633022
0.0042192237451672
0.0041464893147349
0.0040425644256174
0.0038883506786078
0.0036548729985952
0.0033046444877982
0.0027995337732136
0.0021127245854586
0.0012387942988425
0.0001971588935703
-0.0009695655899122
-0.0022004777565598
-0.0034249948803335
-0.0045732045546174
-0.0055840308777987
-0.0064093060791492
-0.0070159919559955
-0.0073880059644579
-0.0075265793129801
-0.0074508385732769
-0.0071985847316682
-0.0068216365762054
-0.006375010125339
-0.0059068240225315
-0.0054541248828172
-0.0050431611016392
-0.0046897740103304
-0.0044000977650284
-0.0041725565679371
-0.003998146392405
-0.0038599560502916
-0.0037357949186116
-0.0036017156671732
-0.0034328065812587
-0.003204061416909
-0.0028956937603652
-0.0024998192675411
-0.0020229322835803
-0.0014844995457679
-0.0009129112586379
-0.0003388742916285
0.0002111323410645
0.0007182095432654
0.0011712051928043
0.0015659596538171
0.0019043523352593
0.0021932930685579
0.0024439077824354
0.0026701556053012
0.0028869751840829
0.0031074495054781
0.0033384524285793
0.0035778163000941
0.0038159566465765
0.0040399618446826
0.0042366003617644
0.004394756630063
0.0045083514414727
0.0045771766453981
0.004605259746313
0.0045996392145752
0.0045698140747845
0.0045262197963893
0.0044776955619454
0.004430167376995
0.0043885242193937
0.0043586939573287
0.0043457113206386
0.0043492219410836
0.0043595917522907
0.0043556932359933
0.0043049207888543
0.0041657807305455
0.0038944715633988
0.0034548337571322
0.0028257572557777
0.0020044366829097
0.0010101794032379
-0.0001129283336922
-0.0013009860413149
-0.0024817097000777
-0.003585017286241
-0.0045496979728341
-0.00532903149724
-0.0058963252231478
-0.0062473053112626
-0.0063977893441915
-0.0063771605491638
-0.0062201092950999
-0.0059618381783366
-0.0056376843713223
-0.0052822073921561
-0.0049267001450061
-0.0045972052030265
-0.0043114502914249
-0.0040752133354544
-0.0038824067451059
-0.0037181384395807
-0.0035621072165668
-0.0033936493564397
-0.0031968711409717
-0.0029623678419739
-0.0026869468856602
-0.0023734024725854
-0.0020291795954108
-0.001663448754698
-0.0012847064062952
-0.0008999670390039
-0.0005148184718564
-0.0001339563168585
0.0002385116531513
0.0005995648680254
0.0009480400476604
0.0012854017550125
0.0016154659679159
0.0019412168767303
0.0022610013838857
0.0025681196711957
0.0028532585129141
0.0031076748855412
0.0033252765424549
0.0035025088582187
0.0036383597180247
0.0037355108652263
0.0038004871457815
0.0038424581289291
0.0038719354197382
0.0038991179317235
0.0039325281977653
0.0039799697697162
0.0040488527156412
0.004141510464251
0.0042491764761507
0.0043505155481398
0.0044139553792774
0.0044001992791891
0.0042653661221265
0.0039681331254541
0.0034801920410245
0.0027943137101829
0.0019261101260781
0.0009113999549299
-0.0001976415514945
-0.001338243484497
-0.0024449313059449
-0.0034560405183583
-0.0043179122731089
-0.0049899355508387
-0.0054501118138432
-0.0056970585137605
-0.0057476991787552
-0.0056326752528548
-0.0053902985528111
-0.005060032941401
-0.0046782395802438
-0.0042771408334374
-0.0038844181690365
-0.0035221802536398
-0.0032059499062597
-0.002943069441244
-0.0027311369776725
-0.0025581766385585
-0.002405110746622
-0.002251120749861
-0.0020793653093278
-0.0018786371219903
-0.0016423758352175
-0.00136802601628
-0.0010560521623119
-0.0007090975996106
-0.0003324694698676
6.484705954790115e-05
0.0004700737190432
0.0008690038812346
0.0012497436255216
0.0016048674006015
0.0019321365980431
0.0022343113087117
0.0025161823723465
0.0027796593494713
0.0030220323242247
0.0032392349094152
0.0034291981719434
0.0035917800851166
0.0037276202347129
0.0038381498306989
0.0039261607453227
0.0039954772219061
0.0040488340891897
0.0040860092267394
0.0041052037850022
0.0041067935526371
0.0040963245555758
0.0040843724273145
0.004081736318767
0.0040930053219199
0.0041152318008244
0.0041417581960558
0.0041653155349195
0.0041789025999605
0.0041759158484637
0.0041496744379401
0.0040921252220869
0.0039908466860651
0.0038250144571065
0.0035641533322632
0.0031725037842988
0.0026185763999819
0.0018863945733755
0.0009828465990722
-6.23110681772232e-05
-0.0012027798220515
-0.002384296618402
-0.003550985828042
-0.0046485741622745
-0.0056277541443705
-0.0064487932249903
-0.0070842541754245
-0.0075191380456089
-0.0077509777620434
-0.0077908947132527
-0.0076637584716081
-0.0074043422937393
-0.0070512220263481
-0.0066420780494809
-0.0062087909318506
-0.0057744975201785
-0.0053571634925901
-0.0049734688363969
-0.004636310506612
-0.004350075032562
-0.0041090943850576
-0.003899059491232
-0.0036998882424086
-0.0034902119077742
-0.0032525765709578
-0.0029767488595098
-0.0026596363168209
-0.0023023742251098
-0.0019076005555689
-0.0014792052097618
-0.0010216202354058
-0.0005385554977692
-3.678287612274289e-05
0.0004681600257754
0.0009534893324598
0.00139704963658
0.0017840538639575
0.0021094575058668
0.0023770572151988
0.0025962772779166
0.0027785082347691
0.0029358637984842
0.0030808958690613
0.003224573098123
0.0033739688806235
0.0035319938324391
0.0036998023279011
0.0038789897225797
0.0040698070079088
0.004267540294677
0.0044617326930165
0.0046382904984056
0.0047827688977122
0.0048843384720385
0.0049378937110304
0.004943354986608
0.0049061146564781
0.0048387483693659
0.0047586057335138
0.0046807285398244
0.004611331038177
0.0045451209880411
0.0044653471559286
0.0043442058376967
0.0041441339999437
0.0038230009377002
0.0033430540934205
0.0026798886246979
0.0018294146284461
0.0008113742806017
-0.0003323446726426
-0.0015428669285029
-0.0027508242055773
-0.0038841590285301
-0.0048765279352664
-0.0056751216761767
-0.0062466338276863
-0.0065792668610811
-0.0066802455112338
-0.0065721678547561
-0.0062911612913012
-0.0058841644786298
-0.0054026339203119
-0.004896595608443
-0.0044117486104369
-0.00398557074368
-0.0036417474038898
-0.0033885203301906
-0.0032213132362812
-0.0031251907348632
-0.0030770925804972
-0.0030490525532513
-0.0030118036083877
-0.002938263118267
-0.0028058202005922
-0.0025985762476921
-0.002311079762876
-0.0019503390649333
-0.0015332691837102
-0.001081688911654
-0.0006180685595609
-0.0001626895391382
0.0002685372019186
0.0006657112389802
0.0010248026810586
0.0013453791616484
0.0016290231142193
0.0018795987125486
0.0021027927286922
0.0023054233752191
0.0024968688376247
0.0026889634318649
0.0028906716033816
0.003102877177298
0.0033183693885803
0.0035247988998889
0.0037087895907461
0.0038601756095886
0.0039735208265483
0.004047461785376
0.0040843347087502
0.0040895799174904
0.0040705348365008
0.0040355185046792
0.0039925836026668
0.0039482498541474
0.0039082816801965
0.0038776430301368
0.0038544409908354
0.0038221753202378
0.0037483773194253
0.0035900415387004
0.0033033075742423
0.0028546876274049
0.0022302051074802
0.0014405656838789
0.0005204756744205
-0.0004783965414389
-0.0014967597089707
-0.0024753902107477
-0.0033603436313569
-0.0041062128730118
-0.004678416531533
-0.0050562424585223
-0.0052366401068866
-0.0052354093641042
-0.0050837518647313
-0.0048216269351542
-0.0044911112636327
-0.0041317883878946
-0.003777363570407
-0.0034535485319793
-0.0031770344357937
-0.0029546492733061
-0.0027847406454384
-0.0026600412093102
-0.0025683080311864
-0.0024917032569646
-0.0024078809656202
-0.0022938239853829
-0.0021322444081306
-0.0019174480112269
-0.0016551117878407
-0.0013565646950155
-0.001035172259435
-0.0007059700437821
-0.0003832950897049
-7.729133358225226e-05
0.0002069400507025
0.0004689740599133
0.0007126770215108
0.0009441975271329
0.0011695243883877
0.0013944102684035
0.0016254959627985
0.001868124702014
0.0021213756408542
0.0023766532540321
0.0026212318334728
0.0028425958007574
0.0030310836154967
0.0031809050124138
0.0032903489191085
0.0033611427061259
0.003396785352379
0.0034016666468232
0.0033818811643868
0.0033463940490037
0.0033076249528676
0.0032794754952192
0.0032727473881095
0.0032917603384703
0.0033317408524453
0.0033747404813766
0.003387926146388
0.0033275294117629
0.0031459759920835
0.0028007561340928
0.0022647804580628
0.001533864880912
0.0006284947739914
-0.0004081301158294
-0.0015150518156588
-0.0026224912144243
-0.0036626728251576
-0.0045776916667819
-0.0053224768489599
-0.0058664623647928
-0.0061970734968781
-0.0063217710703611
-0.0062645589932799
-0.006059122737497
-0.0057430560700595
-0.0053544705733656
-0.0049303751438856
-0.0045053409412503
-0.0041086100973188
-0.003760781371966
-0.0034727270249277
-0.0032458358909934
-0.0030717165209352
-0.0029327315278351
-0.0028048553504049
-0.0026626335456967
-0.002485224744305
-0.0022609382867813
-0.0019880970939993
-0.0016722119180485
