bvp
0.0226052310317754
0.0199578814208507
0.016649330034852
0.0126935616135597
0.0081683965399861
0.0032126237638294
-0.0019875459838658
-0.0072210635989904
-0.0122779961675405
-0.0169738642871379
-0.0211681891232728
-0.0247716177254915
-0.0277408529072999
-0.0300672631710767
-0.0317637361586093
-0.032854039222002
-0.0333686992526054
-0.0333456061780452
-0.0328329540789127
-0.0318914130330085
-0.0305909477174282
-0.0290051288902759
-0.0272065121680498
-0.025261016562581
-0.0232230611145496
-0.0211335700005292
-0.0190182905644178
-0.0168878436088562
-0.0147424172610044
-0.0125781195238232
-0.0103913974016904
-0.0081812273710966
-0.0059495395980775
-0.0037013553082942
-0.0014470210298895
0.0007954975590109
0.0030016112141311
0.0051435427740216
0.0071946876123547
0.0091338204219937
0.0109479539096355
0.0126334875822067
0.0141945090144872
0.0156381241977214
0.0169705785810947
0.0181969050318002
0.0193216055631637
0.0203491076827049
0.02128516882658
0.0221358463168144
0.0229024197906255
0.0235783867537975
0.024151038378477
0.0246005095541477
0.0248925928026437
0.0249699987471103
0.0247470885515213
0.0241144690662622
0.0229579713195562
0.021183731034398
0.0187390409409999
0.015628507360816
0.011924734339118
0.0077655841596424
0.0033352861646562
-0.0011602309532463
-0.0055161099880933
-0.0095510575920343
-0.0131253749132156
-0.016146445646882
-0.0185630768537521
-0.0203566849231719
-0.0215347278863191
-0.0221270527690649
-0.0221825577318668
-0.0217652693390846
-0.0209522247314453
-0.0198311805725097
-0.0184934344142675
-0.0170238371938467
-0.0154924653470516
-0.0139489118009805
-0.0124212224036455
-0.0109196277335286
-0.0094403950497508
-0.0079685077071189
-0.0064829029142856
-0.004963681101799
-0.0033969953656196
-0.001778574893251
-0.0001168639864772
0.001567839179188
0.0032486342824995
0.0048977877013385
0.0064898920245468
0.0080022197216749
0.0094151506200432
0.010714117437601
0.0118902893736958
0.0129392128437757
0.0138599034398794
0.0146551076322793
0.015332625247538
0.0159054808318614
0.0163889750838279
0.0167979393154382
0.0171456150710582
0.0174406729638576
0.0176799930632114
0.0178378839045763
0.0178561881184577
0.0176416113972663
0.0170738156884908
0.0160222146660089
0.0143666751682758
0.0120206139981746
0.0089544542133808
0.0052109956741333
0.000905817374587
-0.0037867343053221
-0.0086574451997876
-0.0134897148236632
-0.018084155395627
-0.0222756005823612
-0.0259415917098522
-0.0290040038526058
-0.0314238667488098
-0.033190656453371
-0.034310795366764
-0.0348002240061759
-0.0346846170723438
-0.0340043678879737
-0.032816857099533
-0.0311946384608745
-0.0292216520756483
-0.0269863288849592
-0.0245719887316226
-0.022049019113183
-0.019472137093544
-0.016881089657545
-0.0143012395128607
-0.0117447506636381
-0.0092148333787918
-0.0067112375982105
-0.0042329956777393
-0.0017782971262931
0.0006529954262077
0.0030535527039319
0.0054073873907327
0.0076951803639531
0.0098992642015218
0.0120044825598597
0.0139974597841501
0.0158662982285022
0.0175999402999877
0.019188042730093
0.0206233970820903
0.0219050645828247
0.0230380296707153
0.0240301452577114
0.0248904079198837
0.0256285294890403
0.0262527838349342
0.0267671551555395
0.0271717775613069
0.0274652168154716
0.0276449024677276
0.0277075693011283
0.0276510715484619
0.027473671361804
0.027166549116373
0.0267006568610668
0.0260161645710468
0.0250221490859985
0.0236072521656751
0.021658930927515
0.0190887637436389
0.0158567242324352
0.0119841154664754
0.0075534023344516
0.0026992699131369
-0.0024069864302873
-0.0075771231204271
-0.0126259857788681
-0.0173881370574235
-0.0217288509011268
-0.0255493428558111
-0.028785228729248
-0.0313997752964496
-0.0333761535584926
-0.034711368381977
-0.0354126989841461
-0.0354952812194824
-0.0349822416901588
-0.0339115262031555
-0.0323452986776828
-0.0303717907518148
-0.028096405789256
-0.0256276037544012
-0.0230638105422258
-0.0204836819320917
-0.0179406907409429
-0.0154634295031428
-0.0130611835047602
-0.0107309846207499
-0.0084621245041489
-0.0062390342354774
-0.004045533016324
-0.0018708229763433
0.0002862591063603
0.0024179518222808
0.0045102233998477
0.006543313153088
0.0084926709532737
0.0103341517969965
0.0120495762676
0.0136272767558693
0.0150608578696846
0.0163496937602758
0.0174982156604528
0.0185127016156911
0.019398309290409
0.0201588422060012
0.0208002980798482
0.0213350597769022
0.0217811334878206
0.0221547801047563
0.0224619377404451
0.0226963758468627
0.0228453110903501
0.0228964462876319
0.0228415243327617
0.0226758942008018
0.0223983600735664
0.0220125801861286
0.0215249694883823
0.0209370329976081
0.0202339254319667
0.0193720888346433
0.0182735808193683
0.016835231333971
0.0149505259469151
0.0125332195311784
0.0095362979918718
0.0059668151661753
0.001893050968647
-0.0025610914453864
-0.0072325514629483
-0.0119406692683696
-0.0165088325738906
-0.0207817368209362
-0.0246360208839178
-0.0279844105243682
-0.0307729039341211
-0.0329741984605789
-0.03458246961236
-0.0356080941855907
-0.0360711775720119
-0.0359992980957031
-0.0354314371943473
-0.034421257674694
-0.0330351889133453
-0.0313477292656898
-0.0294357575476169
-0.027372108772397
-0.0252188760787248
-0.0230222307145595
-0.0208117570728063
-0.0186045039445161
-0.016409408301115
-0.0142290275543928
-0.0120608452707529
-0.009899984113872
-0.007742163259536
-0.0055865896865725
-0.0034386808983981
-0.0013102663215249
0.0007835737196728
0.0028273384086787
0.0048057148233056
0.0067041544243693
0.0085092699155211
0.0102086523547768
0.0117920441552996
0.0132518457248806
0.0145812341943383
0.0157747641205787
0.0168322101235389
0.0177605859935283
0.0185728780925273
0.019283203408122
0.0199003182351589
0.0204253550618886
0.0208546463400125
0.0211831964552402
0.021406952291727
0.0215248316526412
0.0215401127934455
0.0214593838900327
0.0212900787591934
0.0210392288863658
0.0207135342061519
0.0203189700841903
0.019857520237565
0.0193199981003999
0.0186768788844347
0.0178709533065557
0.0168177969753742
0.0154187930747866
0.013582931831479
0.0112492302432656
0.0084047121927142
0.0050943186506628
0.0014194650575518
-0.0024752160534262
-0.0064231785945594
-0.0102584501728415
-0.0138346487656235
-0.0170391667634248
-0.0197997447103261
-0.0220800824463367
-0.0238675512373447
-0.0251641497015953
-0.0259854346513748
-0.026359174400568
-0.0263210255652666
-0.0259128399193286
-0.025183368474245
-0.0241874754428863
-0.0229831784963607
-0.021627951413393
-0.0201752632856369
-0.0186698660254478
-0.0171420704573392
-0.0156064201146364
-0.0140672586858272
-0.0125240162014961
-0.0109711587429046
-0.0093992110341787
-0.0078003467060625
-0.0061728926375508
-0.0045222071930766
-0.0028602678794413
-0.0012047854252159
0.0004226426244713
0.0019990443252027
0.0035032369196414
0.0049197319895029
0.0062413164414465
0.0074684652499854
0.0086069554090499
0.0096647338941693
0.0106487451121211
0.0115638123825192
0.0124127492308616
0.0131947379559278
0.0139028253033757
0.0145245734602212
0.0150473210960626
0.015463869087398
0.0157739985734224
0.0159833002835512
0.0161023829132318
0.0161455180495977
0.0161275379359722
0.0160606410354375
0.0159525442868471
0.0158064346760511
0.0156227052211761
0.0154010616242885
0.0151409832760691
0.0148381348699331
0.0144749730825424
0.0140109229832887
0.0133822094649076
0.0125118875876069
0.0113223753869533
0.0097488742321729
0.0077553014270961
0.005348639562726
0.0025847302749753
-0.0004376685246825
-0.0035905879922211
-0.0067327450960874
-0.0097253574058413
-0.0124469771981239
-0.0148066412657499
-0.0167518220841884
-0.0182664543390274
-0.0193621087819337
-0.0200693532824516
-0.0204309597611427
-0.0204955600202083
-0.0203112810850143
-0.0199215523898601
-0.0193657185882329
-0.0186808127909898
-0.0179001577198505
-0.0170508958399295
-0.0161524936556816
-0.0152156455442309
-0.0142425848171114
-0.0132303945720195
-0.0121750179678201
-0.0110728703439235
-0.0099213905632495
-0.0087201204150915
-0.0074716974049806
-0.0061827898025512
-0.0048651765100657
-0.0035354043357074
-0.0022122478112578
-0.0009139366447925
0.0003431717632338
0.0015447316691279
0.0026796290185302
0.0037436238490045
0.0047416575253009
0.0056834043934941
0.0065749627538025
0.0074163912795484
0.008206058293581
0.0089439321309328
0.0096307974308729
0.0102669801563024
0.0108524914830923
0.0113863181322813
0.0118645187467336
0.012280280701816
0.0126270074397325
0.0129016507416963
0.0131058059632778
0.0132446121424436
0.0133238695561885
0.0133456271141767
0.0133066270500421
0.0132026057690382
0.0130326356738805
0.0127992145717144
0.0125048141926527
0.012144518084824
0.0116976723074913
0.0111249219626188
0.0103735597804188
0.0093893818557262
0.0081302700564265
0.006577399559319
0.0047436486929655
0.0026780180633068
0.0004623308777809
-0.0018006593454629
-0.0040036481805145
-0.0060500293038785
-0.0078642331063747
-0.0093957707285881
-0.0106185982003808
-0.0115280877798795
-0.0121363447979092
-0.0124678537249565
-0.0125570772215724
-0.0124466577544808
-0.012184290215373
-0.0118166953325271
-0.0113825947046279
-0.0109098432585597
-0.0104165179654955
-0.0099128670990467
-0.0094040278345346
-0.0088910311460495
-0.0083688348531723
-0.0078269196674227
-0.0072551593184471
-0.0066498620435595
-0.0060141244903206
-0.0053524756804108
-0.0046663000248372
-0.0039549651555716
-0.0032200918067246
-0.002468449762091
-0.0017112179193645
-0.0009601669735275
-0.0002250900724902
0.0004847969394177
0.0011592397931963
0.0017884840490296
0.0023653400130569
0.0028859502635896
0.0033504604361951
0.0037623196840286
0.0041260509751737
0.0044467966072261
0.0047321394085884
0.0049931569956243
0.0052415914833545
0.0054842340759932
0.0057197590358555
0.0059405784122645
0.0061383247375488
0.0063088405877351
0.0064517422579228
0.0065658083185553
0.0066474680788815
0.0066936882212758
0.0067025390453636
0.0066713388077914
0.0065961275249719
0.0064684590324759
0.0062682605348527
0.0059593357145786
0.005491598509252
0.0048091225326061
0.0038631283678114
0.0026275760028511
0.0011101432610303
-0.0006460041040554
-0.002567385090515
-0.0045599117875099
-0.0065217278897762
-0.0083551183342933
-0.0099758198484778
-0.0113221853971481
-0.0123622473329305
-0.0130937350913882
-0.0135367093607783
-0.0137231638655066
-0.0136885195970535
-0.0134667009115219
-0.0130886463448405
-0.0125832790508866
-0.0119778718799352
-0.011297789402306
-0.0105676893144845
-0.0098120979964733
-0.0090535040944814
-0.0083091389387846
-0.0075875185430049
-0.0068860072642564
-0.0061916201375424
-0.0054859402589499
-0.0047513842582702
-0.0039753387682139
-0.0031514232978224
-0.0022789314389228
-0.0013623833656311
-0.0004113903269171
0.0005612801760435
0.0015415828675031
0.0025132070295512
0.0034575401805341
0.0043571949936449
0.0051991161890327
0.0059748124331235
0.0066785123199224
0.0073048719204962
0.0078500155359506
0.008316483348608
0.0087155848741531
0.0090640299022197
0.0093804020434618
0.0096843289211392
0.0099948998540639
0.0103268260136246
0.0106856478378176
0.0110639901831746
0.0114416414871811
0.011790138669312
0.0120789315551519
0.0122781032696366
0.0123553527519106
0.0122704803943634
0.011973469518125
0.0114108743146061
0.0105391824617981
0.0093384878709912
0.0078209126368165
0.0060337223112583
0.0040580760687589
0.001999775879085
-2.8843991458415985e-05
-0.0019267196767032
-0.0036132237873971
-0.0050316103734076
-0.0061510391533374
-0.0069659519940614
-0.0074921967461705
-0.0077607911080121
-0.0078101656399667
-0.0076796826906502
-0.0074078966863453
-0.0070338491350412
-0.006596433930099
-0.0061314678750932
-0.005668506026268
-0.0052268235012888
-0.0048121558502316
-0.004417129792273
-0.004024613648653
-0.0036132829263806
-0.0031634792685508
-0.002660316415131
-0.0020949514582753
-0.0014650411903858
-0.0007746387273073
-3.430154174566269e-05
0.0007394440472126
0.0015256311744451
0.0023013870231807
0.003045919816941
0.0037441775202751
0.0043879603035748
0.0049741058610379
0.0055017927661538
0.0059727923944592
0.0063934940844774
0.0067742560058832
0.0071266517043113
0.007460125721991
0.0077767660841345
0.0080635286867618
0.0082840286195278
0.0083756046369671
0.0082559585571289
0.0078365709632635
0.007038427516818
0.0058093718253076
0.0041393325664103
0.0020649675279855
-0.0003371019847691
-0.002960052806884
-0.0056761340238153
-0.0083502549678087
-0.0108584417030215
-0.0131021235138177
-0.0150118088349699
-0.0165446009486913
-0.0176816117018461
-0.0184247847646474
-0.0187909603118896
-0.0188057702034711
-0.0185010097920894
-0.0179143343120813
-0.0170880854129791
-0.0160680562257766
-0.0149034252390265
-0.0136437490582466
-0.0123310759663581
-0.0109935216605663
-0.0096459817141294
-0.0082952314987778
-0.0069428095594048
-0.0055840332061052
-0.0042073838412761
-0.0027974564582109
-0.0013399813324213
0.0001733060926198
0.0017410200089216
0.0033518299460411
0.0049877651035785
0.0066268593072891
0.0082440348342061
0.0098134949803352
0.0113119557499885
0.012720787897706
0.0140273561701178
0.015224602073431
0.0163096357136964
0.0172835476696491
0.0181512180715799
0.0189194288104772
0.0195952430367469
0.0201864317059516
0.0207012500613927
0.0211465340107679
0.0215250737965106
0.0218285229057073
0.0220264326781034
0.0220589898526668
0.0218364857137203
0.0212468616664409
0.0201731976121664
0.0185169130563735
0.016219574958086
0.0132790738716721
0.0097571872174739
0.0057755070738494
0.0015003816224634
-0.0028782952576875
-0.007170901633799
-0.0112108662724494
-0.0148695306852459
-0.0180607177317142
-0.0207393039017915
-0.0228954050689935
-0.0245427340269088
-0.0257047191262245
-0.026404183357954
-0.0266586858779191
-0.0264830347150564
-0.0258977599442005
-0.0249359384179115
-0.0236435495316982
-0.0220755226910114
-0.0202903561294078
-0.0183448605239391
-0.0162894539535045
-0.0141646387055516
-0.0120002627372741
-0.0098169352859258
-0.0076276753097772
-0.0054399091750383
-0.0032572001218795
-0.0010797847062349
0.001094190403819
0.0032653957605361
0.0054300939664244
0.0075782509520649
0.0096926819533109
0.0117506254464387
0.0137276612222194
0.01560097374022
0.0173515956848859
0.0189672857522964
0.0204434189945459
0.0217788238078355
0.022971162572503
0.0240179765969514
0.0249203741550445
0.0256827399134635
0.026310184970498
0.0268084742128849
0.027185283601284
0.0274502821266651
0.0276148617267608
0.0276929307729005
0.0277006812393665
0.0276540424674749
0.0275659151375293
0.0274433493614196
0.0272846594452857
0.0270792581140995
0.0268108136951923
0.0264577660709619
0.0259847231209278
0.0253294706344604
0.0243967734277248
0.02306236512959
0.0211867131292819
0.0186407547444105
0.0153388381004333
0.0112658506259322
0.0064893551170825
0.0011544758453965
-0.0045352317392826
-0.0103444885462522
-0.0160365290939807
-0.0214014165103435
-0.0262740738689899
-0.0305400863289833
-0.0341338813304901
-0.0370325483381748
-0.0392450019717216
-0.0407986082136631
-0.0417292192578315
-0.042076863348484
-0.0418851599097251
-0.0412028506398201
-0.0400857031345367
-0.0385964550077915
-0.036801554262638
-0.0347659215331077
-0.0325497761368751
-0.0302090048789978
-0.0277942568063735
-0.0253462120890617
-0.0228910613805055
-0.0204407554119825
-0.0179982744157314
-0.015563366934657
-0.0131355440244078
-0.0107162008062005
-0.0083096148446202
-0.0059209605678915
-0.0035551816690713
-0.0012188697000965
0.0010794624686241
0.0033310842700302
0.0055255992338061
0.0076473914086818
0.0096763698384165
0.0115935569629073
0.0133858900517225
0.0150469858199357
0.0165751352906227
0.0179704688489437
0.019233115017414
0.0203640572726726
0.0213669054210186
0.0222475305199623
0.0230123121291399
0.0236665960401296
0.0242138095200061
0.0246565174311399
0.0249982234090566
0.025242269039154
0.0253896862268447
0.0254394672811031
0.0253892205655574
0.0252338796854019
0.0249627418816089
0.0245537869632244
0.0239646099507808
0.023123662918806
0.0219284445047378
0.0202560164034366
0.0179872326552867
0.0150386560708284
0.011389197781682
0.0070910863578319
0.0022642090916633
-0.0029187109321355
-0.0082492586225271
-0.0135038364678621
-0.0184687729924917
-0.0229644551873207
-0.0268613472580909
-0.0300846267491579
-0.0326083004474639
-0.0344426706433296
-0.0356206893920898
-0.0361873656511306
-0.036194272339344
-0.0356991663575172
-0.0347668156027793
-0.0334677100181579
-0.0318763777613639
-0.0300691463053226
-0.0281183160841465
-0.0260848086327314
-0.0240141302347183
-0.0219361931085586
-0.019866369664669
-0.0178066082298755
-0.015748381614685
-0.013678528368473
-0.0115853464230895
-0.0094624906778335
-0.007311237975955
-0.0051418868824839
-0.0029729353263974
-0.0008273426210507
0.0012710021110251
0.0032981350086629
0.005231057293713
0.0070516485720872
0.0087505709379911
0.0103275096043944
0.0117879100143909
0.0131391249597072
0.0143898036330938
0.015550591982901
0.0166300609707832
0.0176281798630952
0.0185319669544696
0.0193104036152362
0.0199071168899536
0.0202352758496999
0.0201808549463748
0.0196190271526575
0.0184409078210592
0.0165811851620674
0.0140385217964649
0.0108844703063368
0.0072597782127559
0.0033574230037629
-0.0006061308085918
-0.0044216061942279
-0.0079080294817686
-0.0109231863170862
-0.0133683439344167
-0.0151888104155659
-0.0163698550313711
-0.0169299375265836
-0.016914777457714
-0.0163930319249629
-0.0154496934264898
-0.0141762411221861
-0.0126640489324927
-0.0110019370913505
-0.0092697767540812
-0.0075284070335328
-0.0058151734992861
-0.0041469680145382
-0.0025251519400626
-0.0009393132058903
0.0006293233018368
0.0022036836016923
0.0038059935905039
0.005452174693346
0.0071454150602221
0.0088721392676234
0.0106040593236684
0.0123054943978786
0.0139417489990592
0.0154837695881724
0.0169079471379518
0.0181946586817502
0.019328499212861
0.020299594849348
0.021104184910655
0.0217440742999315
0.0222260523587465
0.0225617811083793
0.0227666683495044
0.0228568203747272
0.0228456258773803
0.0227419175207614
0.0225504729896783
0.0222731009125709
0.0219093430787324
0.0214584805071353
0.0209228284657001
0.0203101467341184
0.0196334086358547
0.0189084149897098
0.018149534240365
0.0173605270683765
0.0165215358138084
0.0155780892819166
0.0144359841942787
0.012967137619853
0.0110308192670345
0.0085043683648109
0.0053113382309675
0.0014403164386749
-0.0030464977025985
-0.0080163013190031
-0.0132816964760422
-0.0186265688389539
-0.0238335970789194
-0.0287069175392389
-0.0330891758203506
-0.0368708297610282
-0.0399879962205886
-0.0424127131700515
-0.0441441424190998
-0.0452036261558532
-0.0456310510635376
-0.0454794019460678
-0.0448074713349342
-0.043674923479557
-0.0421431511640548
-0.0402779094874858
-0.0381474532186985
-0.0358184836804866
-0.0333543866872787
-0.0308121666312217
-0.0282358564436435
-0.0256527680903673
-0.0230749957263469
-0.0205011051148176
-0.0179169103503227
-0.0153013346716761
-0.0126389693468809
-0.0099308835342526
-0.0071966447867453
-0.0044694915413856
-0.0017889781156554
0.000806808238849
0.0032873929012566
0.0056327106431126
0.0078325243666768
0.0098843276500701
0.0117914825677871
0.0135601740330457
0.0151958279311656
0.0167030282318592
0.0180874671787023
0.0193560048937797
0.0205153878778219
0.0215706638991832
0.0225235745310783
0.0233729463070631
0.024117175489664
0.0247557573020458
0.0252880919724702
0.0257113073021173
0.0260202903300523
0.0262088570743799
0.0262645538896322
0.0261550582945346
0.0258175134658813
0.0251605119556188
0.0240766070783138
0.0224617142230272
0.0202380549162626
0.0173741579055786
0.0138974133878946
0.0098977526649832
0.0055207815021276
0.0009496328420937
-0.003619457129389
-0.0079995039850473
-0.0120302233844995
-0.0155901722609996
-0.0185998640954494
-0.0210166163742542
-0.0228286944329738
-0.0240495614707469
-0.0247078947722911
-0.0248394459486007
-0.0244890004396438
-0.0237160921096801
-0.0225935261696577
-0.0211995504796504
-0.0196100566536188
-0.0178927779197692
-0.016102684661746
-0.0142791606485843
-0.0124465078115463
-0.0106171807274222
-0.0087953498587012
-0.0069794636219739
-0.0051647867076098
-0.0033471258357167
-0.0015246495604515
0.0003036451525986
0.0021363673731684
0.0039647324010729
0.0057724704965949
0.0075402283109724
0.0092478403821587
0.0108748879283666
0.0124034974724054
0.0138222742825746
0.0151269063353538
0.0163173377513885
0.0173951350152492
0.0183621998876333
0.0192204713821411
0.0199727304279804
0.0206229966133832
0.0211754068732261
0.0216309744864702
0.0219789557158947
0.0221840888261795
0.0221793241798877
0.0218701381236314
0.0211480371654033
0.0199104566127061
0.0180857013911008
0.0156560353934764
0.0126693751662969
0.0092353522777557
0.0055076177231967
0.0016608349978923
-0.0021284390240907
-0.0056962752714753
-0.0089037381112575
-0.0116461403667926
-0.0138573665171861
-0.0155078861862421
-0.0165984313935041
-0.0171540584415197
-0.017219578847289
-0.0168551430106163
-0.0161324627697467
-0.015131396241486
-0.0139350509271025
-0.0126227140426635
-0.0112621989101171
-0.0099045792594552
-0.0085825566202402
-0.0073106130585074
-0.0060854256153106
-0.004889016970992
-0.0036961380392313
-0.0024828161112964
-0.0012334296479821
5.6150369346141815e-05
0.0013808055082336
0.0027306526899337
0.00409372523427
0.0054563349112868
0.0068034976720809
0.0081199835985898
0.0093899210914969
0.0105952527374029
0.0117169059813022
0.0127398371696472
0.0136564439162611
0.0144640998914837
0.0151605634018778
0.0157425943762063
0.0162069592624902
0.0165505874902009
0.0167707428336143
0.0168669242411851
0.0168433189392089
0.0167088862508535
0.0164746604859828
0.0161517988890409
0.01575193926692
0.0152873741462826
0.0147699043154716
0.0142108481377363
0.0136212343350052
0.0130054363980889
0.0123469401150941
0.0115956170484423
0.0106652453541755
0.0094421645626425
0.0078036449849605
0.0056440727785229
0.0029010288417339
-0.0004277350381016
-0.0042787147685885
-0.0085294358432292
-0.0130165740847587
-0.0175579451024532
-0.0219723545014858
-0.0260966569185256
-0.0297990627586841
-0.0329870283603668
-0.0356091484427452
-0.0376495048403739
-0.0391160920262336
-0.0400299951434135
-0.0404188334941864
-0.0403143279254436
-0.0397534891963005
-0.0387806147336959
-0.0374465584754943
-0.0358053632080554
-0.033911507576704
-0.0318200662732124
-0.0295861326158046
-0.0272588077932596
-0.0248738694936037
-0.0224534068256616
-0.020010732114315
-0.0175537448376417
-0.0150868808850646
-0.0126134622842073
-0.0101371631026268
-0.0076625030487775
-0.0051953992806375
-0.0027442164719104
-0.0003210557624697
0.0020580063574016
0.0043745450675487
0.0066102538257837
0.0087488256394863
0.0107768913730978
0.0126847876235842
0.0144668435677886
0.0161201208829879
0.017642980441451
0.0190353281795978
0.0202999673783779
0.0214420072734355
0.0224660821259021
0.0233763866126537
0.0241797063499689
0.0248851515352726
0.0254996176809072
0.0260239150375127
0.0264538172632455
0.0267849937081336
0.0270154438912868
0.0271426700055599
0.0271563902497291
0.0270271152257919
0.0266960524022579
0.0260744765400886
0.0250551011413335
0.02353136241436
0.0214191880077123
0.0186789333820343
0.0153323551639914
0.0114664975553751
0.0072237886488437
0.0027832856867462
-0.0016626807628199
-0.0059315986000001
-0.009868917055428
-0.0133584160357713
-0.0163242034614086
-0.0187274310737848
-0.0205607563257217
-0.0218400806188583
-0.0225952006876468
-0.0228639859706163
-0.022691186517477
-0.0221286602318286
-0.0212345775216817
-0.0200713481754064
-0.0187023598700761
-0.0171882603317499
-0.015583086758852
-0.0139297507703304
-0.0122569575905799
-0.0105797173455357
-0.0089026950299739
-0.0072247944772243
-0.0055430410429835
-0.0038547068834304
-0.002157574519515
-0.0004496658220887
0.0012689474970102
0.0029924106784164
0.0047071441076695
0.0063942242413759
0.0080334935337305
0.0096055921167135
0.0110921636223793
0.0124767022207379
0.0137467607855796
0.0148951709270477
0.0159178860485553
0.0168113224208354
0.0175734497606754
0.0182060506194829
0.0187146086245775
0.0191083326935768
0.0194012355059385
0.0196109842509031
0.0197556111961603
0.019849868491292
0.0198996774852275
0.019894428551197
0.0197999607771635
0.0195543747395277
0.0190695263445377
0.0182408671826124
0.0169635359197855
0.015151772648096
0.0127608021721243
0.0098052602261304
0.0063645057380199
0.0025724847801029
-0.001401768065989
-0.005376829765737
-0.0091804321855306
-0.0126649904996156
-0.0157161559909582
-0.0182569921016693
-0.0202483087778091
-0.0216842610388994
-0.0225848872214555
-0.0229896493256092
-0.0229540206491947
-0.0225475560873746
-0.0218492113053798
-0.0209379456937313
-0.0198836252093315
-0.0187433045357465
-0.0175613760948181
-0.0163695979863405
-0.0151849677786231
-0.014007506892085
-0.0128235574811697
-0.0116142965853214
-0.0103617729619145
-0.0090504214167594
-0.0076683205552399
-0.0062092808075249
-0.00467508751899
-0.0030779945664107
-0.0014412717428058
0.000204250216484
0.0018257950432598
0.0033931345678865
0.0048800488002598
0.0062642772682011
0.0075288293883204
0.0086640287190675
0.0096683539450168
0.0105479313060641
0.0113148372620344
0.0119851296767592
0.0125779490917921
0.0131134362891316
0.013604630716145
0.0140447514131665
0.0143975904211401
0.0145942829549312
0.0145358685404062
0.0141048682853579
0.0131870973855257
0.0116963945329189
0.0095940846949815
0.0069009223952889
0.0037008863873779
0.0001345661003142
-0.003618519520387
-0.0073650395497679
-0.0109225306659936
-0.0141370762139558
-0.0168940052390098
-0.0191219970583915
-0.0207888726145029
-0.0218927562236785
-0.0224551428109407
-0.0225159991532564
-0.0221281293779611
-0.0213533174246549
-0.0202615614980459
-0.0189275667071342
-0.0174223333597183
-0.0158064737915992
-0.0141282239928841
-0.0124220745638012
-0.0107080098241567
-0.0089934216812253
-0.0072771436534821
-0.0055545102804899
-0.0038210568018257
-0.002073545474559
-0.0003095981664955
0.0014711809344589
0.0032632802613079
0.0050533190369606
0.0068232174962759
0.0085538756102323
0.0102260410785675
0.0118210297077894
0.0133228981867432
0.0147207323461771
0.0160103850066661
0.0171938445419073
0.0182740874588489
0.0192490629851818
0.0201110206544399
0.0208504945039749
0.0214608628302812
0.0219424739480018
0.0223049577325582
0.0225654356181621
0.0227425135672092
0.0228489842265844
0.0228881575167179
0.0228556096553802
0.0227431003004312
0.0225423984229564
0.0222495179623365
0.0218670610338449
0.0213996395468711
0.020843468606472
0.0201759412884712
0.0193478725850582
0.0182808972895145
0.0168737061321735
0.0150174591690301
0.0126169146969914
0.0096129355952143
0.0060018002986907
0.0018455637618899
-0.0027301767840981
-0.0075510400347411
-0.0124185141175985
-0.017137587070465
-0.0215384885668754
-0.0254896245896816
-0.028903217986226
-0.0317333564162254
-0.0339672975242137
-0.0356136597692966
-0.0366913639008998
-0.0372238345444202
-0.0372396931052207
-0.0367755219340324
-0.0358772054314613
-0.0345991142094135
-0.0329999439418315
-0.0311382245272398
-0.0290718507021665
-0.0268568936735391
-0.0245428532361984
-0.0221709143370389
-0.0197754837572574
-0.017383212223649
-0.0150100756436586
-0.0126612531021237
-0.0103349555283784
-0.0080265151336789
-0.0057305945083498
-0.0034441768657416
-0.0011709108948707
0.0010775881819427
0.0032843474764376
0.0054296762682497
0.007493196055293
0.0094570126384496
0.0113081028684973
0.0130371563136577
0.0146356988698244
0.0160946995019912
0.0174060724675655
0.018566632643342
0.0195805300027132
0.0204571243375539
0.0212062746286392
0.0218345616012811
0.0223446507006883
0.0227371584624052
0.0230133235454559
0.0231774561107158
0.0232381392270326
0.0232076738029718
0.0230985134840011
0.0229143779724836
0.0226364731788635
0.0222107246518135
0.0215452834963798
0.0205230340361595
0.0190243553370237
0.0169531106948852
0.0142606804147362
0.0109621370211243
0.0071403183974325
0.0029378710314631
-0.001460438594222
-0.0058527500368654
-0.010048147290945
-0.013888431712985
-0.0172571036964654
-0.0200802460312843
-0.022325150668621
-0.0239943154156208
-0.0251141935586929
-0.025725208222866
-0.0258764177560806
-0.0256228670477867
-0.025023516267538
-0.0241387877613306
-0.0230280794203281
-0.0217471942305564
-0.0203445386141538
-0.0188572518527507
-0.0173097923398017
-0.0157141387462615
-0.0140711646527051
-0.0123757468536496
-0.0106242820620536
-0.008820166811347
-0.0069751683622598
-0.0051069566980004
-0.0032353168353438
-0.0013799513690173
0.0004394706338644
0.0022038926836103
0.0038977796211838
0.0055106678046286
0.0070363832637667
0.0084733013063669
0.0098241977393627
0.0110939759761095
0.0122887762263417
0.0134156420826911
0.0144786741584539
0.0154740698635578
0.0163879580795764
0.0171943828463554
0.0178497061133384
0.0182860419154167
0.0184094496071338
0.0181079749017953
0.0172717459499835
0.015819102525711
0.0137189645320177
0.011004390195012
0.0077745765447616
0.0041835093870759
0.0004182832781225
-0.0033270455896854
-0.0068757981061935
-0.0100848199799656
-0.0128504065796732
-0.0151074929162859
-0.0168252401053905
-0.0180000867694616
-0.0186485070735216
-0.0188017878681421
-0.0185030009597539
-0.0178054235875606
-0.0167708192020654
-0.0154655221849679
-0.0139552103355526
-0.0123012196272611
-0.0105586284771561
-0.0087753618136048
-0.0069916313514113
-0.0052381521090865
-0.0035341782495379
-0.0018864823505282
-0.0002894019708037
0.0012718620710074
0.0028148316778242
0.0043544876389205
0.0059015322476625
0.0074621103703975
0.0090362364426255
0.0106147788465023
0.0121783874928951
0.0137018347159028
0.0151599440723657
0.0165285672992467
0.0177835803478956
0.0189042799174785
0.0198779050260782
0.020699955523014
0.021372826769948
0.0219058934599161
0.022315002977848
0.0226189978420734
0.0228350311517715
0.0229752045124769
0.0230444967746734
0.0230413302779197
0.0229625888168811
0.0228095259517431
0.02258818782866
0.0223032981157302
0.0219525098800659
0.0215279273688793
0.0210219211876392
0.020427668467164
0.0197314955294132
0.0189022272825241
0.0178812071681022
0.016576949506998
0.0148725248873233
0.0126480292528867
0.0098103191703557
0.0063188523054122
0.0022011240944266
-0.0024434048682451
-0.0074535179883241
-0.0126309096813201
-0.017770254984498
-0.0226842686533927
-0.0272191911935806
-0.0312617011368274
-0.0347404368221759
-0.0376217998564243
-0.0398996248841285
-0.0415830127894878
-0.0426867976784706
-0.0432267263531684
-0.0432201996445655
-0.0426916740834713
-0.0416787229478359
-0.0402345955371856
-0.0384262427687644
-0.0363293662667274
-0.0340230427682399
-0.0315844267606735
-0.0290813781321048
-0.0265633296221494
-0.0240555591881275
-0.0215618349611759
-0.0190733969211578
-0.0165764689445495
-0.0140562579035758
-0.0115016158670187
-0.0089098187163472
-0.006287754047662
-0.003650136757642
-0.0010174144990742
0.0015861764550209
0.0041336668655276
0.0065949512645602
0.0089381476864218
0.0111341411247849
0.0131614562124013
0.0150091918185353
0.0166767686605453
0.0181707516312599
0.0195009186863899
0.0206778179854154
0.0217132717370986
0.022622387856245
0.0234229993075132
0.0241312216967344
0.0247571170330047
0.0253042001277208
0.0257706921547651
0.0261494927108287
0.0264283008873462
0.0265924707055091
0.0266292244195938
0.0265298821032047
0.0262882299721241
0.0258922167122364
0.0253095496445894
0.0244765318930149
0.0232990328222513
0.0216674041002988
0.0194819811731576
0.0166802778840065
0.013257211074233
0.0092745907604694
0.0048568979837
0.0001738453283905
-0.0045833103358745
-0.0092250080779194
-0.0135827688500285
-0.0175234116613864
-0.0209574922919273
-0.02384028211236
-0.0261636115610599
-0.0279408730566501
-0.0291927810758352
-0.0299404822289943
-0.0302051343023777
-0.0300100948661565
-0.0293841734528541
-0.0283654816448688
-0.0270048230886459
-0.0253651719540357
-0.0235159713774919
-0.0215258337557315
-0.019455874338746
-0.0173538718372583
-0.0152506465092301
-0.0131595777347683
-0.0110788298770785
-0.0089948689565062
-0.0068871993571519
-0.0047351354733109
-0.0025252504274249
-0.0002572792582213
0.0020544067956507
0.0043846946209669
0.0067014591768383
0.0089661572128534
0.0111369071528315
0.013175182044506
0.0150497471913695
0.0167371518909931
0.0182239189743995
0.019510542973876
0.0206108894199132
0.0215451493859291
0.0223336406052112
0.0229951366782188
0.0235454700887203
0.0239958669990301
0.0243545249104499
0.0246292278170585
0.0248249992728233
0.0249397810548543
0.0249651595950126
0.0248902011662721
0.0247051957994699
0.0244053527712821
0.0239921063184738
0.0234705209732055
0.0228435210883617
0.0221032910048961
0.0212216824293136
0.0201431587338447
0.0187841616570949
0.0170434471219778
0.0148255145177245
0.0120694274082779
0.0087688015773892
0.0049782451242208
0.0008092867210507
-0.003583125770092
-0.0080191399902105
-0.0123135931789875
-0.0162974707782268
-0.01983761228621
-0.0228468924760818
-0.0252830684185028
-0.02714179828763
-0.0284475684165954
-0.029243329539895
-0.0295815989375114
-0.0295185260474681
-0.0291101224720478
-0.0284122675657272
-0.0274831429123878
-0.0263817701488733
-0.0251628644764423
-0.0238719545304775
-0.0225405842065811
-0.0211833119392395
-0.0197993610054254
-0.0183772146701812
-0.0169003438204526
-0.0153546035289764
-0.0137354992330074
-0.0120508465915918
-0.0103177847340703
-0.0085574202239513
-0.0067903166636824
-0.0050356113351881
-0.0033132338430732
-0.0016453845892101
-5.557737313210964e-05
0.0014354460872709
0.0028153129387646
0.0040823724120855
0.0052442941814661
0.0063154748640954
0.0073128221556544
0.0082504376769065
0.0091375103220343
0.0099794268608093
0.0107781719416379
0.0115325488150119
0.0122387846931815
0.0128894252702593
0.0134723260998725
0.0139720197767019
0.0143719092011451
0.0146569097414612
0.0148172993212938
0.0148523822426795
0.014771563000977
0.0145911592990159
0.0143277486786246
0.013990469276905
0.0135717280209064
0.0130362529307603
0.0123160723596811
0.0113203292712569
0.0099574048072099
0.0081568509340286
0.0058851297944784
0.0031575690954923
4.3462030589580536e-05
-0.0033404072746634
-0.0068450788967311
-0.0103099634870886
-0.0135857509449124
-0.0165518932044506
-0.0191222093999385
-0.0212423726916313
-0.0228863563388586
-0.0240528658032417
-0.0247598458081483
-0.0250383131206035
-0.0249282699078321
-0.024477656930685
-0.0237416885793209
-0.0227788500487804
-0.0216461364179849
-0.0203961469233036
-0.0190735235810279
-0.0177118070423603
-0.0163320153951644
-0.01494125649333
-0.0135335018858313
-0.0120941568166017
-0.0106057422235608
-0.0090536661446094
-0.0074314177036285
-0.0057421158999204
-0.0039983303286135
-0.0022237645462155
-0.0004519983194768
0.0012810849584639
0.0029452145099639
0.0045193834230303
0.0059920982457697
0.0073606292717158
0.0086299311369657
0.0098097259178757
0.0109111992642283
0.0119448015466332
0.0129168163985013
0.0138262761756777
0.0146667305380105
0.0154317701235413
0.016118736937642
0.016727527603507
0.0172578431665897
0.0177086852490901
0.018076566979289
0.0183476395905017
0.0184877850115299
0.0184392780065536
0.0181268081068992
0.0174697916954755
0.0163990631699562
0.0148767307400703
0.0129117704927921
0.0105632133781909
0.0079320417717099
0.0051491488702595
0.0023622824810445
-0.0002819593064486
-0.0026586272288113
-0.0046771466732025
-0.0062842806801199
-0.0074617625214159
-0.0082210386171936
-0.0085965590551495
-0.0086377533152699
-0.0084012551233172
-0.0079462053254246
-0.0073309978470206
-0.0066089774481952
-0.0058253463357687
-0.0050165983848273
-0.0042089559137821
-0.0034160274080932
-0.0026415800675749
-0.0018853824585676
-0.0011444217525422
-0.0004119826480746
0.000319579616189
0.0010549454018473
0.0017948830500245
0.0025381920859217
0.0032836673781275
0.0040295966900885
0.0047721206210553
0.0055049657821655
0.0062208594754338
0.0069125955924391
0.0075728623196482
0.0081950398162007
0.0087739778682589
0.0093042980879545
0.0097787864506244
0.0101898200809955
0.0105337221175432
0.0108140567317605
0.0110389972105622
0.011215423233807
0.0113466680049896
0.011433738283813
0.0114746559411287
0.0114604961127042
0.0113696297630667
0.011162307113409
0.010778316296637
0.0101398341357707
0.0091605642810463
0.0077601731754839
0.0058821719139814
0.0035125252325087
0.0006927282083779
-0.0024787916336208
-0.0058593926951289
-0.0092860013246536
-0.0126000298187136
-0.0156650822609663
-0.0183758120983839
-0.0206603221595287
-0.0224803611636161
-0.023828774690628
-0.0247199777513742
-0.0251776911318302
-0.0252308640629053
-0.0249169506132602
-0.0242816694080829
-0.0233742389827966
-0.0222445279359817
-0.0209422260522842
-0.0195141397416591
-0.0179997291415929
-0.0164292473345994
-0.0148257296532392
-0.0132064176723361
-0.0115818381309509
-0.0099549759179353
-0.0083217993378639
-0.0066731176339089
-0.0049977833405137
-0.0032879458740353
-0.0015456853434443
0.0002144342288374
0.0019701421260833
0.0036977343261241
0.0053744660690426
0.0069791488349437
0.0084938453510403
0.0099067445844411
0.0112142348662018
0.0124200088903307
0.013532368466258
0.0145612442865967
0.015514351427555
0.0163944046944379
0.0172001905739307
0.0179291330277919
0.018577218055725
0.0191372409462928
0.0195990949869155
0.0199531279504299
0.0201949011534452
0.0203283298760652
0.0203622952103614
0.0202986262738704
0.0201178714632987
0.0197708830237388
0.0191793590784072
0.0182468574494123
0.0168790109455585
0.0150072555989027
0.0126083549112081
0.0097125843167305
0.0063992496579885
0.0027851902414113
-0.0009876084513962
-0.0047649061307311
-0.0083968490362167
-0.0117562739178538
-0.0147501733154058
-0.0173195675015449
-0.0194320846349
-0.0210743825882673
-0.0222469866275787
-0.0229614805430173
-0.0232402198016643
