bvp
-0.0131909605115652
-0.0117206824943423
-0.0101669700816273
-0.008531647734344
-0.0068207890726625
-0.0050463816151022
-0.0032272499520331
-0.0013890997506678
0.0004372152034193
0.0022201128304004
0.0039316173642873
0.005551055073738
0.0070676794275641
0.0084789795801043
0.0097862286493182
0.0109924310818314
0.0121027706190943
0.0131243700161576
0.0140649639070034
0.0149313379079103
0.0157277677208185
0.0164552442729473
0.0171113386750221
0.0176897719502449
0.0181810371577739
0.0185741353780031
0.0188560020178556
0.0190060846507549
0.0189878046512603
0.0187432523816823
0.0181969199329614
0.0172678213566541
0.0158857069909572
0.0140086794272065
0.0116386990994215
0.0088304616510868
0.0056918514892458
0.0023747417144477
-0.0009453095844946
-0.0040962290950119
-0.0069334688596427
-0.0093534654006361
-0.0112956203520298
-0.0127368737012147
-0.0136850569397211
-0.0141735281795263
-0.01425511110574
-0.013994988054037
-0.0134636498987674
-0.0127293672412633
-0.0118514262139797
-0.0108770001679658
-0.009841731749475
-0.00877246260643
-0.0076907356269657
-0.0066140014678239
-0.0055526345968246
-0.0045071165077388
-0.0034691421315073
-0.0024237856268882
-0.001351399347186
-0.0002321535721421
0.0009476882405579
0.002191562205553
0.0034909157548099
0.0048250085674226
0.0061631323769688
0.0074704471044242
0.0087160486727952
0.0098787331953644
0.0109458919614553
0.0119080059230327
0.0127564286813139
0.0134855937212705
0.0140950474888086
0.0145894214510917
0.0149775464087724
0.0152711533010005
0.015482353977859
0.015621967613697
0.0156999044120311
0.0157221723347902
0.0156816914677619
0.0155477626249194
0.0152593785896897
0.0147267021238803
0.0138431778177618
0.0125053068622946
0.0106348628178238
0.0081990994513034
0.0052250595763325
0.0018035576213151
-0.0019207822624593
-0.0057708290405571
-0.0095605077221989
-0.0131144179031252
-0.0162852331995964
-0.0189684145152568
-0.0211076810956001
-0.0226890109479427
-0.0237275287508964
-0.0242552850395441
-0.0243166647851467
-0.0239679384976625
-0.0232740752398967
-0.0223044827580451
-0.0211291518062353
-0.0198121704161167
-0.0184056870639324
-0.0169485956430435
-0.0154676670208573
-0.0139788640663027
-0.0124886333942413
-0.0109953889623284
-0.0094917500391602
-0.0079672988504171
-0.0064109284430742
-0.004812411032617
-0.0031651533208787
-0.0014708484522998
0.0002577295526862
0.0019987607374787
0.0037257238291203
0.0054107354953885
0.0070273494347929
0.0085533922538161
0.0099730156362056
0.0112776961177587
0.0124661764129996
0.0135423671454191
0.0145109724253416
0.0153745915740728
0.0161361470818519
0.0168035235255956
0.0173891223967075
0.0179038308560848
0.0183521434664726
0.0187317971140146
0.0190361551940441
0.0192568153142929
0.0193832907825708
0.0193971563130617
0.0192628223448991
0.0189201906323432
0.0182840265333652
0.0172537881880998
0.015732642263174
0.0136503865942358
0.0109855346381664
0.0077793225646018
0.0041340431198477
0.0001977218780666
-0.0038551851175725
-0.0078431703150272
-0.0115981185808777
-0.0149829518049955
-0.0179009698331356
-0.0202970262616872
-0.0221539866179227
-0.0234849546104669
-0.0243219286203384
-0.024706183001399
-0.0246824752539396
-0.0242945831269025
-0.0235831122845411
-0.0225869994610548
-0.0213470365852117
-0.0199079979211092
-0.0183161571621894
-0.0166156217455863
-0.0148478085175156
-0.0130508737638592
-0.0112563334405422
-0.0094846580177545
-0.0077426298521459
-0.0060245618224143
-0.0043174494057893
-0.0026075225323438
-0.0008852956816554
0.0008520139381289
0.0026004910469055
0.004350196570158
0.0060842810198664
0.007778444327414
0.009404070675373
0.0109331272542476
0.0123415514826774
0.0136119117960333
0.0147367781028151
0.0157202947884798
0.016574814915657
0.0173155963420867
0.0179582051932811
0.0185171030461788
0.0190036613494157
0.019426342099905
0.0197931602597236
0.0201119631528854
0.0203863605856895
0.0206106323748826
0.0207654479891061
0.0208120513707399
0.0206867381930351
0.0203015003353357
0.0195534918457269
0.0183419417589902
0.0165881942957639
0.0142529271543025
0.0113474652171134
0.0079396963119506
0.0041536525823175
0.0001584040001034
-0.0038551767356693
-0.0077014141716063
-0.0112207867205142
-0.0142933707684278
-0.0168451685458421
-0.0188463330268859
-0.0203034412115812
-0.0212496127933263
-0.0217344462871551
-0.0218146853148937
-0.0215488299727439
-0.0209967549890279
-0.0202188435941934
-0.0192719418555498
-0.0182049460709095
-0.017055170610547
-0.0158454682677984
-0.0145842609927058
-0.0132705047726631
-0.0119012054055929
-0.0104770772159099
-0.0090050902217626
-0.0074983984231948
-0.0059729656204581
-0.0044424850493669
-0.002916368888691
-0.0014022842515259
9.102420881390572e-05
0.0015539822634309
0.002976294606924
0.0043456768617033
0.0056500695645809
0.0068819215521216
0.0080385515466332
0.0091191716492176
0.010122736915946
0.0110486773774027
0.0118987653404474
0.0126768201589584
0.0133855957537889
0.0140226501971483
0.0145754218101501
0.0150136165320873
0.0152809591963887
0.0152930151671171
0.0149456281214952
0.0141341518610715
0.0127785727381706
0.0108451899141073
0.0083586443215608
0.0054027521982789
0.002109746215865
-0.0013581971870735
-0.0048282342031598
-0.0081348055973649
-0.0111361853778362
-0.0137254428118467
-0.0158327147364616
-0.0174218080937862
-0.0184859316796064
-0.0190430413931608
-0.0191293694078922
-0.0187932197004556
-0.0180921349674463
-0.0170914642512798
-0.0158590823411941
-0.0144573766738176
-0.0129392715170979
-0.0113499108701944
-0.0097293714061379
-0.0081115700304508
-0.0065201837569475
-0.004966618027538
-0.0034507839009165
-0.0019635274074971
-0.000491960439831
0.0009750444442033
0.0024445853196084
0.0039181029424071
0.0053895036689937
0.0068459012545645
0.0082712741568684
0.0096505712717771
0.0109706539660692
0.012217404320836
0.0133737986907362
0.0144221913069486
0.0153496731072664
0.0161534883081913
0.0168418139219284
0.0174286551773548
0.0179278086870908
0.018350176513195
0.0187039896845817
0.0189953986555337
0.0192275270819664
0.0193996187299489
0.0195081904530525
0.0195477921515703
0.0195093974471092
0.0193772949278354
0.0191244781017303
0.0187062323093414
0.0180545076727867
0.0170789659023284
0.0156792029738426
0.0137655586004257
0.0112806735560297
0.0082163317129015
0.0046223746612668
0.0006038527935743
-0.0036909701302647
-0.0080850180238485
-0.012389775365591
-0.0164286941289901
-0.0200603734701871
-0.0231914743781089
-0.0257765837013721
-0.0278086028993129
-0.0293056480586528
-0.0303000472486019
-0.03083011880517
-0.030932743102312
-0.0306390859186649
-0.0299776848405599
-0.0289820432662963
-0.0276944376528263
-0.0261638294905424
-0.0244417916983366
-0.0225786305963993
-0.0206209737807512
-0.0186094660311937
-0.0165744964033365
-0.0145345870405435
-0.012500649318099
-0.0104804933071136
-0.0084791630506515
-0.0064981873147189
-0.0045372736640274
-0.0025971820577979
-0.0006818503607064
0.0012004899326711
0.0030379788950085
0.0048170574009418
0.0065239425748586
0.0081459553912281
0.0096722925081849
0.0110934879630804
0.012402206659317
0.0135956136509776
0.0146755436435341
0.0156467426568269
0.0165159665048122
0.0172907058149576
0.0179759263992309
0.0185718704015016
0.0190767552703619
0.0194919295608997
0.0198228005319833
0.0200750138610601
0.0202510710805654
0.020345252007246
0.0203320812433958
0.0201555434614419
0.0197280962020158
0.0189397558569908
0.0176770240068435
0.0158502217382192
0.0134194493293762
0.010408479720354
0.0069047277793288
0.0030481368303298
-0.0009881383739411
-0.0050206203013658
-0.0088773593306541
-0.0124152153730392
-0.0155295711010694
-0.0181563608348369
-0.02026935108006
-0.021873902529478
-0.0229961201548576
-0.0236705616116523
-0.0239323657006025
-0.0238161832094192
-0.0233591087162494
-0.022601893171668
-0.021586999297142
-0.0203579105436801
-0.0189599636942148
-0.0174371041357517
-0.0158264562487602
-0.0141574004665017
-0.0124530000612139
-0.0107297869399189
-0.0089981090277433
-0.0072637577541172
-0.0055292192846536
-0.0037959048058837
-0.0020670352969318
-0.000348069705069
0.0013540007639676
0.0030296221375465
0.004665323998779
0.0062451204285025
0.0077533656731247
0.0091750808060169
0.010494845919311
0.0116991205140948
0.0127826984971761
0.0137518923729658
0.0146177615970373
0.0153867276385426
0.0160605516284704
0.0166432261466979
0.0171437468379735
0.0175723414868116
0.017936635762453
0.0182421263307333
0.0184946749359369
0.0187005884945392
0.018864020705223
0.0189849957823753
0.0190587379038333
0.0190728940069675
0.0190005134791135
0.0187919400632381
0.0183706749230623
0.017637874931097
0.0164890438318252
0.0148385483771562
0.012641817331314
0.0099096372723579
0.006711930502206
0.0031697596423327
-0.0005609444342553
-0.0043097571469843
-0.0079135410487651
-0.0112348552793264
-0.0141721311956644
-0.0166602190583944
-0.018663952127099
-0.0201708488166332
-0.0211881902068853
-0.0217434763908386
-0.0218829698860645
-0.0216657128185033
-0.0211558677256107
-0.0204173997044563
-0.0195104070007801
-0.0184876453131437
-0.0173928365111351
-0.0162604786455631
-0.01511553209275
-0.0139725413173437
-0.0128345713019371
-0.0116948150098323
-0.0105411047115921
-0.0093590710312128
-0.0081347487866878
-0.00686019891873
-0.0055377464741468
-0.0041781230829656
-0.0027962471358478
-0.0014084267895668
-3.0165525458869524e-05
0.0013255967060104
0.0026487682480365
0.0039319600909948
0.0051701045595109
0.0063577736727893
0.0074859736487269
0.0085432222113013
0.0095200790092349
0.0104094743728637
0.0111979087814688
0.0118536204099655
0.0123218344524502
0.0125287398695945
0.0123911052942276
0.0118302535265684
0.010789094492793
0.0092491544783115
0.0072410805150866
0.0048442920669913
0.0021779197268188
-0.0006144201615825
-0.0033834292553365
-0.0059912363067269
-0.0083230193704366
-0.0102939000353217
-0.0118523901328444
-0.0129793770611286
-0.0136826829984784
-0.0139888804405927
-0.0139349726960062
-0.0135635146871209
-0.0129212401807308
-0.0120570231229066
-0.0110176149755716
-0.0098445676267147
-0.0085749235004186
-0.0072438735514879
-0.0058851316571235
-0.0045266700908541
-0.0031848759390413
-0.0018624574877321
-0.0005525466986
0.000753067433834
0.0020570745691657
0.0033559103030711
0.0046429457142949
0.0059097311459481
0.0071452762931585
0.0083367582410573
0.0094717526808381
0.0105407703667879
0.0115385670214891
0.0124623738229274
0.0133096454665064
0.014078713953495
0.0147706577554345
0.0153900068253278
0.0159428007900714
0.0164318736642599
0.0168537814170122
0.0172012951225042
0.017468336969614
0.0176513157784938
0.0177469905465841
0.017752444371581
0.0176689270883798
0.0175047442317008
0.0172725617885589
0.0169827975332736
0.0166394189000129
0.0162426829338073
0.0157946795225143
0.015297501347959
0.0147412065416574
0.0140895340591669
0.0132730137556791
0.012194967828691
0.0107490718364715
0.0088427867740392
0.0064205937087535
0.0034803925082087
7.898733019828796e-05
-0.0036736140027642
-0.0076290136203169
-0.0116204796358942
-0.0154845677316188
-0.0190797559916973
-0.022297590970993
-0.0250663366168737
-0.0273500829935073
-0.0291436817497015
-0.0304624252021312
-0.0313308276236057
-0.0317760743200778
-0.0318254977464675
-0.0315067172050476
-0.0308503191918134
-0.0298921018838882
-0.0286726970225572
-0.027236184105277
-0.0256287902593612
-0.0238958559930324
-0.0220768712460994
-0.0202010553330183
-0.0182853378355503
-0.0163373369723558
-0.0143633689731359
-0.0123740462586283
-0.0103820841759443
-0.0083979750052094
-0.0064299483783543
-0.0044862511567771
-0.002576085506007
-0.0007096393965184
0.0011027590371668
0.0028524140361696
0.0045322082005441
0.0061348173767328
0.0076525434851646
0.0090791620314121
0.0104119312018156
0.0116518922150135
0.0128016043454408
0.0138624291867017
0.01483447663486
0.015719249844551
0.0165211427956819
0.0172451380640268
0.0178932417184114
0.0184642504900693
0.0189568996429443
0.0193715039640665
0.0197084620594978
0.0199664682149887
0.0201412159949541
0.0202238373458385
0.0201970003545284
0.0200256928801536
0.0196479987353086
0.0189766492694616
0.0179135520011186
0.0163715053349733
0.0142975347116589
0.0116912275552749
0.0086109228432178
0.0051670391112565
0.001506449887529
-0.0022082282230257
-0.0058189518749713
-0.0091877728700637
-0.0122061818838119
-0.0147995669394731
-0.0169293694198131
-0.0185905694961547
-0.0198016483336687
-0.0205922797322273
-0.0209961347281932
-0.0210498124361038
-0.0207926053553819
-0.0202638860791921
-0.019501470029354
-0.0185423288494348
-0.0174228027462959
-0.0161772761493921
-0.0148364249616861
-0.0134265264496207
-0.0119696017354726
-0.0104822507128119
-0.0089733600616455
-0.0074451491236686
-0.005898798815906
-0.004338489845395
-0.0027708751149475
-0.001203931402415
0.0003520557656884
0.0018834983929991
0.0033759488724172
0.0048179319128394
0.0062010376714169
0.0075170658528804
0.0087567763403058
0.0099112754687666
0.0109737422317266
0.011940874159336
0.0128152715042233
0.0136056337505579
0.014321987517178
0.0149716287851333
0.015559940598905
0.0160922054201364
0.0165737718343734
0.0170082412660121
0.0173942055553197
0.017724372446537
0.0179880056530237
0.0181742459535598
0.0182752292603254
0.0182862021028995
0.018201183527708
0.0180072747170925
0.0176768768578767
0.0171575788408517
0.0163692664355039
0.0152165815234184
0.0136136123910546
0.0115104839205741
0.0089102713391184
0.0058723492547869
0.0025054821744561
-0.0010471332352608
-0.0046273176558315
-0.0080808438360691
-0.0112731251865625
-0.014099396765232
-0.0164889357984066
-0.0184049233794212
-0.0198400262743234
-0.020809706300497
-0.0213465355336666
-0.0214940197765827
-0.0213010106235742
-0.0208201110363006
-0.0201065726578235
-0.0192142780870199
-0.0181909650564193
-0.017075402662158
-0.0158965345472097
-0.0146730616688728
-0.013413687236607
-0.0121201295405626
-0.0107915624976158
-0.0094258785247802
-0.0080191567540168
-0.0065689207985997
-0.0050792037509381
-0.0035623132716864
-0.0020373589359223
-0.0005264449864625
0.0009493329562246
0.0023714224807918
0.0037250013556331
0.0050011286512017
0.0061962897889316
0.0073085925541818
0.0083351759240031
0.0092729050666093
0.0101205445826053
0.010881382972002
0.0115653593093156
0.0121876802295446
0.0127628073096275
0.0132974600419402
0.0137835098430514
0.0141889154911041
0.0144510325044393
0.0144778648391366
0.0141590125858783
0.0133863557130098
0.0120787285268306
0.0102020232006907
0.0077807577326893
0.0048988494090735
0.0016887115780264
-0.0016857120208442
-0.0050473515875637
-0.008228238672018
-0.011091100051999
-0.0135401291772723
-0.0155210234224796
-0.0170152876526117
-0.018031558021903
-0.0185969471931457
-0.0187495071440935
-0.0185318440198898
-0.0179870538413524
-0.0171580053865909
-0.0160894878208637
-0.0148303704336285
-0.013432677835226
-0.011946327984333
-0.0104123055934906
-0.0088607370853424
-0.0073148841038346
-0.0057930964976549
-0.0043054902926087
-0.0028517544269561
-0.0014237677678465
-1.0860618203878404e-05
0.0013953358866274
0.0027991971001029
0.0042014853097498
0.0055986111983656
0.0069824079982936
0.008342195302248
0.0096673294901847
0.0109501834958791
0.0121873412281274
0.0133741535246372
0.0144975595176219
0.0155364964157342
0.0164682138711214
0.0172747261822223
0.0179470591247081
0.0184847582131624
0.0188932493329048
0.0191840007901191
0.0193741619586944
0.0194825604557991
0.0195260141044855
0.0195190384984016
0.0194754712283611
0.0194098725914955
0.0193391311913728
0.0192831475287675
0.0192613136023283
0.0192861948162317
0.0193585436791181
0.0194654092192649
0.0195818059146404
0.0196750964969396
0.0197078119963407
0.0196339543908834
0.0193897150456905
0.0188864432275295
0.0180137064307928
0.0166539102792739
0.0147037161514163
0.0120970755815505
0.0088254380971193
0.0049469843506813
0.0005799122154712
-0.0041143475100398
-0.0089499419555068
-0.0137362163513898
-0.0182982981204986
-0.022493727505207
-0.0262219775468111
-0.0294282920658588
-0.0320998877286911
-0.0342533029615879
-0.035918153822422
-0.0371237583458423
-0.0378937125205993
-0.0382480435073375
-0.0382073707878589
-0.0377978608012199
-0.037056341767311
-0.0360306426882743
-0.0347751826047897
-0.0333455428481102
-0.0317920781672
-0.0301535334438085
-0.0284538567066192
-0.026702718809247
-0.0248982720077037
-0.0230320859700441
-0.02109563536942
-0.0190851725637912
-0.0170020628720521
-0.0148494001477956
-0.0126308836042881
-0.0103558506816625
-0.0080445325002074
-0.0057273493148386
-0.0034398881252855
-0.0012170234695076
0.0009114674758166
0.0029231505468487
0.00480422610417
0.0065498100593686
0.0081630339846014
0.009653746150434
0.0110353417694568
0.0123196896165609
0.0135144647210836
0.0146246496587991
0.0156553573906421
0.0166117995977401
0.0174961909651756
0.0183058138936758
0.0190337896347045
0.0196721516549587
0.020215768367052
0.0206637866795063
0.0210190787911415
0.0212881714105606
0.0214802958071231
0.0216019079089164
0.0216452423483133
0.0215746518224477
0.021319231018424
0.0207782257348299
0.0198390372097492
0.0184004195034503
0.0163917765021324
0.0137866763398051
0.0106128901243209
0.006957241334021
0.0029600341804325
-0.0012024911120533
-0.0053422069177031
-0.0092825992032885
-0.0128771131858229
-0.0160196926444768
-0.0186467412859201
-0.0207319762557744
-0.0222775340080261
-0.0233051069080829
-0.0238488465547561
-0.0239504221826791
-0.0236573945730924
-0.0230227671563625
-0.0221026800572872
-0.0209536775946617
-0.0196301154792308
-0.0181798487901687
-0.0166397783905267
-0.0150352036580443
-0.0133833410218358
-0.0116956485435366
-0.0099766040220856
-0.0082239927724003
-0.0064332215115427
-0.0046013910323381
-0.0027287546545267
-0.0008209142833948
0.0011077541857957
0.0030340868979692
0.0049306126311421
0.0067706741392612
0.0085313003510236
0.0101946583017706
0.011749755591154
0.013192587532103
0.014524414204061
0.0157516151666641
0.0168857406824827
0.0179401859641075
0.0189251750707626
0.0198440961539745
0.0206934250891208
0.0214659050107002
0.0221534203737974
0.0227492321282625
0.0232509281486272
0.023660808801651
0.023982249200344
0.0242174118757247
0.0243680253624916
0.0244346596300601
0.0244134571403265
0.0242908168584108
0.0240351520478725
0.023589314892888
0.0228696316480636
0.0217743515968322
0.0202009491622447
0.0180681981146335
0.015336774289608
0.0120242740958929
0.0082115205004811
0.0040371636860072
-0.0003185363020747
-0.0046578254550695
-0.0087938122451305
-0.0125750880688428
-0.0158980563282966
-0.0187052600085735
-0.0209757834672927
-0.0227155871689319
-0.0239492077380418
-0.0247110668569803
-0.0250404402613639
-0.0249825771898031
-0.0245900824666023
-0.0239205863326787
-0.023033132776618
-0.0219856891781091
-0.0208329726010561
-0.0196220930665731
-0.0183864347636699
-0.0171410255134105
-0.0158822499215602
-0.0145939039066433
-0.0132567808032035
-0.0118553536012768
-0.0103795873001217
-0.0088243009522557
-0.0071888673119246
-0.0054796584881842
-0.0037139011546969
-0.001920212060213
-0.0001348694786429
0.0016035796143114
0.0032607000321149
0.0048125316388905
0.0062480885535478
0.0075664650648832
0.008771950379014
0.0098714288324117
0.0108745694160461
0.0117941554635763
0.0126449614763259
0.0134410299360752
0.0141926072537899
0.0149041283875703
0.0155733916908502
0.0161921959370374
0.0167478770017623
0.0172249693423509
0.0176053587347269
0.0178631264716386
0.0179538875818252
0.0178048945963382
0.0173143614083528
0.0163642223924398
0.014844175428152
0.0126809272915124
0.0098627554252743
0.0064504616893827
0.0025722775608301
-0.0015942177269607
-0.0058455411344766
-0.009975641965866
-0.0137990359216928
-0.0171693190932273
-0.0199871212244033
-0.0222003068774938
-0.0238005500286817
-0.0248150043189525
-0.0252937637269496
-0.0252992715686559
-0.0249010100960731
-0.0241716038435697
-0.0231809392571449
-0.0219900012016296
-0.0206478759646415
-0.0191936008632183
-0.0176601037383079
-0.0160759426653385
-0.0144636426120996
-0.0128366593271493
-0.0111979423090815
-0.0095411855727434
-0.0078550390899181
-0.0061291540041565
-0.0043582320213317
-0.0025425921194255
-0.0006875493563711
0.0011957427486777
0.0030889469198882
0.0049685621634125
0.0068110800348222
0.0085963048040866
0.0103060603141784
0.0119213424623012
0.013422792777419
0.0147947929799556
0.0160291455686092
0.0171256903558969
0.0180906988680362
0.0189350042492151
0.0196724217385053
0.0203172080218791
0.020880876109004
0.0213701985776424
0.0217868834733963
0.0221289675682783
0.0223930291831493
0.022575145587325
0.0226702913641929
0.0226723812520504
0.0225764494389295
0.0223819557577371
0.0220938920974731
0.0217180084437131
0.0212489180266857
0.0206547193229198
0.0198661107569932
0.0187767501920461
0.0172564275562763
0.0151751153171062
0.0124315563589334
0.0089785922318696
0.0048407791182398
0.0001190761104226
-0.0050204736180603
-0.0103687020018696
-0.0156988091766834
-0.0207922123372554
-0.025462569668889
-0.0295734144747257
-0.0330444574356079
-0.0358458682894706
-0.0379841588437557
-0.039486140012741
-0.0403868556022644
-0.0407230034470558
-0.040531225502491
-0.0398511849343776
-0.0387305580079555
-0.0372270978987216
-0.0354060605168342
-0.0333346836268901
-0.0310766957700252
-0.0286887120455503
-0.0262170061469078
-0.023694472387433
-0.02114063128829
-0.0185650065541267
-0.0159710142761468
-0.0133590064942836
-0.010728595778346
-0.0080808224156498
-0.0054201055318117
-0.0027545662596821
-9.537767618894576e-05
0.0025421166792511
0.0051364637911319
0.0076612019911408
0.0100889839231967
0.0123949870467185
0.0145579958334565
0.0165618099272251
0.0183984413743019
0.0200689509510993
0.0215795636177063
0.0229378975927829
0.024152809754014
0.0252343602478504
0.0261917673051357
0.0270335618406534
0.0277700647711753
0.0284111369401216
0.0289591215550899
0.0294066108763217
0.0297415219247341
0.0299508869647979
0.0300171878188848
0.0299076419323682
0.0295610390603542
0.0288810990750789
0.027743736281991
0.0260181780904531
0.0235960204154253
0.0204193778336048
0.0165003333240747
0.0119286803528666
0.0068674962967634
0.001534626353532
-0.0038271688390523
-0.0089817456901073
-0.0137254679575562
-0.0179038941860198
-0.0214174762368202
-0.0242180749773979
-0.0263004004955291
-0.027692200616002
-0.0284443944692611
-0.0286219362169504
-0.0282972920686006
-0.0275460444390773
-0.0264437310397624
-0.0250638537108898
-0.0234759543091058
-0.0217442661523818
-0.0199263300746679
-0.0180682558566331
-0.0161984134465456
-0.0143252545967698
-0.0124416481703519
-0.0105329835787415
-0.008584888651967
-0.0065890490077435
-0.0045459582470357
-0.0024634283035993
-0.0003542616032063
0.0017641121521592
0.003870406653732
0.0059423418715596
0.0079600270837545
0.0099063059315085
0.0117631200700998
0.0135097447782754
0.0151265859603881
0.0165994241833686
0.0179197955876588
0.0190843529999256
0.0200962871313095
0.020967049524188
0.0217127818614244
0.0223408285528421
0.0228304713964462
0.023118270561099
0.0230952072888612
0.0226193107664585
0.0215428322553634
0.0197445154190063
0.0171573981642723
0.0137893874198198
0.0097334533929824
0.0051606982015073
0.0002968986518681
-0.0046079778112471
-0.0093104373663663
-0.0135999415069818
-0.0173159167170524
-0.0203541498631238
-0.0226645059883594
-0.0242419280111789
-0.0251144282519817
-0.0253311358392238
-0.0249532107263803
-0.0240512397140264
-0.0227068103849887
-0.0210115183144807
-0.0190609116107225
-0.0169455576688051
-0.014743223786354
-0.0125142112374305
-0.0103000756353139
-0.0081260176375508
-0.006003696937114
-0.0039311875589191
-0.0018936628475785
0.0001307879574596
0.0021629764232784
0.0042170886881649
0.0062975217588245
0.0083950534462928
0.0104845259338617
0.0125287566334009
0.0144870746880769
0.0163228847086429
0.0180073417723178
0.0195208825170993
0.0208554752171039
0.0220150593668222
0.0230115782469511
0.0238596834242343
0.0245727878063917
0.0251612029969692
0.0256329849362373
0.0259971506893634
0.0262656975537538
0.0264496318995952
0.0265521798282861
0.0265674889087677
0.0264848917722702
0.0262925624847412
0.0259798169136047
0.0255401469767093
0.02497373893857
0.0242878571152687
0.0234951693564653
0.0226111002266407
0.021649207919836
0.0206109527498483
0.0194711815565824
0.0181662924587726
0.016590965911746
0.0146067254245281
0.0120632387697696
0.0088300183415412
0.0048302058130502
6.597861647605896e-05
-0.0053710676729679
-0.0113077536225318
-0.0175128392875194
-0.0237279161810874
-0.0296986643224954
-0.0352024473249912
-0.0400674268603324
-0.0441790744662284
-0.047476377338171
-0.0499428734183311
-0.0515951067209243
-0.0524735823273658
-0.0526385121047496
-0.0521639734506607
-0.0511285811662673
-0.0496099814772605
-0.0476856157183647
-0.0454331636428833
-0.0429272800683975
-0.0402361899614334
-0.0374195091426372
-0.0345257446169853
-0.0315910205245018
-0.0286399032920599
-0.0256865732371807
-0.0227364860475063
-0.0197898335754871
-0.0168465301394462
-0.0139105226844549
-0.0109921563416719
-0.0081080673262476
-0.0052781216800212
-0.0025225051213055
0.0001394713763147
0.0026905287522822
0.0051156147383153
0.0074012968689203
0.00953711848706
0.0115182297304272
0.0133465025573968
0.0150299072265625
0.0165816843509674
0.0180183518677949
0.0193534754216671
0.0205904636532068
0.0217223204672336
0.0227371472865343
0.0236223358660936
0.0243685133755207
0.0249746516346931
0.0254485178738832
0.0258017592132091
0.0260449256747961
0.026183171197772
0.0262088663876056
0.0260900296270847
0.0257600098848342
0.0251168012619018
0.024036232382059
0.0223952420055866
0.0200977008789777
0.0170983001589775
0.0134211387485265
0.0091673573479056
0.0045077502727508
-0.0003382344730198
-0.0051322835497558
-0.0096494629979133
-0.0137045606970787
-0.0171669870615005
-0.0199646912515163
-0.0220786314457654
-0.0235296934843063
-0.0243627820163965
-0.024634476751089
-0.0244082473218441
-0.0237546470016241
-0.022750835865736
-0.0214775502681732
-0.0200136881321668
-0.0184290315955877
-0.0167783629149198
-0.0150991044938564
-0.0134105198085308
-0.0117140486836433
-0.0099965613335371
-0.0082364380359649
-0.0064117228612303
-0.0045087030157446
-0.0025268816389143
-0.0004785978235304
0.0016133803874254
0.0037176643963903
0.0057971710339188
0.0078141707926988
0.0097352173179388
0.011533822864294
0.0131913078948855
0.0146975237876176
0.0160508025437593
0.0172562487423419
0.0183241218328475
0.0192683115601539
0.0201036781072616
0.0208439398556947
0.0215016528964042
0.0220877826213836
0.0226081889122724
0.0230596885085105
0.0234296284615993
0.0236947461962699
0.0238131582736969
0.0237145274877548
0.023298779502511
0.0224463809281587
0.0210370849817991
0.0189744904637336
0.016211349517107
0.0127666946500539
0.008729925379157
0.0042525567114353
-0.0004699025303125
-0.005222225561738
-0.0097956983372569
-0.0140118692070245
-0.0177385434508323
-0.0208940096199512
-0.0234411545097827
-0.0253772865980863
-0.0267225615680217
-0.0275081768631935
-0.0277691651135683
-0.0275442656129598
-0.0268775895237922
-0.0258184354752302
-0.0244219023734331
-0.0227493364363908
-0.0208643022924661
-0.0188266523182392
-0.016690345481038
-0.0145036885514855
-0.0123075190931558
-0.0101332198828458
-0.008002744987607
-0.0059277638792991
-0.0039092805236577
-0.0019405055791139
-1.082010567188263e-05
0.0018905263859778
0.0037712091580033
0.0056336261332035
0.0074732177890837
0.0092780403792858
0.011030038818717
0.0127067565917968
0.0142829939723014
0.0157331805676221
0.0170347299426794
0.0181715413928031
0.0191371813416481
0.0199362765997648
0.0205833204090595
0.0210994258522987
0.0215069986879825
0.0218250229954719
0.0220667589455842
0.0222385711967945
0.0223408509045839
0.0223712027072906
0.0223275534808635
0.0222086831927299
0.0220094844698905
0.0217121839523315
0.0212787054479122
0.0206456556916236
0.01972196996212
0.0183947347104549
0.016548179090023
0.0140920123085379
0.0109885698184371
0.0072689400985836
0.0030342061072587
-0.0015571964904665
-0.0063124033622443
-0.0110305789858102
-0.0155261484906077
-0.0196452084928751
-0.0232749860733747
-0.0263472944498062
-0.0288349874317646
-0.0307420119643211
-0.0320920571684837
-0.0329201817512512
-0.0332672148942947
-0.0331755690276622
-0.0326873436570167
-0.0318453758955001
-0.0306952409446239
-0.0292857810854911
-0.0276668854057788
-0.0258847326040267
-0.0239776391535997
-0.0219763163477182
-0.0199083797633647
-0.0178014226257801
-0.0156811811029911
-0.0135687608271837
-0.0114797204732894
-0.0094240773469209
-0.0074076876044273
-0.0054338322952389
-0.0035028071142733
-0.0016115693142637
0.0002429818268865
0.0020593630615621
0.0038308545481413
0.0055478624999523
0.0072001498192548
0.0087787825614213
0.0102758444845676
0.0116813136264681
0.0129819503054022
0.0141646601259708
0.0152203533798456
0.016144884750247
0.0169386826455593
0.0176072474569082
0.018161367624998
0.0186145361512899
0.0189775228500366
0.019251899793744
0.0194236617535352
0.0194574631750583
0.0192925054579973
0.018843226134777
0.0180085878819227
0.0166915506124496
0.0148247722536325
0.012391791678965
0.0094358641654253
0.0060577243566513
0.0024061459116637
-0.0013379662996158
-0.0049840584397315
-0.0083565050736069
-0.0113140558823943
-0.0137593448162078
-0.0156387947499752
-0.0169383641332387
-0.0176783613860607
-0.0179057009518146
-0.0176851321011781
-0.0170927513390779
-0.0162109937518835
-0.0151229640468955
-0.0139064323157072
-0.0126291802152991
-0.0113442409783601
-0.0100846569985151
-0.0088622458279132
-0.0076708458364009
-0.0064908396452665
-0.005294821690768
-0.0040536494925618
-0.0027426369488239
-0.0013482538051903
0.0001284824684262
0.0016719964332878
0.0032526722643524
0.0048311296850442
0.0063667092472314
0.0078245969489216
0.0091791506856679
0.0104139801114797
0.0115202711895108
0.0124960159882903
0.0133459717035293
0.0140810804441571
0.0147171644493937
0.0152711626142263
0.015756469219923
0.0161818303167819
0.0165525246411561
0.0168702229857444
0.0171325244009494
0.0173342581838369
0.0174696240574121
0.0175326876342296
0.0175138656049966
0.0173918083310127
0.0171242337673902
0.0166432633996009
0.0158581919968128
0.0146666225045919
0.0129746254533529
0.0107214068993926
0.007898879237473
0.0045596733689308
0.0008119419217109
-0.0031965922098606
-0.0072983573190867
-0.0113244224339723
-0.0151217821985483
-0.0185672640800476
-0.021574318408966
-0.0240923725068569
-0.0261004269123077
-0.027598563581705
-0.0286010615527629
-0.029131582006812
-0.0292191803455352
-0.0288954004645347
-0.0281944219022989
-0.02715565264225
-0.0258248262107372
-0.0242529716342687
-0.0224950462579727
-0.020606517791748
-0.0186374690383672
-0.0166276413947343
-0.014605026692152
-0.0125877363607287
-0.0105868801474571
-0.0086082704365253
-0.006651269737631
-0.0047070430591702
-0.0027624042704701
-0.0008080583065748
0.0011564320884644
0.0031235441565513
0.0050808819942176
0.0070112319663167
0.0088901408016681
0.0106874536722898
0.0123742707073688
0.0139294592663645
0.0153413210064172
0.016606343910098
0.0177282039076089
0.0187162458896636
0.0195824634283781
0.0203391779214143
0.0209983307868242
0.021570336073637
0.0220637135207653
0.0224865078926086
0.0228449217975139
0.0231382772326469
0.0233549587428569
0.023469204083085
0.0234354753047227
0.0231830086559057
0.0226167570799589
0.0216281749308109
0.0201145764440298
0.0180026441812515
0.0152699034661054
0.0119566740468144
0.0081652114167809
0.0040480308234691
-0.0002111080102622
-0.0044194404035806
-0.0083978679031133
-0.0120015554130077
-0.0151322344318032
-0.0177377667278051
-0.0198030173778533
-0.0213386081159114
-0.0223715603351593
-0.0229393504559993
-0.0230859965085983
-0.0228598490357399
-0.0223134458065032
-0.0215029772371053
-0.0204854682087898
-0.0193139165639877
-0.0180315412580966
-0.0166680719703435
-0.0152404261752963
-0.013757986947894
-0.0122287115082144
-0.0106611819937825
-0.0090636108070611
-0.0074419663287699
-0.0057995831593871
-0.00414171628654
-0.0024803280830383
-0.0008314633741974
0.0007910360582172
0.0023767822422087
0.0039159823209047
0.0053982720710337
0.0068135228939354
0.0081535205245018
0.0094146225601434
0.0105973500758409
0.0117006916552782
0.0127178374677896
0.013638881035149
0.0144576989114284
0.0151760233566164
0.0158007647842168
0.0163393747061491
0.0167975276708602
0.0171750225126743
0.0174577534198761
0.0176100526005029
0.0175705980509519
0.0172536261379718
0.0165593829005956
0.0153935328125953
0.0136875249445438
0.0114144990220665
0.0086008496582508
0.00533207366243
0.0017479087691754
-0.001975828083232
-0.0056525897234678
-0.0091085080057382
-0.0121994568035006
-0.0148205384612083
-0.0169085226953029
-0.0184396225959062
-0.0194232258945703
-0.0198923666030168
-0.0198957584798336
-0.0194946154952049
-0.0187618844211101
-0.0177791193127632
-0.0166290812194347
-0.0153862806037068
-0.0141097176820039
-0.0128402151167392
-0.0115993190556764
-0.0103880884125828
-0.0091903805732727
-0.0079818600788712
-0.0067384866997599
-0.0054408935829997
-0.0040765306912362
-0.0026407507248222
-0.0011373534798622
0.0004211231134831
0.0020139657426625
0.0036142114549875
0.0051920833066105
0.0067177368327975
0.0081623010337352
0.009500004351139
0.0107116494327783
0.0117868361994624
0.0127245057374238
0.0135317109525203
0.0142206540331244
0.0148072121664881
0.015310158021748
0.0157464873045682
0.0161267127841711
0.0164555422961711
0.0167342107743024
0.0169615279883146
0.0171345546841621
0.0172457695007324
0.0172733422368764
0.017168216407299
0.0168469212949275
0.0161974467337131
0.0150976618751883
0.0134398555383086
0.0111559983342885
0.0082370620220899
0.0047394447028636
0.0007797577418386
-0.0034784832969307
-0.0078462455421686
-0.0121345426887273
-0.0161763969808816
-0.019840708002448
-0.0230379067361354
-0.025718580931425
-0.0278654620051383
-0.0294806137681007
-0.0305739939212799
-0.0311588309705257
-0.0312524661421775
-0.0308776833117008
-0.0300638899207115
-0.0288505591452121
-0.0272915977984666
-0.0254552736878395
-0.023416306823492
-0.0212456583976745
-0.0190049223601818
-0.016743030399084
-0.0144930854439735
-0.0122720804065465
-0.010083626024425
-0.0079222209751605
-0.0057782121002674
-0.0036417078226804
-0.0015050480142235
0.0006340127438306
0.0027687819674611
0.0048841605894267
0.0069606560282409
0.0089775035157799
0.0109158931300044
0.0127621032297611
0.014506435021758
0.0161401554942131
0.0176554284989833
0.0190471056848764
0.0203129053115844
0.0214522033929824
0.0224648378789424
0.0233505722135305
0.0241107977926731
0.0247507896274328
0.0252785813063383
0.0257017090916633
0.026024043560028
0.0262423530220985
0.0263420268893241
0.0262893456965684
0.0260207764804363
0.0254385843873024
0.0244218260049819
0.0228509325534105
0.0206356663256883
0.017738688737154
0.0141909727826714
0.0100948279723525
0.0056132967583835
0.0009490065276622
-0.0036835842765867
-0.0080864448100328
-0.0120985992252826
-0.0156055483967065
-0.0185407027602195
-0.0208815205842256
-0.0226404145359992
-0.0238528214395046
-0.024564865976572
-0.0248223897069692
-0.024666678160429
-0.0241392236202955
-0.0232883337885141
-0.0221698340028524
-0.0208412948995828
-0.0193549375981092
-0.0177547056227922
-0.0160766784101724
-0.0143490824848413
-0.0125916702672839
-0.0108146704733371
-0.0090197790414094
-0.0072067873552441
-0.0053809667006134
-0.0035543078556656
-0.0017416970804333
4.35980036854744e-05
0.0017922804690897
0.0034978329204022
0.0051532024517655
0.0067488988861441
0.0082747051492333
0.0097226770594716
0.0110874660313129
0.0123653216287493
0.0135550014674663
0.0146587528288364
0.0156798381358385
0.0166178364306688
0.0174671243876218
0.0182195100933313
0.0188663769513368
0.0193984918296337
0.0198026522994041
0.020053157582879
0.0201018415391445
0.0198730491101741
0.019266989082098
0.0181749891489744
0.0165044572204351
0.0142036648467183
0.0112808160483837
0.0078140124678611
0.0039450381882488
-0.0001431014388799
-0.0042540193535387
-0.0082011315971612
-0.0118244495242834
-0.0150017151609063
-0.0176522824913263
-0.0197339728474617
-0.0212368369102478
-0.0221761539578437
-0.0225857403129339
-0.0225144680589437
-0.0220249481499195
-0.0211894381791353
-0.020081927999854
-0.0187703631818294
-0.017314214259386
-0.0157665107399225
-0.0141735132783651
-0.0125711103901267
-0.0109820840880274
-0.0094153089448809
-0.0078672431409358
-0.0063261799514293
-0.0047775297425687
-0.0032083489932119
-0.0016102322842925
1.925043761730194e-05
0.0016757698031142
0.0033482890576124
0.0050211157649755
0.006676516495645
0.0082937702536582
0.0098470896482467
0.0113080730661749
0.012650198303163
0.0138521287590265
0.0149005986750125
0.0157917719334363
0.016530942171812
0.0171312931925058
0.0176109280437231
0.0179897435009479
0.0182871334254741
0.018518928438425
0.0186951290816068
0.0188203584402799
0.018894974142313
0.0189132448285818
0.0188568532466888
0.0186854377388954
0.0183281823992729
0.01768134906888
0.0166166871786117
0.0150027442723512
0.0127334957942366
0.009754461236298
0.0060808584094047
0.0018048789352178
-0.0029120948165655
-0.0078610964119434
-0.0128140859305858
-0.0175530798733234
-0.0218944549560546
-0.0257046222686767
-0.0289050117135047
-0.0314654968678951
-0.0333894155919551
-0.0346972346305847
-0.0354158133268356
-0.0355752855539321
-0.0352110937237739
-0.0343679934740066
-0.0331031121313571
-0.0314859263598918
-0.0295932292938232
-0.0274994149804115
-0.0252677556127309
-0.0229472760111093
-0.0205740686506032
-0.0181748997420072
-0.0157713796943426
-0.0133812632411718
-0.0110158994793891
-0.0086775170639157
-0.0063607194460928
-0.0040581300854682
-0.0017661806195974
0.0005121221765875
0.002767973113805
