bvp
-0.0019030924886465
-0.0002236906439065
0.0013356292620301
0.002765703946352
0.0040595978498458
0.0052140736952424
0.0062283584848046
0.0071017695590853
0.0078339977189898
0.0084285214543342
0.0088938334956765
0.0092393495142459
0.0094664925709366
0.0095551842823624
0.0094510270282626
0.0090633081272244
0.0082783447578549
0.0069839619100093
0.0050976881757378
0.0025899270549416
-0.0005061868578195
-0.004099597223103
-0.0080544929951429
-0.0122066009789705
-0.0163810662925243
-0.0204100683331489
-0.0241471156477928
-0.02747443318367
-0.0303029958158731
-0.0325700044631958
-0.0342371687293052
-0.0352897047996521
-0.0357357114553451
-0.0356044843792915
-0.0349431075155735
-0.03381272777915
-0.032285526394844
-0.0304417237639427
-0.02836374938488
-0.0261273551732301
-0.0237933602184057
-0.0214034169912338
-0.0189810805022716
-0.0165369734168052
-0.0140742100775241
-0.0115910992026329
-0.0090834656730294
-0.0065491590648889
-0.0039916131645441
-0.0014200489968061
0.0011532772332429
0.0037170499563217
0.0062613608315587
0.0087734712287783
0.0112349512055516
0.0136243607848882
0.0159216485917568
0.0181095898151397
0.0201743450015783
0.0221070256084203
0.0239044725894927
0.0255688223987817
0.0271045546978712
0.0285138096660375
0.0297949574887752
0.0309425685554742
0.0319415368139743
0.0327560454607009
0.033319853246212
0.0335337705910205
0.0332754924893379
0.0324214398860931
0.0308737363666296
0.0285837203264236
0.0255661979317665
0.0219038408249616
0.0177410505712032
0.0132658779621124
0.0086846044287085
0.0041974280029535
-1.922249794006348e-05
-0.0038221646100282
-0.0071028992533683
-0.0097830668091773
-0.0118111446499824
-0.0131659470498561
-0.0138612985610961
-0.0139441713690757
-0.0134862419217824
-0.0125741232186555
-0.0113030169159173
-0.0097706113010644
-0.0080673601478338
-0.0062677860260009
-0.00442586094141
-0.002573100849986
-0.0007202234119176
0.0011375527828931
0.0030137281864881
0.0049236398190259
0.0068777445703744
0.0088759046047925
0.0109048811718821
0.0129401357844471
0.0149502363055944
0.0169014073908329
0.0187615640461444
0.0205043535679578
0.0221127141267061
0.0235806964337825
0.0249121617525815
0.0261163190007209
0.0272017810493707
0.0281723570078611
0.0290278159081935
0.0297677740454673
0.030393186956644
0.0309044737368822
0.0313004814088344
0.0315789058804512
0.0317327007651329
0.0317405648529529
0.0315563641488552
0.031101781874895
0.0302659496665
0.0289168711751699
0.0269244648516178
0.0241868682205677
0.0206510201096534
0.0163255892693996
0.0112856607884168
0.005666961427778
-0.0003495444543659
-0.0065576611086726
-0.0127451037988066
-0.0187114644795656
-0.0242836531251668
-0.0293229445815086
-0.0337237417697906
-0.0374100171029567
-0.0403326749801635
-0.0424679517745971
-0.0438159182667732
-0.0443976931273937
-0.0442528985440731
-0.0434386730194091
-0.0420274324715137
-0.0401022993028163
-0.0377525761723518
-0.0350701883435249
-0.0321456119418144
-0.0290625691413879
-0.0258922651410102
-0.0226883515715599
-0.0194845106452703
-0.0162967685610055
-0.0131300967186689
-0.0099848136305809
-0.0068596135824918
-0.0037538884207606
-0.0006719566881656
0.0023737945593893
0.0053639486432075
0.0082750618457794
0.0110810482874512
0.0137544656172394
0.0162699818611145
0.018606998026371
0.0207501091063022
0.0226899869740009
0.02442392334342
0.0259547047317028
0.0272898972034454
0.0284401178359985
0.0294144544750452
0.0302185490727424
0.0308586154133081
0.0313449427485466
0.0316900499165058
0.0319043546915054
0.0319910794496536
0.0319376960396766
0.0317034162580966
0.031208237633109
0.0303326919674873
0.0289326850324869
0.0268643125891685
0.0240116715431213
0.0203124359250068
0.0157745294272899
0.0104788485914468
0.0045699905604124
-0.0017600450664758
-0.008293061517179
-0.0148081732913851
-0.0211011953651905
-0.0269969254732131
-0.0323554500937461
-0.0370708033442497
-0.0410645604133605
-0.044281180948019
-0.0466854088008403
-0.0482603684067726
-0.0490083321928978
-0.0489534437656402
-0.0481433607637882
-0.046649869531393
-0.0445681288838386
-0.0420111045241355
-0.0390983037650585
-0.0359417721629142
-0.032634250819683
-0.0292447824031114
-0.0258210189640522
-0.0223933104425668
-0.0189784225076437
-0.0155832208693027
-0.0122095914557576
-0.0088598085567355
-0.0055395867675542
-0.0022584786638617
0.0009712816681712
0.0041355988942086
0.0072170561179518
0.0101940464228391
0.0130436224862933
0.0157455615699291
0.0182838533073663
0.0206444971263408
0.0228130463510751
0.0247769616544246
0.0265310015529394
0.0280784405767917
0.0294272545725107
0.0305871218442916
0.0315678864717483
0.0323766805231571
0.0330171510577201
0.0334927476942539
0.0338094271719455
0.0339749418199062
0.0339955650269985
0.0338742583990097
0.033612485975027
0.0332107841968536
0.0326644927263259
0.0319565087556839
0.031047485768795
0.0298662614077329
0.0283093713223934
0.0262542404234409
0.0235824026167392
0.0202062670141458
0.0160907879471778
0.0112634543329477
0.0058132633566856
-0.0001195911318063
-0.0063606947660446
-0.0127186914905905
-0.0189989730715751
-0.025016201660037
-0.0306066609919071
-0.0356348007917404
-0.0399925969541072
-0.0435987561941146
-0.046400099992752
-0.0483714006841182
-0.0495143383741378
-0.0498571097850799
-0.0494535453617572
-0.0483813807368278
-0.0467383340001106
-0.0446346849203109
-0.0421826243400573
-0.039484042674303
-0.0366212427616119
-0.033654261380434
-0.0306242834776639
-0.0275591518729925
-0.0244763288646936
-0.0213841460645198
-0.0182854756712913
-0.0151833575218915
-0.0120852291584014
-0.0090040015056729
-0.0059569524601101
-0.0029646817129105
-4.967418499290943e-05
0.0027667654212564
0.0054677352309226
0.0080425944179296
0.010486364364624
0.0127950478345155
0.0149600803852081
0.016968511044979
0.0188083369284868
0.020472940057516
0.0219625644385814
0.0232836678624153
0.0244465433061122
0.0254624746739864
0.0263407099992036
0.0270853545516729
0.0276941210031509
0.0281577855348587
0.0284559745341539
0.0285490844398736
0.0283713415265083
0.0278296526521444
0.0268129538744688
0.0252131819725036
0.022950304672122
0.0199924372136592
0.0163665823638439
0.0121595486998558
0.0075106173753738
0.0025963308289647
-0.0023908116854727
-0.0072627011686563
-0.0118489675223827
-0.0160032026469707
-0.019605103880167
-0.0225624777376651
-0.0248143896460533
-0.026334561407566
-0.0271344892680645
-0.027263056486845
-0.0267996229231357
-0.0258427318185567
-0.0244977883994579
-0.0228657405823469
-0.0210350528359413
-0.0190780013799667
-0.0170488934963941
-0.0149826481938362
-0.0128960162401199
-0.0107922768220305
-0.0086670201271772
-0.0065127583220601
-0.0043221856467425
-0.0020922985859215
0.0001705032773315
0.0024487213231623
0.0047174263745546
0.0069496217183768
0.0091195860877633
0.0112040489912033
0.0131828524172306
0.0150395892560482
0.0167615041136741
0.0183389671146869
0.0197656452655792
0.0210392046719789
0.0221613831818103
0.0231373757123947
0.0239750295877456
0.0246822778135538
0.0252630375325679
0.0257164426147937
0.0260415729135274
0.0262421909719705
0.0263263825327157
0.0263023003935813
0.0261708982288837
0.0259141791611909
0.0254821702837944
0.0247857458889484
0.023701898753643
0.0220935232937335
0.0198378264904022
0.0168543942272663
0.0131251476705074
0.0086982967332005
0.0036764061078429
-0.0018004477024078
-0.0075684054754674
-0.0134517177939414
-0.0192760415375232
-0.0248801000416278
-0.0301202945411205
-0.0348705351352691
-0.0390221960842609
-0.0424850769340992
-0.0451895184814929
-0.0470893047749996
-0.048164028674364
-0.048419713973999
-0.047887522727251
-0.0466237254440784
-0.044711772352457
-0.0422593504190444
-0.0393872447311878
-0.0362160541117191
-0.032855000346899
-0.0293936133384704
-0.0258981138467788
-0.0224118027836084
-0.0189569499343633
-0.0155382333323359
-0.0121490536257624
-0.0087789604440331
-0.0054185828194022
-0.0020621186122298
0.0012893872335553
0.0046234652400016
0.0079150106757879
0.0111311078071594
0.0142367295920848
0.017198285087943
0.0199881140142679
0.0225886106491088
0.0249914340674877
0.0271932072937488
0.0291926637291908
0.0309906471520662
0.0325907282531261
0.0339981615543365
0.0352181270718574
0.0362567231059074
0.0371235497295856
0.0378299281001091
0.0383834913372993
0.0387864671647548
0.0390378460288047
0.039133220911026
0.0390590950846672
0.0387825742363929
0.0382398888468742
0.0373304560780525
0.0359238684177398
0.0338817834854126
0.0310880355536937
0.0274751093238592
0.0230386052280664
0.0178408417850732
0.0120061747729778
0.005706119351089
-0.0008625187911093
-0.0074972873553633
-0.0140051078051328
-0.0202142111957073
-0.0259798876941204
-0.0311834886670112
-0.0357285253703594
-0.0395369678735733
-0.0425493158400058
-0.0447285175323486
-0.0460629239678382
-0.0465656518936157
-0.0462728254497051
-0.0452433116734027
-0.043557621538639
-0.0413143001496791
-0.0386249981820583
-0.0356063470244407
-0.0323687344789505
-0.0290067978203296
-0.0255932584404945
-0.0221760366111993
-0.0187802016735076
-0.0154139716178178
-0.0120751177892088
-0.0087565453723073
-0.0054520051926374
-0.0021608686074614
0.0011108787730336
0.0043532541021704
0.0075541641563177
0.0106975408270955
0.0137600228190422
0.0167110599577426
0.0195169039070606
0.0221456326544284
0.0245708916336298
0.0267721787095069
0.0287342183291912
0.030450141057372
0.0319253802299499
0.0331772565841674
0.0342313945293426
0.0351154319941997
0.0358506068587303
0.0364477336406707
0.03691016882658
0.0372359491884708
0.0374154895544052
0.0374336242675781
0.0372791215777397
0.036951720714569
0.0364609658718109
0.0358184613287448
0.0350235998630523
0.0340439714491367
0.0327989794313907
0.031158348545432
0.0289609562605619
0.0260482635349035
0.0223002303391695
0.0176640152931213
0.0121695445850491
0.0059266556054353
-0.0008929651230573
-0.0080780666321516
-0.0153994522988796
-0.0226302966475486
-0.0295623820275068
-0.0360168665647506
-0.0418492555618286
-0.0469480566680431
-0.0512304157018661
-0.0546385943889617
-0.0571374706923961
-0.0587134882807731
-0.0593775399029254
-0.0591696128249168
-0.0581582114100456
-0.0564344301819801
-0.0541062504053115
-0.0512919202446937
-0.0481099560856819
-0.0446689426898956
-0.0410598143935203
-0.0373515337705612
-0.0335903242230415
-0.0298019330948591
-0.0259977839887142
-0.0221845358610153
-0.0183714628219604
-0.0145702958106994
-0.010791428387165
-0.0070432610809803
-0.0033343061804771
0.0003241570666432
0.0039154449477791
0.0074167726561427
0.0108011728152632
0.0140398703515529
0.0171048790216445
0.0199740137904882
0.0226356834173202
0.0250880513340234
0.0273342840373516
0.0293795485049486
0.0312299691140651
0.0328917801380157
0.0343721136450767
0.0356797948479652
0.0368220582604408
0.0378000065684318
0.0386078432202339
0.0392357036471366
0.039673876017332
0.0399173200130462
0.0399688780307769
0.0398391745984554
0.0395426377654075
0.0390909276902675
0.0384840033948421
0.0376965776085853
0.0366620309650898
0.0352641567587852
0.0333458520472049
0.0307349283248186
0.0272822044789791
0.0229004099965095
0.0175892431288957
0.0114406030625104
0.0046266047284007
-0.0026236921548843
-0.0100524127483367
-0.017401099205017
-0.0244340673089027
-0.0309536475688219
-0.036808680742979
-0.0418951585888862
-0.0461471900343894
-0.0495252795517444
-0.0520100034773349
-0.0536023452877998
-0.054326556622982
-0.0542310178279876
-0.0533861108124256
-0.0518796406686306
-0.0498100593686103
-0.0472778230905532
-0.0443777740001678
-0.0411961749196052
-0.037810068577528
-0.0342841409146785
-0.0306671187281608
-0.0269927028566598
-0.0232830177992582
-0.0195513181388378
-0.015805983915925
-0.0120553029701113
-0.0083101317286491
-0.0045842705294489
-0.0008939141407608
0.002742619253695
0.0063039502128958
0.0097649693489074
0.0130986180156469
0.0162784233689308
0.0192798245698213
0.0220812335610389
0.0246654897928237
0.0270217582583427
0.0291473679244518
0.0310484394431114
0.0327387861907482
0.0342357046902179
0.0355537086725235
0.0367003306746482
0.0376760959625244
0.0384782217442989
0.0391045995056629
0.039554938673973
0.0398301295936107
0.0399311892688274
0.0398586764931678
0.0396134965121746
0.0391975566744804
0.038614559918642
0.0378724858164787
0.0369844697415828
0.0359648391604423
0.0348207391798496
0.0335376933217048
0.0320589505136013
0.0302701126784086
0.0280046071857213
0.0250728260725736
0.0213057473301887
0.0165999066084623
0.010949183255434
0.0044547654688358
-0.0026864875108003
-0.0102112824097275
-0.0178273655474185
-0.0252477899193763
-0.0322190821170806
-0.0385427251458168
-0.0440835356712341
-0.0487626828253269
-0.0525438450276851
-0.0554218962788581
-0.0574152246117591
-0.0585603490471839
-0.0589096844196319
-0.0585302077233791
-0.0574994646012783
-0.0559000223875045
-0.0538150444626808
-0.0513254925608634
-0.0485083684325218
-0.0454347468912601
-0.0421662293374538
-0.0387504659593105
-0.0352193713188171
-0.0315919332206249
-0.0278794653713703
-0.0240920465439558
-0.0202447865158319
-0.0163600854575634
-0.0124648055061697
-0.0085857827216386
-0.0047482000663876
-0.0009777378290891
0.0026986650191247
0.0062561621889472
0.009675120934844
0.0129404691979289
0.0160382911562919
0.0189534164965152
0.0216703135520219
0.0241756811738014
0.0264601968228817
0.0285184383392334
0.0303488336503505
0.0319548025727272
0.0333451256155967
0.0345325767993927
0.03553207218647
0.0363597720861434
0.0370321348309516
0.0375638417899608
0.0379657000303268
0.0382426865398883
0.0383922718465328
0.0384054966270923
0.0382715463638305
0.0379830040037632
0.0375379882752895
0.0369370244443416
0.0361728481948375
0.0352117531001567
0.0339742936193943
0.0323294438421726
0.0301081016659736
0.02713393419981
0.0232650786638259
0.0184338428080081
0.0126715432852506
0.0061139166355133
-0.0010130386799573
-0.0084247626364231
-0.0158178210258483
-0.0229052416980266
-0.0294429697096347
-0.0352465882897377
-0.04019545763731
-0.0442261062562465
-0.0473216213285923
-0.0495005995035171
-0.0508068241178989
-0.0513024292886257
-0.0510646030306816
-0.0501812100410461
-0.0487442053854465
-0.046845369040966
-0.044574961066246
-0.0420178472995758
-0.0392471589148044
-0.0363201387226581
-0.0332764834165573
-0.0301393922418355
-0.0269197970628738
-0.0236211996525526
-0.0202440731227397
-0.0167903993278741
-0.0132672516629099
-0.0096886372193694
-0.0060764988884329
-0.0024617277085781
0.0011163465678691
0.004614190198481
0.0079909684136509
0.0112145282328128
0.0142630822956562
0.0171226188540458
0.0197833776473999
0.0222382098436355
0.024482998996973
0.0265167355537414
0.0283402539789676
0.0299562085419893
0.0313710868358612
0.0325965359807014
0.0336482338607311
0.0345424637198448
0.0352911278605461
0.0358977504074573
0.0363589227199554
0.0366704650223255
0.0368317775428295
0.0368466414511203
0.0367217510938644
0.0364624224603176
0.0360684879124164
0.0355337187647819
0.0348435752093791
0.0339641347527504
0.0328250415623188
0.031307965517044
0.029251005500555
0.0264722127467393
0.0228082500398159
0.0181580539792776
0.0125185120850801
0.0060003958642482
-0.0011804243549704
-0.0087307477369904
-0.0163184180855751
-0.0236150212585926
-0.030333949252963
-0.0362565591931343
-0.0412436462938785
-0.045231457799673
-0.0482175983488559
-0.050244852900505
-0.0513860620558261
-0.0517305918037891
-0.0513741970062255
-0.0504121929407119
-0.0489340014755725
-0.0470196716487407
-0.0447385981678962
-0.0421483665704727
-0.0392956174910068
-0.0362209044396877
-0.0329618752002716
-0.0295524876564741
-0.0260232407599687
-0.0224036835134029
-0.0187247581779956
-0.0150192622095346
-0.011319370009005
-0.0076532876119017
-0.0040450869128108
-0.0005169697105884
0.0029104575514793
0.0062196315266191
0.009396094828844
0.0124268997460603
0.0152985742315649
0.0179967582225799
0.020508874207735
0.0228267181664705
0.02494578063488
0.0268629640340805
0.028575699776411
0.0300839059054851
0.0313930474221706
0.0325136184692382
0.0334568805992603
0.0342322438955307
0.0348480269312858
0.0353127717971801
0.0356359668076038
0.0358281098306179
0.0358984544873237
0.0358507111668586
0.0356811918318271
0.0353811085224151
0.0349377244710922
0.0343285910785198
0.0335081219673156
0.0323912501335144
0.0308457277715206
0.028704447671771
0.0257985740900039
0.0220006220042705
0.0172622986137866
0.0116370599716901
0.0052844136953353
-0.0015439810231328
-0.0085355592891573
-0.0153591036796569
-0.0217059310525655
-0.027322256937623
-0.0320294871926307
-0.0357297360897064
-0.0384001955389976
-0.0400822721421718
-0.0408674664795398
-0.0408818945288658
-0.0402700789272785
-0.0391793623566627
-0.0377490557730197
-0.0361024141311645
-0.0343380458652973
-0.0325229987502098
-0.0306920949369668
-0.0288545712828636
-0.0270018987357616
-0.0251123197376728
-0.0231554023921489
-0.021098218858242
-0.018911762163043
-0.0165772996842861
-0.0140911675989627
-0.0114665711298584
-0.0087324026972055
-0.005929775070399
-0.0031068082898855
-0.0003115446306765
0.0024153057020157
0.0050439247861504
0.0075533394701778
0.0099259065464138
0.0121439835056662
0.0141918659210205
0.0160584077239036
0.0177366733551025
0.0192241668701171
0.0205254293978214
0.0216532256454229
0.0226265527307987
0.0234660524874925
0.0241887047886848
0.0248069707304239
0.0253314357250928
0.0257711689919233
0.0261326152831316
0.0264164134860038
0.0266085620969533
0.0266669262200593
0.0265053659677505
0.0259826499968767
0.0249082278460264
0.0230705067515373
0.0202809628099203
0.0164201501756906
0.0114735588431358
0.0055476338602602
-0.0011404990218579
-0.0082950973883271
-0.0155839398503303
-0.0226803980767726
-0.0292975548654794
-0.0352107547223567
-0.0402682721614837
-0.0443879626691341
-0.047542180866003
-0.0497411228716373
-0.0510222166776657
-0.0514444522559642
-0.0510824099183082
-0.0500188842415809
-0.0483397394418716
-0.0461322776973247
-0.0434839874505996
-0.0404784567654132
-0.0371893048286438
-0.0336768701672554
-0.0299893617630004
-0.0261657442897558
-0.0222379751503467
-0.0182325784116983
-0.0141720883548259
-0.0100750662386417
-0.0059547442942857
-0.0018196515738964
0.0023211278021335
0.0064511094242334
0.0105433342978358
0.0145616512745618
0.01846325956285
0.0222024917602539
0.0257372520864009
0.0290361493825912
0.0320822782814502
0.0348705872893333
0.0374013781547546
0.0396762043237686
0.0416970402002334
0.043466180562973
0.0449864491820335
0.0462616607546806
0.0472967848181724
0.0480987057089805
0.0486774183809757
0.0490455105900764
0.0492166504263877
0.0492043644189834
0.0490167178213596
0.0486424453556537
0.0480304732918739
0.0470687486231327
0.0455765053629875
0.0433265753090381
0.0400938168168067
0.0357096493244171
0.030108019709587
0.0233517363667488
0.0156323984265327
0.0072481026872992
-0.0014343850780278
-0.0100277801975607
-0.0181728899478912
-0.0255756191909313
-0.032026320695877
-0.037402905523777
-0.0416602753102779
-0.0448113828897476
-0.0469100177288055
-0.0480394028127193
-0.0483032278716564
-0.0478170737624168
-0.0467001534998416
-0.0450687147676944
-0.0430309250950813
-0.0406801849603652
-0.0380889773368835
-0.03530940040946
-0.0323784127831459
-0.0293216705322265
-0.0261556953191757
-0.0228897519409656
-0.0195278041064739
-0.0160728264600038
-0.0125327324494719
-0.0089239533990621
-0.0052715521305799
-0.0016069328412413
0.0020348783582448
0.0056173088960349
0.0091044167056679
0.0124629372730851
0.0156636629253625
0.0186819527298212
0.021497868001461
0.0240971706807613
0.026472333818674
0.0286218672990798
0.0305484868586063
0.0322563797235488
0.0337477475404739
0.0350215807557106
0.0360727980732917
0.0368825010955333
0.0373973473906517
0.0375105328857898
0.0370582416653633
0.0358374267816543
0.0336454771459102
0.0303340125828981
0.0258574057370424
0.02029674872756
0.0138543928042054
0.006827815901488
-0.0004285974428057
-0.0075503634288907
-0.0142083317041397
-0.0201382339000701
-0.0251518711447715
-0.0291371792554855
-0.0320526957511901
-0.0339188165962696
-0.0348064824938774
-0.03482411429286
-0.0341039858758449
-0.0327896997332572
-0.0310264229774475
-0.0289523396641016
-0.0266891531646251
-0.0243323035538196
-0.0219436474144458
-0.0195508170872926
-0.0171546936035156
-0.0147401541471481
-0.0122849503532052
-0.0097668701782822
-0.0071699270047247
-0.0044883284717798
-0.0017282930202782
0.0010920029599219
0.0039453422650694
0.0067994492128491
0.009618928655982
0.0123664354905486
0.0150046646595001
0.0174983795732259
0.0198172144591808
0.0219380501657724
0.0238446313887834
0.0255265124142169
0.0269789062440395
0.028201300650835
0.0291902404278516
0.0299225989729166
0.0303337220102548
0.0303007401525974
0.029640669003129
0.028132265433669
0.025563383474946
0.0217894241213798
0.016780475154519
0.0106422016397118
0.0036059198901057
-0.0040076849982142
-0.0118378438055515
-0.0195298325270414
-0.0267696045339107
-0.0333065055310726
-0.0389622412621974
-0.0436251685023307
-0.0472363233566284
-0.0497740991413593
-0.0512422882020473
-0.0516670122742652
-0.051101267337799
-0.0496275909245014
-0.0473547950387001
-0.0444110110402107
-0.0409346222877502
-0.0370652414858341
-0.0329345427453517
-0.0286553595215082
-0.0243129376322031
-0.019962128251791
-0.0156299844384193
-0.0113234780728816
-0.0070410324260592
-0.0027821911498904
0.0014481712132692
0.005638264119625
0.0097678862512111
0.0138088883832097
0.0177293960005044
0.0214992016553878
0.0250924322754144
0.0284860357642173
0.0316565856337547
0.0345802009105682
0.0372363328933715
0.0396113693714141
0.0416992530226707
0.0435001924633979
0.0450188927352428
0.046262253075838
0.0472375191748142
0.047952614724636
0.0484161041676998
0.0486298464238643
0.0485710352659225
0.0481683760881423
0.0472829043865203
0.0457072705030441
0.0431940741837024
0.0395102724432945
0.0344990417361259
0.0281261093914508
0.0204974003136158
0.0118463793769478
0.002498360350728
-0.0071733929216861
-0.0167894680052995
-0.0260016396641731
-0.0345211736857891
-0.0421324856579303
-0.0486910976469516
-0.054109089076519
-0.058336429297924
-0.0613490715622901
-0.0631471425294876
-0.0637573599815368
-0.0632345080375671
-0.0616610422730445
-0.0591447092592716
-0.0558134652674198
-0.0518078953027725
-0.0472731254994869
-0.0423510633409023
-0.0371725000441074
-0.0318497121334075
-0.0264714621007442
-0.0211031697690486
-0.015791842713952
-0.0105704553425312
-0.0054604019969701
-0.0004758983850479
0.0043704486452043
0.0090649584308266
0.0135927768424153
0.0179369896650314
0.022076204419136
0.0259847342967987
0.0296381525695323
0.0330191068351268
0.0361179634928703
0.0389301553368568
0.0414529666304588
0.0436829514801502
0.0456175655126571
0.04725993424654
0.0486197248101234
0.0497093014419078
0.0505398325622081
0.0511180125176906
0.0514442101120948
0.0515151917934417
0.0513301417231559
0.0508946925401687
0.0502205975353717
0.0493199676275253
0.0481910295784473
0.0467967204749584
0.0450435206294059
0.0427706092596054
0.0397613942623138
0.0357830561697483
0.0306429956108331
0.0242403652518987
0.016597032546997
0.0078639462590217
-0.0016954783350229
-0.0117400884628295
-0.0218956302851438
-0.0317992344498634
-0.0411341004073619
-0.0496492683887481
-0.0571649260818958
-0.0635652691125869
-0.0687832683324813
-0.0727855488657951
-0.0755622461438179
-0.0771219581365585
-0.0774932503700256
-0.0767315849661827
-0.0749241113662719
-0.0721869692206382
-0.0686573162674903
-0.0644838139414787
-0.0598165988922119
-0.0547977238893508
-0.0495534390211105
-0.0441884137690067
-0.0387822166085243
-0.0333894826471805
-0.0280450042337179
-0.0227710492908954
-0.0175813287496566
-0.0124826868996024
-0.0074803661555051
-0.0025850227102637
0.0021847006864845
0.0068037877790629
0.0112434718757867
0.0154743865132331
0.01946940459311
0.0232049617916345
0.0266622491180896
0.0298288390040397
0.032698854804039
0.0352714508771896
0.0375493876636028
0.0395384728908538
0.0412477254867553
0.0426905862987041
0.0438843294978141
0.044845163822174
0.045583389699459
0.0461022481322288
0.0464000776410102
0.0464756190776824
0.0463333427906036
0.045983787626028
0.0454402938485145
0.0447154082357883
0.043812908232212
0.0427118986845016
0.0413480289280414
0.0395994968712329
0.0372869148850441
0.0341956205666065
0.030119240283966
0.0249117035418748
0.018529899418354
0.0110530089586973
0.0026763398200273
-0.0063142850995063
-0.0155795775353908
-0.024767143651843
-0.0335484966635704
-0.0416476167738437
-0.0488575994968414
-0.0550429299473762
-0.0601278766989707
-0.064079038798809
-0.0668916851282119
-0.0685824453830719
-0.0691872835159301
-0.0687630325555801
-0.0673887804150581
-0.065165027976036
-0.0622098706662654
-0.0586509183049202
-0.0546151138842105
-0.0502194538712501
-0.0455646477639675
-0.0407324135303497
-0.0357861891388893
-0.0307755600661039
-0.0257415641099214
-0.0207192730158567
-0.0157384946942329
-0.0108237992972135
-0.0059957029297947
-0.0012744255363941
0.0033174520358443
0.007756226696074
0.0120199844241142
0.0160892363637685
0.0199442114681005
0.0235634930431842
0.0269269328564405
0.0300189759582281
0.032829824835062
0.035356231033802
0.0376019850373268
0.039575457572937
0.0412859991192817
0.0427439883351326
0.0439628139138221
0.0449581369757652
0.0457441732287406
0.0463303253054618
0.046721938997507
0.0469230860471725
0.0469360798597335
0.0467593744397163
0.0463891997933387
0.0458247512578964
0.0450719110667705
0.0441427081823349
0.0430511310696601
0.0418041162192821
0.0403857082128524
0.0387366861104965
0.0367383807897567
0.0342143923044204
0.0309586618095636
0.0267816577106714
0.0215582270175218
0.0152640528976917
0.0079916417598724
-5.6879594922065735e-05
-0.0085955411195755
-0.017291821539402
-0.0258074719458818
-0.0338353142142295
-0.0411271974444389
-0.0475089102983474
-0.0528783947229385
-0.0571916252374649
-0.060447447001934
-0.0626750215888023
-0.0639213100075721
-0.064242847263813
-0.063705950975418
-0.0623890087008476
-0.0603805184364318
-0.0577746704220771
-0.054667841643095
-0.0511552318930625
-0.04732646048069
-0.043261844664812
-0.0390298776328563
-0.0346854925155639
-0.0302704814821481
-0.0258158892393112
-0.0213452968746423
-0.0168795101344585
-0.0124400183558464
-0.00804890319705
-0.0037284232676029
0.000497636385262
0.0046042767353355
0.0085677681490778
0.0123658403754234
0.0159763898700475
0.0193781740963459
0.0225524120032787
0.0254844576120376
0.0281655993312597
0.0305937938392162
0.0327722802758216
0.0347069427371025
0.0364056527614593
0.0378794893622398
0.039140447974205
0.0401961542665958
0.0410494692623615
0.0417029559612274
0.0421613231301307
0.0424305759370327
0.0425159446895122
0.0424208417534828
0.0421491377055645
0.0417084395885467
0.0411096103489398
0.0403635390102863
0.0394791364669799
0.0384595841169357
0.0372911021113395
0.0359253697097301
0.0342641361057758
0.0321575589478015
0.0294225811958313
0.0258797891438007
0.0214003641158342
0.0159463919699192
0.0095892120152711
0.0025033000856637
-0.0050582075491547
-0.0127981463447213
-0.0204107835888862
-0.0276119820773601
-0.0341630168259143
-0.0398873575031757
-0.0446771644055843
-0.0484874062240123
-0.0513221994042396
-0.0532208122313022
-0.0542464070022106
-0.0544779300689697
-0.0540053397417068
-0.0529256165027618
-0.0513372831046581
-0.0493349842727184
-0.0470053851604461
-0.0444234795868396
-0.0416496247053146
-0.0387279763817787
-0.0356861986219882
-0.032538890838623
-0.0292954798787832
-0.0259662959724664
-0.0225633662194013
-0.0190991014242172
-0.015586057677865
-0.0120387226343154
-0.008475936949253
-0.00492247287184
-0.0014088964089751
0.0020311586558818
0.0053645628504455
0.0085604097694158
0.0115897040814161
0.0144256725907325
0.0170473754405975
0.0194435454905033
0.0216119550168514
0.0235560312867164
0.0252824164927005
0.0268006883561611
0.0281243808567523
0.0292711593210697
0.0302608646452426
0.031110793352127
0.0318290926516056
0.0324060730636119
0.032800443470478
0.0329242721199989
0.0326387919485569
0.0317695289850235
0.0301384422928094
0.0276031233370304
0.0240935143083333
0.0196381509304046
0.0143714156001806
0.0085192006081342
0.0023689661175012
-0.0037676237989217
-0.009593553841114
-0.0148586109280586
-0.0193760525435209
-0.0230248719453811
-0.0257444325834512
-0.0275253728032112
-0.0284008905291557
-0.0284406784921884
-0.0277452170848846
-0.0264396872371435
-0.0246661454439163
-0.0225706920027732
-0.0202898234128952
-0.0179410204291343
-0.0156146790832281
-0.0133667383342981
-0.0112156262621283
-0.0091449078172445
-0.007111613638699
-0.0050595169886946
-0.0029342249035835
-0.0006958888843655
0.0016725957393646
0.0041631748899817
0.0067471377551555
0.0093813324347138
0.0120113901793956
0.0145766846835613
0.0170194767415523
0.0192928500473499
0.0213638171553611
0.0232131779193878
0.0248343273997306
0.0262314155697822
0.0274173226207494
0.0284116957336664
0.0292373076081275
0.0299145095050334
0.0304567757993936
0.0308706052601337
0.0311601310968399
0.0313303470611572
0.0313831828534603
0.0313103571534156
0.031084744259715
0.0306451749056577
0.0298799742013216
0.0286229290068149
0.0266695730388164
0.0238158199936151
0.0199091285467147
0.0148909986019134
0.0088174827396869
0.0018573431298136
-0.005728664342314
-0.0136213321238756
-0.0214829035103321
-0.0289973877370357
-0.0359014682471752
-0.0419996231794357
-0.0471667498350143
-0.0513413771986961
-0.05451101064682
-0.0566954538226127
-0.0579342022538185
-0.0582802854478359
-0.0577977523207664
-0.0565592609345912
-0.0546447709202766
-0.0521414466202259
-0.0491424836218357
-0.0457438044250011
-0.042038407176733
-0.0381104759871959
-0.0340310893952846
-0.0298552829772233
-0.0256216116249561
-0.0213544368743896
-0.0170667208731174
-0.0127626750618219
-0.0084413345903158
-0.0041010826826095
0.0002547446638345
0.0046115703880786
0.0089411055669188
0.0132053438574075
0.0173624102026224
0.0213710460811853
0.0251936428248882
0.0287958905100822
0.0321447737514972
0.0352097637951374
0.0379674769937992
0.0404068119823932
0.0425306558609008
0.0443527549505233
0.0458934679627418
0.0471768304705619
0.0482271760702133
0.0490652546286582
0.0497053116559982
0.0501539669930934
0.0504114851355552
0.0504739359021186
0.0503315404057502
0.049956664443016
0.0492818504571914
0.0481801368296146
0.0464636012911796
0.0439090840518474
0.040305633097887
0.0355066061019897
0.0294703524559736
0.0222804956138134
0.014141340740025
0.0053505497053265
-0.0037407190538942
-0.0127700949087738
-0.0214022658765316
-0.0293562598526477
-0.036418218165636
-0.0424454472959041
-0.047365590929985
-0.0511656440794467
-0.0538727641105651
-0.0555385611951351
-0.0562308505177497
-0.0560296140611171
-0.0550250150263309
-0.0533152222633361
-0.051002949476242
-0.0481918603181839
-0.0449838079512119
-0.0414757058024406
-0.0377540998160839
-0.0338884107768535
-0.0299264825880527
-0.0258961021900177
-0.0218117889016866
-0.0176810547709465
-0.0135087631642818
-0.0093026952818036
-0.0050784768536686
-0.0008609099313616
0.003316493704915
0.0074132746085524
0.0113860592246055
0.0151932220906019
0.0187988858669996
0.0221756547689437
0.0253053791821002
0.0281787384301424
0.0307938177138566
0.033152513206005
0.0352564603090286
0.0371060818433761
0.0387014970183372
0.0400428622961044
0.0411317050457
0.0419741347432136
0.0425824858248233
0.0429727807641029
0.0431607887148857
0.0431601554155349
0.042982842773199
0.042640570551157
0.0421438254415988
0.0414951257407665
0.0406772010028362
0.0396356433629989
0.0382599644362926
0.0363769270479679
0.0337664447724819
0.0302015338093042
0.025502948090434
0.0195880718529224
0.0124992243945598
0.0044079069048166
-0.0044047553092241
-0.0135867390781641
-0.0227625146508216
-0.0315771996974945
-0.0397290773689746
-0.0469871833920478
-0.0531962439417839
-0.0582731924951076
-0.0621967613697052
-0.0649916157126426
-0.0667113363742828
-0.0674254670739173
-0.0672135278582573
-0.0661645159125328
-0.0643767043948173
-0.0619536712765693
-0.0589989870786666
-0.0556142181158065
-0.0518982857465744
-0.0479422584176063
-0.0438203364610672
-0.0395843125879764
-0.0352646149694919
-0.0308774933218956
-0.0264352113008499
-0.0219521783292293
-0.0174455195665359
-0.0129340523853898
-0.0084377061575651
-0.0039784433320164
0.0004178606905043
0.0047203181311488
0.0088933873921632
0.0128994341939687
0.0167025383561849
0.020271549001336
0.0235826261341571
0.0266216732561588
0.0293849036097526
0.0318754687905311
0.0340979434549808
0.0360563583672046
0.0377572141587734
0.0392121709883213
0.0404368378221988
0.0414473414421081
0.042257621884346
0.0428787134587764
0.0433196015655994
0.0435881540179252
0.043691337108612
0.0436347797513008
0.043421771377325
0.0430530197918415
0.0425278842449188
0.0418439246714115
0.0409946776926517
0.0399667844176292
0.0387293435633182
0.0372135527431964
0.0352959968149662
0.0328001640737056
0.029521320015192
0.0252704750746488
0.0199247095733881
0.0134672150015831
0.0060045681893825
-0.0022425279021263
-0.0109706977382302
-0.0198363959789276
-0.028496291488409
-0.0366394072771072
-0.0440110303461551
-0.0504271015524864
-0.0557756125926971
-0.0600054860115051
-0.0631119087338447
-0.0651259198784828
-0.0661066249012947
-0.0661333724856376
-0.0653003752231597
-0.0637143403291702
-0.0614905692636966
-0.0587457008659839
-0.0555893816053867
-0.052116572856903
-0.0484033599495887
-0.0445081554353237
-0.0404744632542133
-0.0363317355513572
-0.0320967584848403
-0.0277785919606685
-0.0233862828463315
-0.0189353395253419
-0.0144490078091621
-0.009955495595932
-0.0054860333912074
-0.0010751541703939
0.0032405480742454
0.0074260528199374
0.0114502813667058
0.0152865042909979
0.0189121812582016
0.0223074611276388
0.025453433394432
0.0283332169055938
0.0309356600046157
0.0332583487033844
0.0353063158690929
0.0370878614485263
0.0386139154434204
0.0399001948535442
0.0409653149545192
0.041826281696558
0.0424970351159572
0.0429891943931579
0.0433102548122406
0.0434567742049694
0.0434025041759014
0.0430803075432777
0.0423646308481693
0.0410727523267269
0.0389946959912776
0.0359411649405956
0.0317912138998508
0.0265274550765752
0.0202513188123703
0.013175300322473
0.005595298949629
-0.0021500415168702
-0.0097221620380878
-0.0168177466839551
-0.0231927745044231
-0.0286733657121658
-0.0331538915634155
-0.0365895256400108
-0.0389870330691337
-0.0403926074504852
-0.0408804751932621
-0.0405451692640781
-0.0394952334463596
-0.0378478206694126
-0.0357239432632923
-0.0332418903708457
-0.0305090174078941
-0.0276155397295951
-0.0246310848742723
-0.021601740270853
-0.0185496695339679
-0.0154781062155961
-0.0123783871531486
-0.0092368088662624
-0.0060424199327826
-0.0027934983372688
0.0004988359287381
0.003808673005551
0.0070960680022835
0.0103114917874336
0.0134031130000948
0.0163246933370828
0.0190403535962104
0.0215249918401241
0.0237636156380176
0.0257518868893384
0.0274961292743682
0.029012244194746
0.0303240995854139
0.031457994133234
0.0324341654777526
0.0332637317478656
0.0339512377977371
0.0344958901405334
0.0348918326199054
0.035131350159645
0.0352094434201717
0.0351253673434257
0.0348816365003585
0.0344838127493858
0.0339402593672275
0.0332602560520172
0.0324517600238323
0.0315205454826355
0.0304712429642677
0.0293075293302536
0.0280263759195804
0.0266053434461355
0.0249870158731937
0.0230661146342754
0.0206876099109649
0.0176656804978847
0.0138231515884399
0.0090377759188413
0.0032799690961837
-0.0033681280910968
-0.0107162687927484
-0.0184904988855123
-0.0263703037053346
-0.0340283997356891
-0.041166640818119
-0.0475446656346321
-0.052996814250946
-0.0574331507086753
-0.0608261451125144
-0.0631915181875228
-0.0645739063620567
-0.0650403052568435
-0.0646766871213913
-0.0635830983519554
-0.0618664547801017
-0.0596337839961051
-0.0569879189133644
-0.0540240705013275
-0.0508258044719696
-0.0474613532423973
-0.0439811050891876
-0.040416520088911
-0.0367821492254734
-0.0330826304852962
-0.0293214078992605
-0.0255050119012594
-0.0216418616473674
-0.017741359770298
-0.0138166537508368
-0.009887765161693
-0.0059820786118507
-0.0021320045925676
0.0016285968013107
0.0052663083188235
0.0087484819814562
0.0120455008000135
0.0151352155953645
0.0180048011243343
0.0206481702625751
0.0230629928410053
0.0252502355724573
0.0272151939570903
0.0289674401283264
0.0305194649845361
0.0318852663040161
0.0330776795744895
0.0341063849627971
0.0349804982542991
0.0357112064957618
0.0363081991672515
0.0367712676525116
0.0370785892009735
0.0371712036430835
0.0369389876723289
0.036219198256731
0.0348160378634929
0.0325392000377178
0.029250793159008
0.0249063819646835
0.0195769779384136
0.0134477298706769
0.0067952247336506
-5.234184209257364e-05
-0.006761017255485
-0.0130296554416418
-0.0186167974025011
-0.0233567301183938
-0.0271604545414447
-0.0300019662827253
-0.0319027416408062
-0.032921090722084
-0.0331417247653007
-0.0326650775969028
-0.0315996333956718
-0.0300564859062433
-0.0281438194215297
-0.0259611494839191
-0.0235946699976921
-0.0211131274700164
-0.0185647346079349
-0.0159774869680404
-0.0133616840466856
-0.0107121476903557
-0.0080127203837037
-0.0052467947825789
-0.0024099554866552
0.0004834122955799
0.0034008622169494
0.0062956865876913
0.0091133173555135
0.0118020325899124
0.0143241416662931
0.0166614484041929
0.0188144240528345
0.0207979306578636
0.0226342864334583
0.0243448615074157
0.0259445905685424
0.0274417549371719
0.028840634971857
0.0301441084593534
0.0313531383872032
0.0324626006186008
0.0334597043693065
0.0343298204243183
0.0350645147264003
0.0356630384922027
0.0361273996531963
0.0364587754011154
0.0366572849452495
0.0367210507392883
0.0366447381675243
0.0364206209778785
