bvp
-0.0500684231519699
-0.0496489182114601
-0.0482752732932567
-0.0459301546216011
-0.0426246747374534
-0.0384013354778289
-0.0333347506821155
-0.0275305621325969
-0.021121010184288
-0.0142522193491458
-0.0070683844387531
0.0002967044711112
0.007719911634922
0.0150877945125103
0.0222978331148624
0.029259581118822
0.0358947589993476
0.0421372428536415
0.0479328297078609
0.0532378330826759
0.0580158494412899
0.0622343979775905
0.0658647790551185
0.0688849687576294
0.0712834596633911
0.0730653032660484
0.0742601826786995
0.0749246478080749
0.0751325860619545
0.0749574899673461
0.0744508206844329
0.0736196041107177
0.0724114030599594
0.0707156881690025
0.0683843791484832
0.0652660727500915
0.0612439140677452
0.0562688149511814
0.0503820218145847
0.0437194406986236
0.0364961847662925
0.0289810821413993
0.0214683841913938
0.0142488460987806
0.0075853569433093
0.0016959905624389
-0.0032571423798799
-0.007174227386713
-0.0100189317017793
-0.0118136471137404
-0.0126294065266847
-0.012573461048305
-0.0117767751216888
-0.0103828106075525
-0.0085394801571965
-0.0063939313404262
-0.0040865670889616
-0.0017425628611817
0.0005375042092055
0.0026853780727833
0.004667627159506
0.0064811464399099
0.0081444289535284
0.0096887070685625
0.0111503545194864
0.012563039548695
0.0139500480145215
0.0153203522786498
0.0166695304214954
0.0179832130670547
0.019240453839302
0.0204144939780235
0.0214724522083997
0.0223774146288633
0.0230919271707534
0.0235796757042408
0.0238006748259067
0.0236964616924524
0.0231741722673177
0.0221048705279827
0.0203397162258625
0.0177361816167831
0.0141884163022041
0.0096576809883117
0.0041938200592994
-0.0020596571266651
-0.0088749676942825
-0.0159614272415637
-0.0229989476501941
-0.0296762473881244
-0.0357225053012371
-0.0409275367856025
-0.045150451362133
-0.0483188368380069
-0.0504226796329021
-0.0515052899718284
-0.0516507662832737
-0.0509711317718029
-0.0495968572795391
-0.0476688891649246
-0.0453301668167114
-0.0427172556519508
-0.0399516858160495
-0.0371328964829444
-0.0343362875282764
-0.0316146649420261
-0.0289999935775995
-0.0265056211501359
-0.0241298303008079
-0.0218602959066629
-0.0196778513491153
-0.0175592396408319
-0.0154809169471263
-0.0134246759116649
-0.0113824792206287
-0.0093574598431587
-0.0073609128594398
-0.005407940596342
-0.0035148598253726
-0.0017012506723403
5.695968866348267e-06
0.0015731044113636
0.0029717050492763
0.0041822157800197
0.0051911063492298
0.0059771910309791
0.0064961649477481
0.0066710449755191
0.0063959062099456
0.0055543333292007
0.0040436275303363
0.0017966777086257
-0.0011982806026935
-0.0048813968896865
-0.0091167576611042
-0.0137058719992637
-0.0184129849076271
-0.0229920223355293
-0.0272117536514997
-0.0308771133422851
-0.033842459321022
-0.0360165052115917
-0.0373619757592678
-0.0378906242549419
-0.0376543998718261
-0.0367360636591911
-0.0352399833500385
-0.0332817882299423
-0.0309779401868581
-0.0284386873245239
-0.0257641449570655
-0.0230400748550891
-0.0203346144407987
-0.0176975913345813
-0.0151609918102622
-0.0127400392666459
-0.0104344561696052
-0.0082303155213594
-0.006104334257543
-0.0040303226560354
-0.00198570266366
4.342570900917053e-05
0.0020601507276296
0.0040584281086921
0.0060271136462688
0.0079533848911523
0.0098234256729483
0.0116199050098657
0.0133196599781513
0.0148964915424585
0.016327004879713
0.0175932981073856
0.0186825580894947
0.0195879153907299
0.020309904590249
0.0208523832261562
0.0212097838521003
0.0213525742292404
0.0212209448218345
0.0207298286259174
0.0197845045477151
0.0183034129440784
0.0162413828074932
0.0136061003431677
0.0104632182046771
0.0069314334541559
0.003170502372086
-0.0006361994892358
-0.004300826229155
-0.007649503648281
-0.0105391284450888
-0.0128687545657157
-0.0145832495763897
-0.0156702250242233
-0.0161522272974252
-0.0160777922719717
-0.0155133958905935
-0.0145360007882118
-0.0132282022386789
-0.0116766896098852
-0.0099694253876805
-0.0081883883103728
-0.0064022107981145
-0.0046633859165012
-0.0030071910005062
-0.0014496413059532
1.2633856385946274e-05
0.001398843480274
0.0027376653160899
0.0040594143792986
0.0053894161246716
0.0067444685846567
0.0081318570300936
0.0095495926216244
0.0109861735254526
0.0124199166893959
0.0138206528499722
0.0151540776714682
0.0163865108042955
0.017489980906248
0.0184471774846315
0.0192527435719966
0.0199100412428379
0.0204273201525211
0.0208142399787902
0.0210781395435333
0.0212228689342737
0.0212491005659103
0.0211509931832551
0.0209092423319816
0.020485233515501
0.0198199991136789
0.0188413839787244
0.0174802765250206
0.0156908109784126
0.0134674469009041
0.010854004882276
0.007942970842123
0.0048650740645825
0.0017715385183691
-0.0011855619959533
-0.0038712350651621
-0.006180671043694
-0.0080436980351805
-0.0094231246039271
-0.0103126224130392
-0.0107345758005976
-0.0107379266992211
-0.0103961192071437
-0.0098004853352904
-0.009047282859683
-0.0082228854298591
-0.0073928055353462
-0.0065985219553112
-0.0058610569685697
-0.0051853619515895
-0.0045628547668457
-0.0039754109457135
-0.0034016529098153
-0.002821814501658
-0.002219354500994
-0.0015813203062862
-0.0009003262966871
-0.000178144313395
0.0005725810769945
0.00133150909096
0.0020773701835423
0.0027939612045884
0.0034718639217317
0.0041056601330637
0.0046906066127121
0.0052227177657186
0.0056992238387465
0.0061141494661569
0.0064506074413657
0.0066750207915902
0.0067370124161243
0.006576563231647
0.0061363973654806
0.0053748250938951
0.004275282844901
0.0028523143846541
0.0011550673516467
-0.0007335538975894
-0.0027041067369282
-0.0046315472573041
-0.0063881641253829
-0.0078592738136649
-0.008957645855844
-0.0096306195482611
-0.0098595768213272
-0.0096568055450916
-0.0090617155656218
-0.0081335296854376
-0.0069429920986294
-0.0055679259821772
-0.0040894323028624
-0.0025848648510873
-0.0011202609166502
0.00025420403108
0.0015049623325467
0.0026139728724956
0.0035785310901701
0.0044106263667345
0.0051335715688765
0.0057778684422373
0.0063762296922504
0.0069562336429953
0.0075345304794609
0.0081156631931662
0.0086930440738797
0.0092495344579219
0.0097589818760752
0.0101919444277882
0.0105234459042549
0.0107365753501653
0.010822819545865
0.0107836229726672
0.0106309903785586
0.0103833191096782
0.0100563708692789
0.0096517028287053
0.0091480230912566
0.0085006635636091
0.0076500326395034
0.0065378798171877
0.0051275882869958
0.0034183072857558
0.0014453114708885
-0.000727601815015
-0.0030149838421493
-0.0053151724860072
-0.0075185894966125
-0.0095216240733861
-0.0112411361187696
-0.0126224299892783
-0.0136399138718843
-0.0142932711169123
-0.0146019244566559
-0.0145997703075408
-0.0143314786255359
-0.0138496086001396
-0.0132093438878655
-0.0124624939635396
-0.0116558177396655
-0.0108319483697414
-0.0100283687934279
-0.0092743607237935
-0.0085885785520076
-0.0079784477129578
-0.0074407267384231
-0.0069633522070944
-0.0065281316637992
-0.0061126886866986
-0.0056924144737422
-0.0052435779944062
-0.0047461716458201
-0.0041858004406094
-0.0035550752654671
-0.0028552417643368
-0.0020984965376555
-0.0013075210154056
-0.0005089547485113
0.0002749348059296
0.0010292003862559
0.0017435257323086
0.002408951986581
0.0030164821073412
0.0035555036738514
0.0040084505453705
0.0043429252691566
0.0045077856630086
0.0044383006170392
0.0040699248202145
0.0033538895659148
0.0022680778056383
0.000823660288006
-0.0009310096502304
-0.0029125418514013
-0.005012416280806
-0.00711056496948
-0.0090890508145093
-0.0108445798978209
-0.0122971115633845
-0.0133936945348978
-0.0141095798462629
-0.0144463339820504
-0.0144265824928879
-0.0140889780595898
-0.0134849101305007
-0.0126725295558571
-0.0117083694785833
-0.0106435753405094
-0.009524093940854
-0.0083888620138168
-0.0072664879262447
-0.0061738993972539
-0.0051167570054531
-0.004090279340744
-0.0030805151909589
-0.002066733315587
-0.0010255463421344
6.391480565071106e-05
0.0012165512889623
0.0024406183511018
0.0037372149527072
0.0050991456955671
0.0065108723938465
0.007949735969305
0.009388000704348
0.0107957245782017
0.0121445823460817
0.0134117342531681
0.0145820239558815
0.015647854655981
0.016607217490673
0.0174600761383771
0.0182018000632524
0.0188138745725154
0.019255943596363
0.0194640420377254
0.0193581152707338
0.0188572220504283
0.0178963281214237
0.0164407044649124
0.0144966691732406
0.0121159804984927
0.0093922885134816
0.006451116874814
0.0034361090511083
0.0004945956170558
-0.0022353418171405
-0.0046359542757272
-0.0066189561039209
-0.008130244910717
-0.0091484766453504
-0.0096804127097129
-0.0097555425018072
-0.009420583024621
-0.0087362676858901
-0.0077759623527526
-0.0066208597272634
-0.0053504183888435
-0.0040329154580831
-0.0027202442288398
-0.0014461707323789
-0.0002258084714412
0.0009427163749933
0.0020728409290313
0.0031827762722969
0.0042897537350654
0.0054057631641626
0.0065360013395547
0.0076810140162706
0.0088404770940542
0.0100138736888766
0.0111969681456685
0.0123790754005312
0.0135442791506648
0.0146734938025474
0.0157453678548336
0.0167391169816255
0.0176380202174186
0.0184293761849403
0.0191043242812156
0.0196585673838853
0.0200884249061346
0.0203832685947418
0.0205175019800663
0.0204420387744903
0.0200809687376022
0.0193397924304008
0.0181229654699563
0.0163556672632694
0.0140057047829031
0.0110992481932044
0.0077245505526661
0.0040242648683488
0.0001801997423171
-0.0036076065152883
-0.0071447510272264
-0.0102641303092241
-0.0128409350290894
-0.0147996116429567
-0.016114093363285
-0.0168024841696023
-0.0169183481484651
-0.016542624682188
-0.0157752409577369
-0.014723383821547
-0.0134893702343106
-0.0121622681617736
-0.0108137764036655
-0.0094961607828736
-0.0082404445856809
-0.0070575354620814
-0.0059440415352582
-0.0048882756382226
-0.0038737868890166
-0.0028821723535656
-0.0018956130370497
-0.0008983751758933
0.0001219692640006
0.0011711404658854
0.0022434350103139
0.0033213389106094
0.0043810065835714
0.0053984345868229
0.0063530127517879
0.0072294427081942
0.0080189891159534
0.008720476180315
0.009340364485979
0.0098907854408025
0.0103864278644323
0.0108412792906165
0.0112659782171249
0.0116665475070476
0.0120401941239833
0.0123623674735426
0.0125730168074369
0.0125778391957283
0.0122651699930429
0.0115265510976314
0.0102749392390251
0.0084611698985099
0.0060872631147503
0.0032127979211509
-4.695821553468704e-05
-0.0035305416677147
-0.007048001512885
-0.0104051819071173
-0.0134273879230022
-0.0159767642617225
-0.0179623179137706
-0.0193432494997978
-0.0201276764273643
-0.0203665718436241
-0.0201419722288846
-0.0195532850921154
-0.0187060814350843
-0.0177046377211809
-0.0166461579501628
-0.0156134059652686
-0.0146666644141078
-0.0138383377343416
-0.013132182881236
-0.0125271026045084
-0.0119830463081598
-0.0114474240690469
-0.0108630964532494
-0.0101779857650399
-0.0093533638864755
-0.0083678448572754
-0.0072165047749876
-0.0059074955061078
-0.0044594681821763
-0.0028992292936891
-0.001258039381355
0.0004320064908824
0.0021411785855889
0.0038450059946626
0.0055249999277293
0.0071677542291581
0.0087647084146738
0.0103118177503347
0.0118071222677826
0.0132457176223397
0.0146133545786142
0.0158805698156356
0.0169963799417018
0.0178812779486179
0.018426414579153
0.0185045637190341
0.0179900228977203
0.0167811606079339
0.0148207191377878
0.01211210899055
0.0087283831089735
0.0048070582561194
0.0005323542281985
-0.0038838549517095
-0.0082189813256263
-0.0122600495815277
-0.015825567767024
-0.0187811665236949
-0.0210463367402553
-0.0225930660963058
-0.0234389826655387
-0.0236391723155975
-0.0232769269496202
-0.0224513486027717
-0.0212650094181299
-0.0198163837194442
-0.0181954279541969
-0.0164781492203474
-0.0147206028923392
-0.0129556972533464
-0.011193661019206
-0.0094265276566147
-0.0076365447603166
-0.0058034872636199
-0.0039085233584046
-0.0019384841434657
0.0001092885504476
0.0022253931965678
0.0043897870928049
0.0065727937035262
0.0087368115782737
0.0108399530872702
0.012838240712881
0.0146872075274586
0.0163466576486825
0.0177853908389806
0.0189804881811141
0.0199123974889516
0.020562445744872
0.0209161471575498
0.0209691599011421
0.020729785785079
0.020213533192873
0.0194324180483818
0.0183854401111602
0.0170532409101724
0.0153979361057281
0.0133708408102393
0.010929531417787
0.0080595090985298
0.0047925440594553
0.0012166481465101
-0.0025262688286602
-0.0062577011995017
-0.0097883772104978
-0.0129421316087245
-0.0155738610774278
-0.0175804551690816
-0.0189046487212181
-0.0195343233644962
-0.0194983333349227
-0.0188592821359634
-0.0177052300423383
-0.01614192686975
-0.0142848212271928
-0.01224878244102
-0.0101370140910148
-0.0080336257815361
-0.0060013709589838
-0.0040837829001247
-0.0023104394786059
-0.0007018169853836
0.0007279175333678
0.0019672336056828
0.0030034549999982
0.0038240528665483
0.0044221277348697
0.0048007951118052
0.0049756369553506
0.0049758744426071
0.0048431954346597
0.0046282717958092
0.0043851337395608
0.0041643613949418
0.0040084160864353
0.0039507681503891
0.0040164054371416
0.004221414681524
0.00457300292328
0.0050698355771601
0.0056979143992066
0.0064211110584437
0.0071730385534465
0.0078567583113908
0.0083542428910732
0.008543231524527
0.0083172880113124
0.007607668172568
0.006403527688235
0.0047609750181436
0.0027961879968643
0.0006659431383013
-0.001458091661334
-0.0034128092229366
-0.0050601628609001
-0.0062979543581604
-0.0070661813952028
-0.0073495870456099
-0.0071761896833777
-0.0066114603541791
-0.0057508191093802
-0.0047117713838815
-0.003623308148235
-0.0026119835674762
-0.0017859288491308
-0.0012192134745419
-0.0009438595734536
-0.0009549092501401
-0.0012211692519485
-0.0016909786500036
-0.0022945874370634
-0.002950154710561
-0.0035725273191928
-0.0040808767080307
-0.0044060237705707
-0.0044971397146582
-0.0043245954439044
-0.0038789538666605
-0.0031689084134995
-0.0022197836078703
-0.0010705422610044
0.0002332143485546
0.0016461093910038
0.0031234915368258
0.0046194172464311
0.0060898307710886
0.0074992012232542
0.0088248839601874
0.0100553706288337
0.0111793018877506
0.0121682388707995
0.0129619389772415
0.0134626496583223
0.0135416351258754
0.0130584631115198
0.0118870651349425
0.0099399490281939
0.0071891825646162
0.0036833016201853
-0.0004505505785346
-0.0050247777253389
-0.0098183220252394
-0.0146013246849179
-0.0191568955779075
-0.0232993401587009
-0.0268853921443223
-0.0298189111053943
-0.0320516377687454
-0.0335802063345909
-0.0344391502439975
-0.0346909426152706
-0.0344148501753807
-0.0336958356201648
-0.0326142534613609
-0.0312391445040702
-0.0296264849603176
-0.0278190057724714
-0.0258458983153104
-0.0237233340740203
-0.0214562714099884
-0.019041558727622
-0.0164720900356769
-0.0137423835694789
-0.0108543531969189
-0.0078213140368461
-0.0046695806086063
-0.001437610015273
0.0018267687410116
0.0050719738937914
0.0082498043775558
0.0113179525360465
0.0142362751066684
0.0169622488319873
0.0194499585777521
0.0216526072472333
0.023527231067419
0.0250410884618759
0.0261770598590374
0.0269301328808069
0.0272902622818946
0.0272204391658306
0.0266457013785839
0.0254598930478096
0.0235471427440643
0.0208139456808567
0.0172243416309356
0.0128248045220971
0.0077495812438428
0.0022086319513618
-0.003534011542797
-0.009187520481646
-0.0144651541486382
-0.019111942499876
-0.0229236632585525
-0.0257588010281324
-0.027545491233468
-0.0282820239663124
-0.0280293896794319
-0.026897195726633
-0.0250276736915111
-0.0225808396935462
-0.019719798117876
-0.0165965911000967
-0.0133434254676103
-0.0100708939135074
-0.0068683698773384
-0.0038032177835702
-0.0009191799908876
0.0017642974853515
0.0042488481849431
0.006550682708621
0.0086943246424198
0.0107064545154571
0.0126085225492715
0.0144111942499876
0.0161143019795417
0.0177103206515312
0.0191883109509944
0.0205376222729682
0.0217489842325449
0.0228139888495206
0.0237275455147027
0.0244924779981374
0.0251200031489133
0.0256198327988386
0.0259816031903028
0.0261572282761335
0.026052726432681
0.0255344286561012
0.0244500115513801
0.0226604714989662
0.0200767964124679
0.0166910924017429
0.0125921797007322
0.0079630399122834
0.0030606910586357
-0.0018182471394538
-0.0063765048980712
-0.0103500448167324
-0.0135315656661987
-0.0157824978232383
-0.0170380249619483
-0.017308184877038
-0.0166713576763868
-0.0152593124657869
-0.0132392067462205
-0.0107948556542396
-0.0081089828163385
-0.0053496528416872
-0.0026587881147861
-0.0001422930508852
0.002133535221219
0.0041401963680982
0.0058838762342929
0.0073995385318994
0.0087403329089283
0.0099664339795708
0.0111376261338591
0.0123085463419556
0.0135232750326395
0.0148096932098269
0.0161771588027477
0.0176178589463233
0.0191099699586629
0.0206221770495176
0.0221193172037601
0.0235675536096096
0.0249367207288742
0.0261988490819931
0.0273204483091831
0.0282453410327434
0.0288745854049921
0.0290578491985797
0.0286047421395778
0.027315005660057
0.02501917257905
0.0216185189783573
0.0171158500015735
0.0116306357085704
0.0053939688950777
-0.001276526832953
-0.0080170650035142
-0.0144640477374196
-0.0202958434820175
-0.0252626053988933
-0.0292010381817817
-0.0320356711745262
-0.0337701067328453
-0.0344726219773292
-0.0342601239681243
-0.0332819111645221
-0.0317037813365459
-0.0296928957104682
-0.0274038836359977
-0.0249680411070585
-0.0224868264049291
-0.0200287494808435
-0.0176281686872243
-0.0152869056910276
-0.0129809081554412
-0.0106702456250786
-0.0083082765340805
-0.0058493129909038
-0.0032551521435379
-0.0004996415227651
0.0024265251122415
0.0055106841027736
0.0087183080613613
0.0119988676160573
0.015291629359126
0.0185297094285488
0.0216450076550245
0.0245749801397323
0.0272700022906065
0.0296974219381809
0.0318344049155712
0.0336470492184162
0.0350653678178787
0.0359655767679214
0.0361667573451995
0.0354476161301136
0.0335828363895416
0.0303904749453067
0.0257798992097377
0.0197881534695625
0.0125932190567255
0.0045006908476352
-0.0040917675942182
-0.012743386439979
-0.0210223793983459
-0.0285517089068889
-0.0350408628582954
-0.0402995757758617
-0.0442341454327106
-0.0468320287764072
-0.0481424033641815
-0.0482586361467838
-0.0473060831427574
-0.0454329773783683
-0.0428006909787654
-0.0395740903913974
-0.0359125174582004
-0.0319609493017196
-0.0278427153825759
-0.0236550569534301
-0.0194674767553806
-0.0153222205117344
-0.0112372217699885
-0.0072121769189834
-0.0032371175475418
0.0006986679509282
0.0046007111668586
0.0084669943898916
0.0122864954173564
0.0160371884703636
0.0196845792233943
0.0231832414865493
0.0264819003641605
0.0295284558087587
0.0322736576199531
0.0346764773130416
0.0367097370326519
0.0383613109588623
0.0396299362182617
0.0405156202614307
0.0410021655261516
0.041033636778593
0.0404960736632347
0.0392170064151287
0.0369878187775611
0.0336078107357025
0.0289397463202476
0.0229577030986547
0.0157724916934967
0.0076317358762025
-0.0011028721928596
-0.0099970083683729
-0.0185953509062528
-0.0264733396470546
-0.0332826636731624
-0.0387820750474929
-0.0428439937531948
-0.0454400554299354
-0.0466198772192001
-0.0464919432997703
-0.0452070906758308
-0.0429438278079032
-0.0398946963250637
-0.0362539887428283
-0.0322079136967659
-0.0279261898249387
-0.0235545672476291
-0.0192100144922733
-0.0149793028831481
-0.0109193287789821
-0.0070584723725914
-0.0034009218215942
6.627244874835014e-05
0.0033662924543023
0.0065253158099949
0.0095640588551759
0.0124925691634416
0.015310026705265
0.0180045887827873
0.020552359521389
0.0229193456470966
0.0250665806233882
0.0269570499658584
0.0285640750080347
0.0298788286745548
0.0309126675128936
0.0316922850906848
0.0322513319551944
0.0326242893934249
0.0328443646430969
0.0329425632953643
0.0329464823007583
0.0328788831830024
0.0327512249350547
0.0325480699539184
0.0322077572345733
0.0316090174019336
0.0305709578096866
0.0288699138909578
0.0262728799134492
0.0225831493735313
0.0176883265376091
0.0115975625813007
0.0044580698013305
-0.0034532807767391
-0.0117619950324296
-0.0200433582067489
-0.0278742481023073
-0.0348820202052593
-0.0407823622226715
-0.0453973300755023
-0.0486547723412513
-0.0505775436758995
-0.0512660183012485
-0.0508754774928092
-0.049592301249504
-0.0476120561361312
-0.0451221168041229
-0.0422913283109664
-0.039263479411602
-0.0361512154340744
-0.0330358445644378
-0.0299740973860025
-0.0270032566040754
-0.0241417773067951
-0.0213904790580272
-0.0187373831868171
-0.0161647144705057
-0.0136547721922397
-0.0111925229430198
-0.0087665133178234
-0.0063707148656249
-0.0040060859173536
-0.0016796169802546
0.0005981428548693
0.0028147026896476
0.0049561718478798
0.0070083504542708
0.0089586619287729
0.0107976226136088
0.0125196920707821
0.0141238961368799
0.015613168478012
0.0169913321733474
0.0182587653398513
0.0194088891148567
0.0204253681004047
0.0212768092751503
0.0219044126570224
0.0222044307738542
0.022018352523446
0.0211429465562105
0.0193624459207057
0.0164958927780389
0.0124448370188474
0.0072273984551429
0.0009911730885505
-0.0059972805902361
-0.0133821349591016
-0.0207603815943002
-0.0277297645807266
-0.0339324139058589
-0.0390841737389564
-0.0429881401360034
-0.0455376021564006
-0.0467134937644004
-0.0465774424374103
-0.0452582016587257
-0.0429303981363773
-0.0397913232445716
-0.0360427871346473
-0.0318769067525863
-0.0274638757109642
-0.0229442678391933
-0.0184257272630929
-0.0139832887798547
-0.0096632642671465
-0.0054884916171431
-0.0014634295366704
0.0024216366000473
0.0061863288283348
0.0098529197275638
0.0134372124448418
0.0169423222541809
0.0203572493046522
0.0236579477787017
0.0268096104264259
0.0297709573060274
0.0324992686510086
0.0349544882774353
0.0371024124324321
0.038917601108551
0.0403863564133644
0.0415079928934574
0.0422939285635948
0.0427669398486614
0.0429596342146396
0.0429111495614051
0.0426636710762977
0.0422577671706676
0.0417261756956577
0.041091538965702
0.0403694696724414
0.0395712368190288
0.0387040190398693
0.0377680137753486
0.0367454290390014
0.0355826281011104
0.0341761521995067
0.0323729217052459
0.0299889631569385
0.0268449392169713
0.0228100940585136
0.0178407430648803
0.0120010375976562
0.0054619964212179
-0.0015179440379142
-0.0086252465844154
-0.0155310407280921
-0.0219318717718124
-0.0275825168937444
-0.0323145799338817
-0.0360414087772369
-0.0387517139315605
-0.040494181215763
-0.0413588508963584
-0.0414618141949176
-0.0409339740872383
-0.0399106815457344
-0.0385222136974334
-0.0368863083422184
-0.03510158136487
-0.0332411304116249
-0.0313484780490398
-0.0294377282261848
-0.0274969600141048
-0.0254944078624248
-0.0233878921717405
-0.0211354196071624
-0.018703980371356
-0.0160748735070228
-0.0132459606975317
-0.0102335736155509
-0.0070730098523199
-0.0038140178658068
-0.0005140001885592
0.0027664671652019
0.0059669115580618
0.0090310163795948
0.0119100678712129
0.0145637467503547
0.0169584788382053
0.0190669111907482
0.0208717267960309
0.0223704185336828
0.0235748477280139
0.0245051383972167
0.0251821726560592
0.0256227254867553
0.0258354619145393
0.0258120112121105
0.0255145169794559
0.0248662717640399
0.0237508453428745
0.0220267828553915
0.0195595268160104
0.0162583533674478
0.012104139663279
0.0071655437350273
0.0016050366684794
-0.0043299747630953
-0.0103347832337021
-0.0160873122513294
-0.0212876144796609
-0.0256874188780784
-0.0291077811270952
-0.031446386128664
-0.0326754562556743
-0.0328347645699977
-0.0320233106613159
-0.0303858369588851
-0.0280939880758523
-0.0253288596868515
-0.0222669020295143
-0.0190667584538459
-0.0158586502075195
-0.0127391973510384
-0.0097714597359299
-0.0069879554212093
-0.0043949312530457
-0.0019785426557064
0.0002869204618036
0.0024306904524564
0.0044785761274397
0.0064476071856915
0.008342795073986
0.0101571502164006
0.0118750799447298
0.0134771196171641
0.0149422716349363
0.0162484161555767
0.0173756126314401
0.0183114111423492
0.019052505493164
0.0196031592786312
0.0199753046035766
0.0201896540820598
0.0202744454145431
0.0202628076076507
0.0201895907521247
0.0200858786702156
0.0199730079621076
0.0198585391044616
0.0197307430207729
0.0195487812161445
0.0192331783473491
0.0186650268733501
0.0176979582756757
0.0161798372864723
0.0139801362529397
0.0110209044069051
0.0073046162724494
0.0029264409095048
-0.0019343551248311
-0.0070379292592406
-0.0121141718700528
-0.0168948899954557
-0.0211447589099407
-0.0246860049664974
-0.0274114497005939
-0.0292853880673646
-0.0303362719714641
-0.0306445434689521
-0.0303276535123586
-0.0295253284275531
-0.0283864364027977
-0.0270554237067699
-0.0256584249436855
-0.0242924988269805
-0.0230197347700595
-0.0218660365790128
-0.0208244677633047
-0.0198624581098556
-0.0189309455454349
-0.0179738216102123
-0.0169362425804138
-0.0157697405666112
-0.0144355874508619
-0.0129082780331373
-0.01117739174515
-0.0092484718188643
-0.0071436930447816
-0.004899981431663
-0.0025639291852712
-0.0001857743918662
0.0021847246680408
0.0045013697817921
0.0067250207066535
0.0088236341252923
0.0107687190175056
0.0125352051109075
0.0141047202050685
0.0154660446569323
0.0166144110262393
0.017553374171257
0.0182955563068389
0.0188593845814466
0.0192644521594047
0.019526345655322
0.0196473356336355
0.0196021664887666
0.0193251427263021
0.0187075454741716
0.0176102574914693
0.0158883035182952
0.0134218726307153
0.0101489312946796
0.0060905464924871
0.0013614753261208
-0.003836222924292
-0.0092374626547098
-0.0145510118454694
-0.019497126340866
-0.0238374806940555
-0.0273944102227687
-0.0300595089793205
-0.0317927598953247
-0.0326139032840728
-0.0325898826122283
-0.0318223088979721
-0.0304358936846256
-0.0285670571029186
-0.0263530500233173
-0.0239225327968597
-0.0213866755366325
-0.0188315715640783
-0.0163153372704982
-0.0138704190030694
-0.0115075968205928
-0.0092196259647607
-0.0069866683334112
-0.0047840997576713
-0.002589251846075
-0.0003853030502796
0.0018364153802394
0.0040745195001363
0.006314898841083
0.0085289385169744
0.0106762908399105
0.0127110164612531
0.0145882684737443
0.0162707958370447
0.0177337937057018
0.0189675241708755
0.019978092983365
0.0207856222987175
0.0214201100170612
0.0219167917966842
0.0223116446286439
0.0226363055408
0.0229112841188907
0.023135557770729
0.0232721623033285
0.0232372842729091
0.0229044612497091
0.0221264865249395
0.0207676086574792
0.0187360886484384
0.0160086881369352
0.0126432487741112
0.0087786111980676
0.0046205455437302
0.0004147663712501
-0.0035856813192367
-0.0071496590971946
-0.0100891999900341
-0.0122724138200283
-0.0136300884187221
-0.0141581892967224
-0.0139140281826257
-0.0130034945905208
-0.0115629788488149
-0.0097422245889902
-0.0076905060559511
-0.0055441372096538
-0.0034168604761362
-0.0013973321765661
0.0004502423107624
0.0020885095000267
0.0035086534917354
0.0047266874462366
0.005777271464467
0.0067077036947011
0.0075711905956268
0.0084180003032088
0.0092855310067534
0.0101927444338798
0.011141637340188
0.0121227502822875
0.0131209753453731
0.0141188325360417
0.015098207630217
0.016044333577156
0.0169511046260595
0.0178223717957735
0.0186678618192672
0.019498411566019
0.0203230530023574
0.0211436003446578
0.0219413116574287
0.0226581543684005
0.0231851302087306
0.0233687981963157
0.0230350084602832
0.0220224782824516
0.0202186442911624
0.0175876766443252
0.0141831962391734
0.0101460143923759
0.0056883096694946
0.0010644760914146
-0.0034655928611755
-0.0076695336028933
-0.0113631011918187
-0.0144176594913005
-0.0167606249451637
-0.0183739587664604
-0.0192887112498283
-0.0195733178406953
-0.0193203724920749
-0.0186357200145721
-0.0176280625164508
-0.0163991525769233
-0.0150379976257681
-0.0136183938011527
-0.0121947852894663
-0.0107967173680663
-0.0094278799369931
-0.0080711580812931
-0.0066959308460354
-0.0052655879408121
-0.0037442110478878
-0.0021019596606492
-0.0003203963860869
0.0016036336310207
0.003658000845462
0.0058178203180432
0.0080483928322792
0.0103083802387118
0.0125533547252416
0.0147401094436645
0.0168302655220031
0.0187902357429265
0.0205898061394691
0.0222031977027654
0.0236105117946863
0.0247975662350654
0.0257562268525362
0.0264839585870504
0.0269784461706876
0.0272262096405029
0.027186132967472
0.026774214580655
0.0258617140352726
0.0242919772863388
0.0219102203845977
0.018598111346364
0.0143059073016047
0.0090732770040631
0.0030328091233968
-0.0036022001877427
-0.0105611160397529
-0.0175453200936317
-0.0242600031197071
-0.0304467901587486
-0.0359086990356445
-0.0405177623033523
-0.0442074947059154
-0.0469591468572616
-0.0487883761525154
-0.0497348085045814
-0.0498543828725814
-0.0492146536707878
-0.0478930994868278
-0.0459773689508438
-0.0435647778213024
-0.0407575331628322
-0.0376546159386634
-0.0343444645404815
-0.0309000723063945
-0.0273774359375238
-0.0238184388726949
-0.0202542021870613
-0.016705909743905
-0.0131868198513984
-0.009706862270832
-0.0062761139124631
-0.0029058647342026
0.0003904378972947
0.00359548907727
0.0066878776997327
0.009643499739468
0.0124369356781244
0.0150437438860535
0.0174440629780292
0.0196244865655899
0.0215755421668291
0.0232883915305137
0.0247573237866163
0.0259855240583419
0.026986775919795
0.0277842432260513
0.0284096244722604
0.0289001297205686
0.0292920134961605
0.0296136885881423
0.0298812910914421
0.0300935972481966
0.0302202366292476
0.030186615884304
0.0298669524490833
0.0290933307260274
0.0276805702596902
0.0254598651081323
0.0223143529146909
0.0182096995413303
0.0132109178230166
0.007481382228434
0.0012644939124584
-0.0051491255871951
-0.0114609636366367
-0.0174004547297954
-0.0227500051259994
-0.0273562520742416
-0.0311311222612857
-0.0340462923049926
-0.036120232194662
-0.0374018549919128
-0.0379595085978508
-0.037875834852457
-0.0372414328157901
-0.0361450314521789
-0.0346653386950492
-0.0328687578439712
-0.0308106485754251
-0.0285365525633096
-0.0260830596089363
-0.0234790965914726
-0.0207481086254119
-0.0179101675748825
-0.0149819897487759
-0.0119752483442425
-0.0088962130248546
-0.0057493993081152
-0.0025453106500208
0.0006933598779141
0.0039341282099485
0.0071430471725761
0.0102896858006715
0.0133456587791442
0.0162812694907188
0.0190650168806314
0.021665908396244
0.0240556020289659
0.0262102223932743
0.0281119532883167
0.0297479797154665
0.0311082433909177
0.0321829915046691
0.0329546891152858
0.0333819948136806
0.0333837829530239
0.0328350141644477
0.0315815694630146
0.0294710267335176
0.0263884235173463
0.0222878921777009
0.0172151401638984
0.0113153597339987
0.0048220064491033
-0.0019730969797819
-0.0087586045265197
-0.015238169580698
-0.021155972033739
-0.0263138152658939
-0.030577752739191
-0.0338753312826156
-0.0361893214285373
-0.0375501252710819
-0.0380262956023216
-0.0377147383987903
-0.0367300994694232
-0.035192884504795
-0.0332198664546012
-0.0309172999113798
-0.0283742379397153
-0.0256569273769855
-0.0228071045130491
-0.01984478905797
-0.016774296760559
-0.0135917915031313
-0.0102925486862659
-0.0068771298974752
-0.0033570323139429
0.0002413997426629
0.0038773342967033
0.0074996775947511
0.01105254329741
0.0144797479733824
0.017727818340063
0.020748320966959
0.0234998539090156
0.0259497035294771
0.0280745178461074
0.0298597458750009
0.0313006192445755
0.0324056074023246
0.0331968665122985
0.033702652901411
0.03394341096282
0.0339144840836524
0.0335692390799522
0.0328119397163391
0.0315056256949901
0.0294941365718841
0.0266377571970224
0.0228546671569347
0.0181530620902776
0.0126438410952687
0.0065314946696162
8.693167183082551e-05
-0.0063872467726469
-0.0125890970230102
-0.0182468555867671
-0.0231461878865957
-0.0271466169506311
-0.030180525034666
-0.0322409085929393
-0.0333672352135181
-0.0336333438754081
-0.0331375263631343
-0.0319936759769916
-0.0303235054016113
-0.0282490085810422
-0.0258851237595081
-0.0233358647674322
-0.0206927526742219
-0.018030697479844
-0.0154018504545092
-0.0128321982920169
-0.0103248534724116
-0.0078685702756047
-0.0054452698677778
-0.0030345134437084
-0.0006171083077788
0.0018218318000435
0.0042902259156107
0.0067858970724046
0.0092949848622083
0.0117940437048673
0.0142552321776747
0.0166532043367624
0.0189688131213188
0.0211872123181819
0.0232976619154214
0.0252968408167362
0.0271871350705623
0.0289683304727077
0.0306311622262001
0.0321585461497306
0.0335318259894847
0.03473512083292
0.0357544869184494
0.0365756340324878
0.0371846817433834
0.0375712849199771
0.0377300828695297
0.0376559719443321
0.037329576909542
0.0366971381008625
0.0356562696397304
0.0340566150844097
0.0317192040383815
0.0284714773297309
0.0241882316768169
0.0188279692083597
0.0124546186998486
0.0052376156672835
-0.0025670966133475
-0.0106477951630949
-0.0186744797974824
-0.0263369195163249
-0.0333745963871479
-0.0395941212773323
-0.0448731705546379
-0.0491517819464206
-0.0524168908596038
-0.0546871684491634
-0.0560023933649063
-0.0564177930355072
-0.0560004040598869
-0.0548259429633617
-0.0529770106077194
-0.0505421943962574
-0.0476144514977932
-0.0442875251173973
-0.040650401264429
-0.0367824546992778
-0.0327521152794361
-0.0286166090518236
-0.0244200397282838
-0.020192788913846
-0.0159537848085165
-0.0117140039801597
-0.0074815666303038
-0.0032684006728231
0.0009052897803485
0.0050103636458516
0.0090098502114415
0.0128620192408561
0.016525313258171
0.0199621003121137
0.0231401454657316
0.0260336697101593
0.0286251418292522
0.0309061147272586
0.0328753516077995
0.0345363728702068
0.0358978770673275
0.0369747765362262
0.0377839803695678
0.0383370816707611
0.0386387966573238
0.0386916995048522
0.0385018400847911
0.0380823723971843
0.0374504812061786
0.0366142615675926
0.0355552211403846
0.0342141948640346
0.0324864499270916
0.0302339643239974
0.0273147262632846
0.0236164852976799
0.0190858617424964
0.0137500567361712
0.0077239461243152
0.001198211684823
-0.0055837174877524
-0.0123525941744446
-0.0188418701291084
-0.0248136948794126
-0.0300793871283531
-0.0345116257667541
-0.0380442216992378
-0.0406615585088729
-0.0423847809433937
-0.0432593375444412
-0.0433466620743274
-0.0427208021283149
-0.0414671227335929
-0.0396812632679939
-0.0374682918190956
-0.0349392034113407
-0.0322034060955047
-0.0293603278696537
-0.0264920312911272
-0.0236580241471529
-0.0208939686417579
-0.0182141326367855
-0.0156166339293122
-0.0130891185253858
-0.0106125539168715
-0.0081648211926221
-0.0057259555906057
-0.0032829595729708
-0.0008321784553118
0.0016210904577746
0.0040652658790349
0.0064861346036195
0.0088700568303465
0.0112049933522939
0.0134797878563404
0.0156844649463892
0.017811270430684
0.0198535714298486
0.0218034628778696
0.0236511453986167
0.0253857523202896
0.0269957669079303
0.0284691452980041
0.0297939013689756
0.0309590548276901
0.0319552347064018
0.0327742137014865
0.0334080755710601
0.0338490903377532
0.0340889617800712
0.0341147407889366
0.0338982790708541
0.0333818197250366
0.0324698090553283
0.0310329869389534
0.0289235971868038
0.0260002501308918
0.0221593249589204
0.0173647310584783
0.0116666480898857
0.0052042305469512
-0.0018075965344905
-0.0091035077348351
-0.0163989961147308
-0.0234206225723028
-0.0299302283674478
-0.0357399620115757
-0.040716104209423
-0.0447735749185085
-0.0478674285113811
-0.0499865710735321
-0.0511506125330925
-0.0514075830578804
-0.0508308336138725
-0.0495140738785266
-0.0475634522736072
-0.0450889468193054
-0.0421986356377601
-0.0389949306845665
-0.035569816827774
-0.0320007503032684
-0.0283499844372272
-0.02466606721282
-0.0209858641028404
-0.01733666844666
-0.0137389143928885
-0.010209928266704
-0.0067669837735593
-0.0034285797737538
-0.0002145315520465
0.0028557155746966
0.0057659414596855
0.0085039418190717
0.0110602229833602
0.0134275872260332
0.0156022496521472
0.0175853781402111
0.0193828772753477
0.0210023317486047
0.0224503446370363
0.0237331353127956
0.0248588602989912
0.0258381739258766
0.0266819614917039
0.027398208156228
0.0279899500310421
0.0284551009535789
0.0287877786904573
0.0289813466370105
0.0290321875363588
0.0289401803165674
0.0287063457071781
0.0283321198076009
0.0278180204331874
0.0271564610302448
0.0263205226510763
0.0252547077834606
0.0238725878298282
0.0220641456544399
0.0197140648961067
0.0167292058467865
0.0130666764453053
0.0087528368458151
0.0038896761834621
-0.0013515455648303
-0.0067481636069715
-0.0120541732758283
-0.0170340258628129
-0.0214907638728618
-0.0252799242734909
-0.0283105671405792
-0.0305387489497661
-0.0319585464894771
-0.0325956754386425
-0.0325047448277473
-0.0317667126655578
-0.0304837431758642
-0.0287709552794694
-0.0267478358000516
-0.0245318245142698
-0.0222311839461326
-0.0199364740401506
-0.0177169051021337
-0.0156231485307216
-0.0136904334649443
-0.0119389276951551
-0.0103733893483877
-0.0089829042553901
-0.0077425241470336
-0.0066187614575028
-0.0055748936720192
-0.0045731561258435
-0.0035761876497417
-0.0025485681835561
-0.0014597170520573
-0.0002891225740313
0.0009720856323838
0.0023267304059118
0.0037763135042041
0.0053194528445601
0.0069496012292802
0.0086565148085355
0.0104300091043114
0.0122627597302198
0.0141494125127792
0.0160831715911626
0.0180532038211822
0.0200428869575262
0.0220287330448627
0.0239823795855045
0.0258740410208702
0.0276733990758657
0.0293502397835254
0.0308766979724168
0.032227624207735
0.0333798602223396
0.0343117341399192
0.034998245537281
0.0353999026119709
0.0354515276849269
0.0350611209869384
0.0341216474771499
0.0325287766754627
0.0301994644105434
0.0270903650671243
0.0232129469513893
0.0186405926942825
0.0135052567347884
0.0079845562577247
0.0022825449705123
-0.0033919904381036
-0.008846053853631
-0.0139171984046697
-0.0184792969375848
-0.0224419776350259
-0.0257492735981941
-0.0283784475177526
-0.0303375981748104
-0.0316619575023651
