bvp
-0.1031112894415855
-0.098640002310276
-0.094389259815216
-0.0903413221240043
-0.0864377170801162
-0.0825947672128677
-0.0787200853228569
-0.0747291147708892
-0.0705572292208671
-0.0661665499210357
-0.0615493059158325
-0.0567271560430526
-0.0517451874911785
-0.0466625951230526
-0.0415435656905174
-0.0364494621753692
-0.0314315184950828
-0.0265249498188495
-0.0217465851455926
-0.0170968957245349
-0.0125647820532321
-0.0081324018537998
-0.0037803314626216
0.0005037821829319
0.0047142654657363
0.0088207200169563
0.0127697475254535
0.0164926648139953
0.0199162121862173
0.0229761153459548
0.0256313774734735
0.0278730653226375
0.0297241676598787
0.0312341470271348
0.0324721559882164
0.0335187762975692
0.0344566255807876
0.0353633277118206
0.0363088920712471
0.0373540967702865
0.0385463908314704
0.0399147123098373
0.0414661094546318
0.043185893446207
0.0450405180454254
0.0469815731048584
0.0489525124430656
0.0508981272578239
0.0527717247605323
0.0545360781252384
0.0561612024903297
0.0576251409947872
0.0589178949594497
0.0600420981645584
0.0610086359083652
0.0618313550949096
0.0625226125121116
0.0630903840065002
0.0635381117463111
0.0638660416007042
0.0640731453895568
0.0641597509384155
0.0641287639737129
0.0639848709106445
0.0637344345450401
0.0633857697248458
0.0629464015364646
0.0624191313982009
0.0618015006184577
0.0610878951847553
0.0602709800004959
0.0593424551188945
0.0582946762442588
0.0571233071386814
0.0558290891349315
0.0544167160987854
0.0528911836445331
0.0512527078390121
0.0494909286499023
0.0475811623036861
0.0454865768551826
0.043166410177946
0.0405847020447254
0.0377150923013687
0.0345436073839664
0.0310722477734088
0.0273245554417371
0.0233513228595256
0.0192302465438842
0.0150577155873179
0.0109375929459929
0.0069712339900434
0.0032506105490028
-0.0001456150785088
-0.0031552002765238
-0.0057357805781066
-0.007867899723351
-0.0095565021038055
-0.0108301499858498
-0.0117377312853932
-0.0123425330966711
-0.0127135189250111
-0.0129167176783084
-0.0130110718309879
-0.0130470730364322
-0.0130645241588354
-0.0130911553278565
-0.0131429908797144
-0.0132249211892485
-0.0133317802101373
-0.0134499985724687
-0.0135611314326524
-0.01364859752357
-0.0137036088854074
-0.0137271024286746
-0.013728835619986
-0.0137249706313014
-0.0137348566204309
-0.0137768350541591
-0.0138651980087161
-0.0140106929466128
-0.0142212063074111
-0.0144997648894786
-0.0148423537611961
-0.0152375996112823
-0.0156681202352046
-0.0161132849752903
-0.016553234308958
-0.0169733464717865
-0.0173696856945753
-0.0177572332322597
-0.0181767102330923
-0.0186924580484628
-0.0193809326738119
-0.0203145518898963
-0.0215471219271421
-0.0231056995689868
-0.024987468495965
-0.0271591451019048
-0.0295596942305564
-0.0321065075695514
-0.0347035750746727
-0.0372494012117385
-0.039643071591854
-0.0417891032993793
-0.0436023585498333
-0.0450146049261093
-0.0459815114736557
-0.0464846491813659
-0.0465276874601841
-0.0461316294968128
-0.0453296415507793
-0.0441605225205421
-0.0426643714308738
-0.0408819019794464
-0.038854457437992
-0.0366230458021163
-0.0342269986867904
-0.0317034870386123
-0.0290885511785745
-0.0264181159436702
-0.0237264148890972
-0.0210424531251192
-0.0183879341930151
-0.0157784651964902
-0.0132268974557518
-0.0107448762282729
-0.0083403633907437
-0.006015820428729
-0.0037702713161706
-0.001601651776582
0.0004919110797345
0.0025100889615714
0.0044488264247775
0.0063009336590766
0.0080576483160257
0.0097095686942338
0.0112475622445344
0.0126637583598494
0.0139503711834549
0.0150974318385124
0.0160931777209043
0.0169270057231187
0.0175927747040987
0.0180922225117683
0.018436387181282
0.0186397563666105
0.0187085922807455
0.0186318382620811
0.018378397449851
0.017900189384818
0.0171407926827669
0.0160470306873321
0.01457982044667
0.0127226915210485
0.010486552491784
0.0079096956178545
0.0050553237088024
0.0020087314769625
-0.0011277425801381
-0.0042436798103153
-0.0072310441173613
-0.0099918227642774
-0.0124409655109047
-0.014507065527141
-0.0161331743001937
-0.0172782987356185
-0.0179206579923629
-0.0180607214570045
-0.0177195239812135
-0.0169344544410705
-0.0157559141516685
-0.0142415985465049
-0.0124492431059479
-0.0104331243783235
-0.0082443188875913
-0.0059316148981451
-0.0035416586324572
-0.0011185463517904
0.0012964727357029
0.0036670649424195
0.005966461263597
0.0081797884777188
0.0103012099862098
0.0123288985341787
0.0142606794834136
0.0160919744521379
0.0178173333406448
0.019433194771409
0.0209377780556678
0.0223295614123344
0.0236078705638647
0.0247738864272832
0.0258290618658065
0.0267718210816383
0.027596142143011
0.0282936114817857
0.0288565959781408
0.0292799267917871
0.0295593868941068
0.0296889841556549
0.029662400484085
0.0294765308499336
0.0291306488215923
0.0286223031580448
0.0279428269714117
0.0270733404904603
0.025984575971961
0.0246428232640028
0.0230172388255596
0.0210840068757534
0.0188307296484708
0.0162618570029735
0.0134004224091768
0.0102858962491154
0.0069717946462333
0.0035247369669377
2.3661646991968155e-05
-0.003443939378485
-0.0067892484366893
-0.0099285123869776
-0.0127867059782147
-0.0153004322201013
-0.0174205303192138
-0.0191147290170192
-0.0203701630234718
-0.0211931355297565
-0.0216048900038003
-0.0216363985091447
-0.0213265735656023
-0.0207229405641555
-0.0198793485760688
-0.0188504830002784
-0.0176873076707124
-0.016434421762824
-0.0151289645582437
-0.0138008631765842
-0.0124724870547652
-0.0111570712178945
-0.0098579712212085
-0.0085707949474453
-0.007287498563528
-0.0060000298544764
-0.0047032386064529
-0.0033970880322158
-0.002086910419166
-0.0007817299920134
0.0005075923399999
0.0017692920519039
0.0029910078737884
0.0041590807959437
0.0052580521441996
0.0062732072547078
0.0071943174116313
0.008016413077712
0.0087364250794053
0.0093465838581323
0.009826973080635
0.0101409507915377
0.0102368257939815
0.0100555075332522
0.0095407590270042
0.0086500979959964
0.0073640849441289
0.0056920745410025
0.0036742584779858
0.0013774558901786
-0.001114965416491
-0.0037124794907867
-0.0063239433802664
-0.0088630700483918
-0.0112518705427646
-0.0134224286302924
-0.0153182717040181
-0.0168939977884292
-0.0181136392056942
-0.0189506690949201
-0.0193910244852304
-0.0194378495216369
-0.0191134139895439
-0.018455134704709
-0.0175093673169612
-0.0163285620510578
-0.0149712897837162
-0.0134990541264414
-0.0119684105738997
-0.010424762032926
-0.008901298046112
-0.0074205053970217
-0.0059958305209875
-0.0046320757828652
-0.0033250337000936
-0.0020631442312151
-0.0008325402159243
0.0003765008877962
0.0015653397422283
0.0027279120404273
0.0038556379731744
0.004940680693835
0.0059759467840194
0.0069557409733533
0.0078774765133857
0.0087424237281084
0.0095551628619432
0.0103218266740441
0.0110483616590499
0.011739476583898
0.0123969595879316
0.0130180325359106
0.0135961100459098
0.0141230784356594
0.0145904850214719
0.0149903493002057
0.0153169250115752
0.0155668994411826
0.015736199915409
0.0158153343945741
0.0157848037779331
0.0156109798699617
0.0152437407523393
0.0146186547353863
0.0136648751795291
0.0123158739879727
0.0105215432122349
0.0082608498632907
0.0055501163005828
0.0024432968348264
-0.0009743920527398
-0.0045959553681313
-0.0083017470315098
-0.0119686443358659
-0.0154804959893226
-0.0187354311347007
-0.0216474924236536
-0.0241465494036674
-0.0261780731379985
-0.0277023371309041
-0.0286952257156372
-0.0291506145149469
-0.0290809478610754
-0.0285148750990629
-0.0274937935173511
-0.0260686073452234
-0.0242964588105678
-0.0222378484904766
-0.0199546031653881
-0.0175068881362676
-0.0149492304772138
-0.0123295774683356
-0.0096916332840919
-0.0070753274485468
-0.0045134713873267
-0.0020290911197662
0.0003635566681623
0.0026569804176688
0.0048492751084268
0.0069423457607626
0.0089388061314821
0.0108390394598245
0.0126403952017426
0.0143382977694273
0.0159277077764272
0.0174037404358387
0.0187611039727926
0.0199930202215909
0.0210909247398376
0.0220458824187517
0.0228507854044437
0.0235018581151962
0.0239991154521703
0.0243459641933441
0.0245491657406091
0.024619098752737
0.0245693586766719
0.0244163386523723
0.0241780672222375
0.0238711014389991
0.0235069561749696
0.0230886377394199
0.022607484832406
0.0220421347767114
0.0213596057146787
0.0205171313136816
0.0194637663662433
0.0181426256895065
0.0164970364421606
0.0144806718453764
0.0120682949200272
0.009264507330954
0.006106732878834
0.0026599005796015
-0.0009932592511177
-0.0047588031738996
-0.0085322894155979
-0.0122012514621019
-0.0156560391187667
-0.0188024993985891
-0.0215684045106172
-0.0239038914442062
-0.0257787462323904
-0.0271779410541057
-0.0280976425856351
-0.0285442043095827
-0.0285346880555152
-0.0280961021780967
-0.0272644907236099
-0.0260851010680198
-0.0246117040514946
-0.022903237491846
-0.0210189167410135
-0.0190155934542417
-0.0169479474425315
-0.0148675879463553
-0.0128200845792889
-0.0108409263193607
-0.0089502390474081
-0.0071499543264508
-0.0054276501759886
-0.0037635653279721
-0.0021359878592193
-0.0005264934152364
0.0010747453197836
0.0026677255518734
0.004245467018336
0.0057971170172095
0.0073102256283164
0.0087717855349183
0.0101674105972051
0.0114812655374407
0.012698071077466
0.0138049023225903
0.0147923761978745
0.0156553406268358
0.0163922812789678
0.0170047637075185
0.0174971334636211
0.0178753621876239
0.0181467998772859
0.0183205567300319
0.0184056106954813
0.0184096302837133
0.0183410178869962
0.018209334462881
0.0180223975330591
0.0177838951349258
0.0174935311079025
0.017148844897747
0.0167449209839105
0.0162686593830585
0.0156907066702842
0.0149623211473226
0.0140203740447759
0.0127974189817905
0.0112340245395898
0.0092911953106522
0.006958307698369
0.0042546056210994
0.0012261262163519
-0.002059587277472
-0.0055186916142702
-0.0090551925823092
-0.0125649347901344
-0.0159412678331136
-0.0190838370472192
-0.0219075474888086
-0.0243468545377254
-0.0263553448021411
-0.0279037058353424
-0.028978306800127
-0.0295810829848051
-0.0297295935451984
-0.0294557828456163
-0.0288028270006179
-0.0278207063674926
-0.0265627354383468
-0.025083577260375
-0.0234373826533556
-0.0216758511960506
-0.0198466703295707
-0.0179914776235818
-0.0161424186080694
-0.0143197244033217
-0.0125334858894348
-0.0107877291738986
-0.0090833995491266
-0.0074206115677952
-0.005800996441394
-0.0042284554801881
-0.0027074757963418
-0.0012412514770403
0.0001679968554526
0.0015178672038018
0.0028065589722245
0.0040343473665416
0.0052033453248441
0.0063162390142679
0.0073754116892814
0.0083821369335055
0.0093351388350129
0.010229735635221
0.0110584301874041
0.0118125025182962
0.0124848429113626
0.0130735356360673
0.0135836461558938
0.0140249961987137
0.0144067471846938
0.0147327147424221
0.0150014273822307
0.0152100576087832
0.0153572047129273
0.015442325733602
0.0154634490609169
0.0154161835089325
0.0152960261330008
0.0151019981130957
0.0148384924978017
0.0145143698900938
0.0141386669129133
0.013712914660573
0.0132234152406454
0.0126394666731357
0.0119177335873246
0.0110073005780577
0.0098547032102942
0.008412099443376
0.0066480115056037
0.0045559229329228
0.0021565658971667
-0.0005042143166065
-0.0033577587455511
-0.0063164317980408
-0.0092812124639749
-0.012150608934462
-0.0148281287401914
-0.0172274783253669
-0.019276151433587
-0.0209192372858524
-0.0221234429627656
-0.0228788256645202
-0.0231976639479398
-0.023112179711461
-0.0226707868278026
-0.0219310335814952
-0.0209512505680322
-0.0197857543826103
-0.018484815955162
-0.0170957744121551
-0.0156617294996976
-0.0142180537804961
-0.0127899879589676
-0.0113924946635961
-0.0100301587954163
-0.0086972415447235
-0.0073811830952763
-0.00606972258538
-0.0047574648633599
-0.0034474763087928
-0.0021467066835612
-0.0008600144647061
0.0004109560977667
0.0016652180347591
0.002901007188484
0.0041145300492644
0.0052969139069318
0.006433408241719
0.0075072608888149
0.0085034519433975
0.0094098318368196
0.0102190813049674
0.0109307747334241
0.0115500353276729
0.012085611000657
0.0125503279268741
0.0129604376852512
0.0133308302611112
0.0136690782383084
0.0139734959229826
0.0142360413447022
0.0144461775198578
0.0145926587283611
0.0146639700978994
0.0146496854722499
0.0145424539223313
0.0143388444557785
0.0140397269278764
0.0136506501585245
0.0131811648607254
0.0126431575044989
0.0120479669421911
0.0114020938053727
0.0107023129239678
0.0099320458248257
0.0090616196393966
0.0080531295388937
0.0068680504336953
0.005474760197103
0.0038545131683349
0.0020050671882927
-5.8653298765420914e-05
-0.0023050177842378
-0.0046863434836268
-0.007142623886466
-0.0096079604700207
-0.0120148593559861
-0.0142956962808966
-0.0163842812180519
-0.0182183366268873
-0.0197419561445713
-0.0209078453481197
-0.0216810461133718
-0.0220442786812782
-0.022001426666975
-0.021575890481472
-0.0208039935678243
-0.0197287797927856
-0.0183982495218515
-0.0168639216572046
-0.0151768326759338
-0.0133841093629598
-0.0115270232781767
-0.0096385795623064
-0.0077406144700944
-0.0058430698700249
-0.0039477292448282
-0.0020538193639367
-0.0001619164831936
0.0017235650448128
0.0035932664759457
0.0054332609288394
0.0072254789993166
0.0089485039934515
0.010579589754343
0.0120962169021368
0.0134754013270139
0.01469296682626
0.0157267767935991
0.0165622774511575
0.0171941258013248
0.0176233164966106
0.0178548581898212
0.0178984142839908
0.0177706610411405
0.0174964759498834
0.0171059593558311
0.016627911478281
0.0160853564739227
0.0154958665370941
0.0148718878626823
0.0142200710251927
0.0135434158146381
0.0128444079309701
0.0121263470500707
0.0113937556743621
0.0106522040441632
0.0099059697240591
0.0091538019478321
0.0083857998251914
0.0075821871869266
0.0067134266719222
0.0057431897148489
0.0046347910538315
0.0033580679446458
0.0018940418958663
0.0002392157912254
-0.0015899939462542
-0.0035570273175835
-0.0056097144261002
-0.0076848254539072
-0.0097119295969605
-0.0116189941763877
-0.013337998650968
-0.0148088037967681
-0.015983510762453
-0.0168310031294822
-0.0173390284180641
-0.0175147764384746
-0.0173843596130609
-0.0169892627745866
-0.0163799356669187
-0.0156081672757864
-0.0147199891507625
-0.0137529913336038
-0.012739947065711
-0.0117122707888484
-0.0106985531747341
-0.0097215669229626
-0.0087950080633163
-0.0079207718372344
-0.0070904111489653
-0.0062904432415962
-0.0055079734884202
-0.0047342232428491
-0.0039664823561906
-0.0032103636767715
-0.0024802302941679
-0.0017946111038327
-0.0011690477840602
-0.0006121965125203
-0.0001269499771296
0.0002876557409763
0.000635634176433
0.000922383274883
0.0011537480168044
0.0013369349762797
0.0014806981198489
0.0015942738391458
0.001686152536422
0.0017637247219681
0.0018352912738919
0.0019116546027362
0.0020023440010845
0.0021103541366755
0.0022327383048832
0.0023641204461455
0.0024978071451187
0.0026265843771398
0.0027449275366961
0.0028506782837212
0.0029444731771945
0.0030259410850703
0.0030883545987308
0.003115776926279
0.0030832067131996
0.0029571196064352
0.0026971120387315
0.0022602826356887
0.001606285572052
0.000702551100403
-0.0004699393175542
-0.0019140704534947
-0.0036182687617838
-0.0055576413869857
-0.0076920334249734
-0.0099635729566216
-0.0122970789670944
-0.0146053321659564
-0.0167980007827281
-0.0187895968556404
-0.0205039829015731
-0.0218774806708097
-0.0228623859584331
-0.0234297700226306
-0.0235712397843599
-0.0232998169958591
-0.0226483717560768
-0.0216666273772716
-0.0204175654798746
-0.0189697053283453
-0.0173868481069803
-0.0157216973602771
-0.0140144443139433
-0.0122940139845013
-0.0105807660147547
-0.0088892336934804
-0.0072304913774132
-0.0056133409962058
-0.0040422566235065
-0.0025147944688796
-0.0010233279317617
0.0004409868270158
0.0018858276307582
0.0033156108111143
0.004728902131319
0.0061178365722298
0.0074696252122521
0.0087682316079735
0.0099970633164048
0.0111426524817943
0.0121966814622282
0.0131564931944012
0.0140251098200678
0.0148101691156625
0.0155228525400161
0.0161770842969417
0.0167863480746746
0.0173587761819362
0.0178965013474226
0.0184003673493862
0.0188725739717483
0.0193139594048261
0.0197215173393487
0.0200896803289651
0.0204126462340354
0.0206861048936843
0.02090884745121
0.0210810061544179
0.0211967062205076
0.021236564964056
0.0211657043546438
0.0209369286894798
0.0204975213855505
0.019799705594778
0.0188115108758211
0.017521820962429
0.0159399565309286
0.0140953203663229
0.012037307024002
0.0098328795284032
0.0075615965761244
0.0053094578906893
0.0031636897474527
0.0012084888294339
-0.0004806742072105
-0.001844665966928
-0.0028480365872383
-0.0034831631928682
-0.0037690522149205
-0.003744482062757
-0.0034574642777442
-0.0029565468430519
-0.002287901006639
-0.0014957571402192
-0.0006233118474483
0.0002866154536604
0.0011923983693122
0.0020561534911394
0.0028465776704251
0.0035406341776251
0.004123683553189
0.004588508978486
0.0049344068393111
0.0051674074493348
0.0053005814552307
0.0053527574054896
0.0053467969410121
0.0053081708028912
0.0052620540373027
0.0052299383096396
0.005228160880506
0.0052679795771837
0.0053566200658679
0.0054985932074487
0.0056963274255394
0.0059514907188713
0.0062662689015269
0.0066417716443538
0.0070756785571575
0.0075605064630508
0.0080786868929862
0.0085945995524525
0.0090500358492136
0.0093665160238742
0.0094534279778599
0.0092204883694648
0.0085904784500598
0.0075094657950103
0.0059546558186411
0.003938571549952
0.0015095598064363
-0.0012504621408879
-0.0042323968373239
-0.0073098973371088
-0.0103505393490195
-0.0132269486784935
-0.0158263389021158
-0.0180574543774127
-0.0198552776128053
-0.0211846642196178
-0.0220419038087129
-0.0224515050649642
-0.0224589891731739
-0.0221225284039974
-0.0215058103203773
-0.0206730011850595
-0.0196846015751361
-0.0185942351818084
-0.0174471177160739
-0.0162786468863487
-0.0151119194924831
-0.0139557365328073
-0.0128053119406104
-0.0116447629407048
-0.010449388064444
-0.0091889509931206
-0.0078336205333471
-0.0063610863871872
-0.0047620180994272
-0.0030416431836783
-0.0012175077572464
0.0006840350106358
0.0026298977900296
0.00458081997931
0.0064934929832816
0.0083255069330334
0.010039972141385
0.0116062732413411
0.0129980659112334
0.0141935497522354
0.0151781346648931
0.0159445852041244
0.0164894238114357
0.0168074183166027
0.0168847944587469
0.0166923943907022
0.0161837637424469
0.0153024028986692
0.0139942867681384
0.012218602001667
0.0099556790664792
0.0072155185043811
0.0040451176464557
0.0005278773605823
-0.0032252306118607
-0.0070867133326828
-0.010923565365374
-0.0146095314994454
-0.0180353187024593
-0.021111549809575
-0.0237670876085758
-0.0259481612592935
-0.0276169255375862
-0.0287475623190403
-0.0293244402855634
-0.0293450132012367
-0.0288229659199714
-0.0277888365089893
-0.0262892618775367
-0.0243834815919399
-0.0221376158297061
-0.0196222998201847
-0.0169132780283689
-0.0140896504744887
-0.0112296557053923
-0.0084051545709371
-0.0056750690564513
-0.0030813368503004
-0.0006496005225926
0.0016075825551524
0.0036877333186566
0.0055965608917176
0.0073456550016999
0.0089486222714185
0.010417366400361
0.01176019012928
0.0129817761480808
0.0140843586996197
0.0150685384869575
0.0159328486770391
0.0166734494268894
0.0172848254442214
0.0177599899470806
0.0180902425199747
0.0182671751827001
0.0182875208556652
0.0181576088070869
0.0178944040089845
0.0175230652093887
0.0170724689960479
0.0165707487612962
0.0160434376448392
0.0155130317434668
0.0149966226890683
0.0145033691078424
0.0140323424711823
0.0135675724595785
0.0130731482058763
0.0124928224831819
0.0117535823956131
0.010772637091577
0.0094688162207603
0.0077758766710758
0.0056530102156102
0.0030911527574062
0.0001153210178017
-0.0032155448570847
-0.0068104630336165
-0.0105530628934502
-0.0143127813935279
-0.0179567709565162
-0.0213610436767339
-0.0244195163249969
-0.0270494557917118
-0.0291931256651878
-0.030815415084362
-0.0318989381194114
-0.0324398055672645
-0.0324456132948398
-0.0319351255893707
-0.0309388618916273
-0.029500002041459
-0.0276736095547676
-0.025522856041789
-0.0231147520244121
-0.0205171946436166
-0.0177946686744689
-0.0150025468319654
-0.0121855679899454
-0.0093817627057433
-0.0066252294927835
-0.0039439685642719
-0.0013573095202445
0.0011232271790504
0.0034916838631033
0.005746126640588
0.0078870020806789
0.0099155632779002
0.0118340020999312
0.0136458603665232
0.0153543930500745
0.0169603563845157
0.0184608772397041
0.0198488347232341
0.0211133807897567
0.0222428478300571
0.023228820413351
0.0240687280893325
0.0247661806643009
0.0253286063671112
0.0257600769400596
0.0260509811341762
0.026170440018177
0.0260652713477611
0.0256671663373708
0.0249066241085529
0.0237271394580602
0.0220946669578552
0.0200025644153356
0.0174734331667423
0.0145586766302585
0.0113366162404418
0.0079091852530837
0.0043963976204395
0.0009277748758904
-0.0023676864802837
-0.0053691389039158
-0.0079699577763676
-0.0100859636440873
-0.0116636790335178
-0.0126831671223044
-0.013153457082808
-0.0131050571799278
-0.0125851109623909
-0.0116536384448409
-0.0103787658736109
-0.0088333822786808
-0.0070929517969489
-0.0052321646362543
-0.0033208155073225
-0.0014204758917912
0.0004176515503786
0.0021539838053286
0.0037603718228638
0.005219280719757
0.0065243677236139
0.007680376060307
0.0086999088525772
0.0095997108146548
0.0103984996676445
0.0111146531999111
0.0117624206468462
0.0123489182442426
0.0128741394728422
0.0133323222398757
0.0137134445831179
0.0140051012858748
0.0141938738524913
0.0142663307487964
0.0142104066908359
0.0140177346765995
0.0136858690530061
0.0132161434739828
0.0126061122864484
0.011841369792819
0.0108917895704507
0.0097142066806554
0.0082586491480469
0.0064746178686618
0.0043197097256779
0.00177154969424
-0.0011630970984697
-0.0044454243034124
-0.0080050732940435
-0.011743064969778
-0.0155395921319723
-0.0192667506635189
-0.0228020288050174
-0.0260377526283264
-0.0288855917751789
-0.031278233975172
-0.0331696048378944
-0.0345338881015777
-0.0353646911680698
-0.0356755964457988
-0.0354993194341659
-0.0348829142749309
-0.0338808968663215
-0.0325485356152057
-0.0309364572167396
-0.0290886647999286
-0.027044516056776
-0.0248414818197488
-0.0225156359374523
-0.0201008953154087
-0.0176289062947034
-0.0151277454569935
-0.0126194953918457
-0.0101199429482221
-0.0076405974105
-0.0051919692195951
-0.0027870410121977
-0.0004422242054715
0.0018246959662064
0.003996682818979
0.0060581010766327
0.007995119318366
0.0097959451377391
0.0114504899829626
0.0129502397030591
0.0142887011170387
0.0154629508033394
0.016474861651659
0.0173298809677362
0.0180354919284582
0.0186009630560874
0.0190367121249437
0.0193538032472133
0.0195647273212671
0.0196836832910776
0.0197245515882968
0.0196965709328651
0.0196001231670379
0.0194267984479665
0.0191643089056015
0.0188021045178174
0.0183331444859504
0.0177502650767564
0.0170406475663185
0.0161840785294771
0.0151543263345956
0.0139190442860126
0.0124402875080704
0.0106807444244623
0.0086143324151635
0.0062362430617213
0.0035686641931533
0.0006608949042856
-0.0024155611172318
-0.0055753821507096
-0.0087270447984337
-0.0117772947996854
-0.0146346520632505
-0.0172139257192611
-0.0194406490772962
-0.0212527941912412
-0.0226019099354743
-0.0234574936330318
-0.0238112714141607
-0.0236772336065769
-0.0230894442647695
-0.0220992490649223
-0.0207706466317176
-0.0191746391355991
-0.0173843931406736
-0.0154712498188018
-0.0135016329586505
-0.0115343667566776
-0.0096169002354145
-0.0077821905724704
-0.0060497554950416
-0.0044293198734521
-0.0029235670808702
-0.0015294591430574
-0.000237870728597
0.0009669412393122
0.0021047359332442
0.003194423392415
0.0042506540194153
0.0052821510471403
0.0062895277515053
0.0072636445984244
0.008187735453248
0.0090424586087465
0.0098103927448391
0.0104799997061491
0.0110497809946537
0.0115297157317399
0.0119384620338678
0.012298172339797
0.0126296374946832
0.012948952615261
0.0132653722539544
0.0135821979492902
0.0138999074697494
0.0142169743776321
0.0145290065556764
0.0148283522576093
0.0151030467823147
0.0153372902423143
0.0155160231515765
0.0156295914202928
0.0156727470457553
0.015637444332242
0.0155054358765482
0.0152455363422632
0.0148136503994464
0.0141548234969377
0.013210155069828
0.0119277406483888
0.0102741457521915
0.0082432515919208
0.0058595812879502
0.0031763440929353
0.0002698181197047
-0.0027688168920576
-0.0058410805650055
-0.0088467905297875
-0.0116899199783802
-0.0142850102856755
-0.0165627058595418
-0.0184749402105808
-0.0199981722980737
-0.0211308263242244
-0.0218864642083644
-0.0222878158092498
-0.0223628729581832
-0.022142082452774
-0.0216564312577247
-0.0209357403218746
-0.0200072936713695
-0.0188965573906898
-0.0176290776580572
-0.0162297040224075
-0.0147204063832759
-0.013120443560183
-0.0114467069506645
-0.0097141833975911
-0.0079401405528187
-0.0061478889547288
-0.0043645859695971
-0.0026168485637754
-0.0009293805342167
0.000675480812788
0.0021794715430587
0.0035691105294972
0.0048354482278227
0.0059738778509199
0.006983227096498
0.0078652817755937
0.0086255967617034
0.0092738401144742
0.0098222931846976
0.0102825807407498
0.0106628546491265
0.0109683871269226
0.0112041439861059
0.0113750379532575
0.0114843975752592
0.0115355225279927
0.0115355839952826
0.0114958500489592
0.0114279026165604
0.0113405976444482
0.0112398518249392
0.0111294193193316
0.0110105881467461
0.0108817433938384
0.0107384687289595
0.0105719193816185
0.0103657888248562
0.010095352306962
0.009729073382914
0.0092311054468154
0.0085643446072936
0.0076950835064053
0.0065999529324471
0.0052715288475155
0.0037187240086495
0.0019628428854048
3.229733556509018e-05
-0.0020398194901645
-0.0042149354703724
-0.0064490041695535
-0.0086929053068161
-0.0108925718814134
-0.0129924193024635
-0.0149410953745245
-0.0166934058070182
-0.0182078760117292
-0.0194456838071346
-0.0203727595508098
-0.0209637749940156
-0.0212086495012044
-0.0211184713989496
-0.0207239426672458
-0.0200665835291147
-0.0191900730133056
-0.0181366167962551
-0.0169473383575677
-0.0156607329845428
-0.0143071701750159
-0.012907164171338
-0.0114762168377637
-0.0100298775359988
-0.008585057221353
-0.007158045656979
-0.0057616494596004
-0.004403515253216
-0.0030858078971505
-0.0018071290105581
-0.0005668820813298
0.00063102459535
0.0017781886272132
0.0028647286817431
0.0038827173411846
0.0048287147656083
0.0057046776637434
0.0065171369351446
0.0072763133794069
0.0079959277063608
0.008691637776792
0.0093770595267415
0.0100602628663182
0.0107432827353477
0.0114237070083618
0.0120957419276237
0.0127498432993888
0.0133729465305805
0.0139500657096505
0.0144663974642753
0.0149102844297885
0.0152752352878451
0.0155580677092075
0.0157566387206316
0.0158711932599544
0.0159059762954711
0.0158680416643619
0.0157647598534822
0.0156003311276435
0.0153701677918434
0.0150556927546858
0.0146237183362245
0.0140307145193219
0.0132300406694412
0.0121805500239133
0.0108537198975682
0.0092369802296161
0.0073350053280591
0.0051702708005905
0.0027812751941382
0.0002194792032241
-0.0024533127434551
-0.0051679965108633
-0.0078515773639082
-0.0104303825646638
-0.0128336502239108
-0.0149975791573524
-0.0168687254190444
-0.0184061173349618
-0.019582875072956
-0.0203867610543966
-0.020818542689085
-0.0208893194794654
-0.0206174049526453
-0.0200262665748596
-0.0191463083028793
-0.0180180110037326
-0.0166917275637388
-0.0152232823893427
-0.0136675555258989
-0.0120738483965396
-0.0104844132438302
-0.0089330663904547
-0.0074421423487365
-0.0060217822901904
-0.0046733850613236
-0.0033925734460353
-0.0021706698462367
-0.0009973533451557
0.0001363474875688
0.0012361481785774
0.0023040701635181
0.0033390182070434
0.004336989019066
0.0052918717265129
0.0061979964375495
0.007052541244775
0.0078549925237894
0.008603579364717
0.0092935133725404
0.0099203707650303
0.0104844402521848
0.0109917093068361
0.011452030390501
0.0118768597021698
0.0122783789411187
0.0126670002937316
0.0130449961870908
0.0134029993787407
0.0137234264984726
0.0139854494482278
0.0141683369874954
0.0142550086602568
0.0142347477376461
0.014101106673479
0.013845476321876
0.0134518928825855
0.0128962378948926
0.0121482517570257
0.0111748091876506
0.0099454205483198
0.008440819568932
0.0066608237102627
0.004626901820302
0.0023817068431526
-1.0936870239675043e-05
-0.0024674204178154
-0.0048898933455348
-0.0071743726730346
-0.009219117462635
-0.0109346834942698
-0.0122546516358852
-0.0131417494267225
-0.013588685542345
-0.0136171840131282
-0.0132753252983093
-0.0126307364553213
-0.0117588490247726
-0.010730936191976
-0.0096082724630832
-0.0084406984969973
-0.0072655580006539
-0.006108334288001
-0.0049855732358992
-0.0039080288261175
-0.0028828054200857
-0.001914519816637
-0.0010057328036054
-0.0001562449033372
0.0006371936178766
0.0013776384294033
0.0020644143223762
0.0026956247165799
0.0032734214328229
0.003803941886872
0.0042930282652378
0.0047448314726352
0.0051647974178195
0.0055630248971283
0.0059545971453189
0.0063569042831659
0.0067860269919037
0.0072538251988589
0.0077660921961069
0.0083207786083221
0.0089071635156869
0.0095081040635705
0.0101037062704563
0.0106735937297344
0.0111981742084026
0.0116598093882203
0.0120424777269363
0.0123288258910179
0.0124960597604513
0.012512688525021
0.012336429208517
0.0119131356477737
0.0111778602004051
0.010061465203762
0.0085044475272297
0.006471674889326
0.0039605489000678
0.0010028956457972
-0.0023352215066552
-0.0059560812078416
-0.009738054126501
-0.0135481934994459
-0.0172565728425979
-0.020747784525156
-0.0239275135099887
-0.0267252549529075
-0.0290938690304756
-0.0310074016451835
-0.0324587374925613
-0.0334563180804252
-0.034019336104393
-0.0341737046837806
-0.0339508205652236
-0.0333869867026805
-0.0325211845338344
-0.031392253935337
-0.0300363078713417
-0.028485182672739
-0.0267663486301898
-0.0249025952070951
-0.0229126419872045
-0.0208132807165384
-0.0186197683215141
-0.0163455978035926
-0.0140045937150716
-0.0116128763183951
-0.0091877793893218
-0.0067449016496539
-0.0042955903336405
-0.0018466310575604
0.0005971007049083
0.0030290111899375
0.005438310559839
0.0078079956583678
0.0101117361336946
0.0123106893151998
0.0143545335158705
0.0161892026662826
0.0177673734724521
0.0190565399825572
0.0200436543673276
0.020736139267683
0.0211581904441118
0.0213444102555513
0.0213352143764495
0.0211740583181381
0.0209032129496336
0.0205579474568367
0.0201594699174165
0.0197058022022247
0.019165176898241
0.0184785164892673
0.0175700932741165
0.0163617730140686
0.0147876041010022
0.0128073748201131
0.0104181850329041
0.0076603144407272
0.0046152980066835
0.0013986499980092
-0.0018513118848204
-0.0049874922260642
-0.0078682582825422
-0.0103687858209013
-0.0123869702219963
-0.0138467205688357
-0.0147023815661668
-0.0149411046877503
-0.0145805794745683
-0.01366519741714
-0.0122618563473224
-0.0104533769190311
-0.0083296671509742
-0.0059791672974824
-0.0034828018397092
-0.0009112162515521
0.001675259321928
0.0042245062068104
0.0066891061142086
0.0090237483382225
0.0111871510744094
0.0131466733291745
0.0148787107318639
0.0163656957447528
0.0175963621586561
0.0185695216059684
0.0192955508828163
0.0197931062430143
0.0200861189514398
0.0202044434845447
0.0201833806931972
0.020059548318386
0.0198669284582138
0.0196335036307573
0.0193764548748731
0.0190989710390567
0.0187924765050411
0.0184420086443424
0.0180302672088146
0.0175386220216751
0.0169438794255256
0.0162122808396816
0.0152979716658592
0.0141502227634191
0.0127244470641016
0.0109908720478415
0.0089401565492153
0.0065872245468199
0.0039731040596961
0.001163417706266
-0.0017579443519935
-0.0046981079503893
-0.0075623597949743
-0.0102590657770633
-0.0127057833597064
-0.0148343257606029
-0.016591751947999
-0.0179385617375373
-0.0188456606119871
-0.0192934721708297
-0.0192763395607471
-0.0188081730157136
-0.01792424172163
-0.0166791882365942
-0.015142005868256
-0.0133892018347978
-0.0114992400631308
-0.0095488335937261
-0.0076093496754765
-0.0057434225454926
-0.0040024234913289
-0.002423592377454
-0.0010267863981425
0.000186646124348
0.0012319430243223
0.0021370833273977
0.0029365480877459
0.0036629978567361
0.0043404065072536
0.0049810684286057
0.0055857198312878
0.0061449627391994
0.0066415262408554
0.0070549030788242
0.0073687797412276
0.0075777531601488
0.0076881884597241
0.0077133630402386
0.0076688835397362
0.0075715072453022
0.0074397744610905
0.0072947144508361
0.0071588521823287
0.0070526488125324
0.0069901878014206
0.0069762794300913
0.0070064570754766
0.0070698540657758
0.0071506602689623
0.007223879918456
0.0072471192106604
0.007153789512813
0.0068540163338184
0.0062460545450448
0.0052333828061819
0.0037398524582386
0.0017199199646711
-0.0008346997201442
-0.0038918200880289
-0.0073804771527647
-0.0111970975995063
-0.0152146127074956
-0.0192943792790174
-0.0232991334050893
-0.0271024033427238
-0.0305930450558662
-0.03367730230093
-0.0362804681062698
-0.0383484363555908
-0.0398480482399463
-0.0407666116952896
-0.0411106683313846
-0.0409023948013782
-0.0401748716831207
-0.038970548659563
-0.0373428799211978
-0.0353559628129005
-0.0330799706280231
-0.0305848028510808
-0.0279336348176002
-0.0251775495707988
-0.0223534386605024
-0.0194849912077188
-0.016584699973464
-0.0136562995612621
-0.0106972120702266
-0.0077015124261379
-0.0046655726619064
-0.0015960824675858
0.0014839922077953
0.0045356438495218
0.0075094951316714
0.010352324694395
0.0130107207223773
0.0154335033148527
0.017577389255166
0.0194149240851402
0.0209384225308895
0.0221578888595104
0.0230963919311761
0.0237851254642009
0.024259764701128
0.024559186771512
0.0247237049043178
0.0247907005250453
0.0247901137918233
0.0247418619692325
0.0246555134654045
0.0245327092707157
0.0243702009320259
0.0241611301898956
0.0238961540162563
0.0235659182071685
0.023162867873907
0.0226796064525842
0.0221024397760629
0.0214031767100095
0.0205358117818832
0.0194418355822563
0.0180623158812522
0.0163514260202646
0.0142874978482723
0.0118806241080164
0.0091749858111143
0.00624466734007
0.0031855485867708
0.0001061941147781
-0.0028812177479267
-0.0056695509701967
-0.0081641459837555
-0.0102875903248786
-0.0119829978793859
-0.0132169630378484
-0.0139801017940044
-0.0142847150564193
-0.0141606433317065
-0.0136500988155603
-0.012803815305233
-0.0116798980161547
-0.010342501103878
-0.0088571077212691
-0.0072855013422667
-0.005684811156243
-0.0041077733039855
-0.0026000295765697
-0.0011956475209444
8.606642950326204e-05
0.0012404592707753
0.0022749695926904
0.0032063440885394
0.0040570423007011
0.0048504243604838
0.0056062154471874
0.0063375253230333
0.0070493998937308
0.007736521307379
0.0083813518285751
0.0089579038321971
0.0094403000548481
0.009810134768486
0.0100593399256467
0.0101898498833179
0.0102119874209165
0.0101417787373065
0.0099974917247891
0.0097964899614453
0.0095533011481165
0.0092777507379651
0.0089710745960474
0.0086210444569587
0.0081987231969833
0.0076583214104175
0.0069404244422912
0.0059777786955237
0.0047036316245794
0.0030624866485595
0.001020529307425
-0.001426232047379
-0.0042464868165552
-0.0073733194731175
-0.0107102217152714
-0.014141141436994
-0.0175421312451362
-0.0207915715873241
-0.0237778052687644
-0.0264056213200092
-0.0286003686487674
-0.0303076617419719
-0.0314909815788269
-0.0321312844753265
-0.0322289615869522
-0.0318049117922782
-0.0308996178209781
-0.0295703373849391
-0.0278855711221694
-0.0259190332144498
-0.0237458236515522
-0.0214385706931352
-0.0190620366483926
-0.0166685543954372
-0.0142963314428925
-0.0119705870747566
-0.0097059551626443
-0.0075080837123095
-0.0053743151947855
-0.0032951436005532
-0.001256366726011
0.0007584751583635
0.0027649737894535
0.004775047302246
0.006794711574912
0.0088217528536915
0.010845324024558
0.012848044745624
0.0148077215999364
0.0166991539299488
0.0184971541166305
0.0201782137155532
0.0217211917042732
0.0231092944741249
0.0243311170488595
0.0253791324794292
0.0262491293251514
0.0269414372742176
0.0274601075798273
0.0278095230460166
0.0279917493462562
0.0280063971877098
0.0278521291911602
0.0275272130966186
0.0270274598151445
0.0263432208448648
0.0254568755626678
0.0243398807942867
0.0229511726647615
0.021241120994091
0.0191610213369131
0.0166733041405677
0.0137592237442731
0.0104248393326997
0.0067052920348942
0.0026667988859117
-0.0015939394943416
-0.0059554008767008
-0.0102819725871086
-0.0144355837255716
-0.0182856805622577
-0.0217166952788829
-0.0246326997876167
-0.0269596986472606
-0.0286468584090471
-0.029668578878045
-0.0300264209508895
-0.0297492649406194
-0.0288928337395191
-0.0275363288819789
-0.0257729012519121
-0.0236983709037303
-0.0214028526097536
-0.01896633207798
-0.0164588764309883
-0.0139422919601202
-0.0114695467054843
-0.0090821841731667
-0.0068078693002462
-0.0046611065044999
-0.0026466697454452
-0.0007625535363331
0.0009964159689843
0.0026338316965848
0.0041499277576804
0.0055433083325624
0.0068120658397674
0.0079531427472829
0.0089628752321004
0.0098387040197849
0.0105782318860292
0.011176380328834
0.0116265472024679
0.0119271175935864
0.0120866736397147
0.012122243642807
0.0120535045862197
0.0119001269340515
0.0116831669583916
0.0114240180701017
0.0111394375562667
0.0108385980129241
0.0105245029553771
0.0101979151368141
0.0098620224744081
0.0095248036086559
0.0091968467459082
0.0088876029476523
0.0086046103388071
0.0083549842238426
0.0081460457295179
0.0079847741872072
0.0078767221421003
0.0078246621415019
0.0078262593597173
0.0078695844858884
0.0079272165894508
0.007950410246849
0.0078670885413885
