bvp
0.0432989746332168
0.0435849726200103
0.0435046628117561
0.0431088730692863
0.0424307733774185
0.0414902195334434
0.0402979329228401
0.0388592779636383
0.0371797457337379
0.0352708362042903
0.0331535339355468
0.0308595653623342
0.0284301843494176
0.025912607088685
0.0233553033322095
0.0208012796938419
0.018278531730175
0.0157892927527427
0.0133019406348466
0.0107489600777626
0.0080328918993473
0.0050422400236129
0.0016759559512138
-0.0021311473101377
-0.0063916277140378
-0.0110621619969606
-0.0160495936870574
-0.0212199836969375
-0.0264125764369964
-0.0314594767987728
-0.0362032391130924
-0.040508683770895
-0.044271320104599
-0.0474215596914291
-0.0499230921268463
-0.0517667531967163
-0.0529640093445777
-0.0535440444946289
-0.0535532087087631
-0.0530526787042617
-0.052113227546215
-0.0508099980652332
-0.049219824373722
-0.0474183484911918
-0.0454741232097148
-0.0434422567486763
-0.041361279785633
-0.0392544008791446
-0.0371332392096519
-0.0350006520748138
-0.0328518003225326
-0.0306758508086204
-0.0284596905112266
-0.0261927843093872
-0.0238719247281551
-0.0215034205466508
-0.0191014315932989
-0.0166866928339004
-0.0142871597781777
-0.0119355134665966
-0.0096637234091758
-0.0074990317225456
-0.0054610893130302
-0.0035607013851404
-0.0018013147637248
-0.0001802975311875
0.0013113934546709
0.0026881340891122
0.0039651785045862
0.0051500350236892
0.0062292506918311
0.0071564391255378
0.0078490814194083
0.0081957373768091
0.0080739660188555
0.0073761763051152
0.0060350550338625
0.0040425769984722
0.0014578020200133
-0.0016008773818612
-0.0049748714081943
-0.0084862699732184
-0.0119548719376325
-0.0152122564613819
-0.0181144401431083
-0.0205502919852733
-0.0224446058273315
-0.0237571261823177
-0.0244760364294052
-0.0246090106666088
-0.0241786483675241
-0.0232217535376548
-0.0217891223728656
-0.0199451483786106
-0.017764825373888
-0.0153270522132515
-0.0127085838466882
-0.0099802864715456
-0.0072034755721688
-0.0044266944751143
-0.001684833317995
0.000999336130917
0.0036128209903836
0.0061515122652053
0.008620610460639
0.0110319480299949
0.0133959436789155
0.0157146286219358
0.0179819241166114
0.0201871935278177
0.022315390408039
0.0243458338081836
0.0262547302991151
0.0280191618949174
0.0296192541718482
0.0310397557914257
0.0322719141840934
0.0333151780068874
0.0341772809624671
0.0348719544708728
0.035414919257164
0.0358186438679695
0.0360893867909908
0.0362293943762779
0.0362400375306606
0.036123052239418
0.0358811989426612
0.0355147048830986
0.0350100770592689
0.0343279540538787
0.0333996377885341
0.0321342498064041
0.030434101819992
0.028216116130352
0.0254338774830102
0.0220919027924537
0.018247241154313
0.0139999082311987
0.0094782328233122
0.0048251436091959
0.0001875748857855
-0.0042930589988827
-0.0084914956241846
-0.0123070841655135
-0.0156649723649024
-0.0185118876397609
-0.0208122134208679
-0.0225475337356328
-0.0237191841006279
-0.0243486575782299
-0.024472901597619
-0.0241384897381067
-0.0233996957540512
-0.0223210137337446
-0.0209782347083091
-0.019451942294836
-0.0178163014352321
-0.0161308031529188
-0.014437822625041
-0.0127628929913043
-0.0111162364482879
-0.0094973742961883
-0.0079006412997841
-0.0063177174888551
-0.0047400640323758
-0.0031643328256905
-0.0015953138936311
-4.251627251505852e-05
0.0014839130453765
0.002972565125674
0.0044082514941692
0.0057720034383237
0.0070427954196929
0.0082000587135553
0.0092281159013509
0.0101202875375747
0.0108801396563649
0.0115203466266393
0.0120592918246984
0.0125156855210661
0.0129032870754599
0.0132285431027412
0.0134920636191964
0.0136919626966118
0.0138256233185529
0.0138875991106033
0.0138673512265086
0.0137524949386715
0.0135356616228818
0.0132180079817771
0.0128058809787034
0.0123035628348588
0.0117061138153076
0.0109922550618648
0.0101185608655214
0.0090213511139154
0.0076300296932458
0.0058867521584033
0.0037646163254976
0.001279842108488
-0.0015070028603076
-0.004503034055233
-0.0076008755713701
-0.010693491436541
-0.0136847216635942
-0.0164959803223609
-0.0190686881542205
-0.021362854167819
-0.0233517624437809
-0.0250154100358486
-0.0263374801725149
-0.0273059755563735
-0.0279157869517803
-0.0281722489744424
-0.0280918963253498
-0.0277002267539501
-0.0270307958126068
-0.0261258594691753
-0.0250361338257789
-0.0238167829811573
-0.0225195381790399
-0.0211855974048376
-0.0198419876396656
-0.0185012370347976
-0.0171644296497106
-0.0158261395990848
-0.0144780213013291
-0.0131102064624428
-0.0117140542715787
-0.0102868787944316
-0.0088335443288087
-0.0073635834269225
-0.0058883796446025
-0.0044212182983756
-0.0029785437509417
-0.0015804348513484
-0.0002499716356396
0.0009894147515296
0.0021190047264099
0.0031297644600272
0.0040238304063677
0.0048119402490556
0.0055083064362406
0.0061255423352122
0.0066728368401527
0.0071565257385373
0.0075811990536749
0.0079524833709001
0.0082795666530728
0.0085728485137224
0.0088380761444568
0.0090739894658327
0.0092764776200056
0.0094427727162837
0.0095685059204697
0.0096422359347343
0.0096452971920371
0.0095527106896042
0.0093305055052042
0.008935865946114
0.008324597030878
0.0074629033915698
0.0063398238271474
0.0049747680313885
0.0034148818813264
0.0017245011404156
-2.629868686199188e-05
-0.0017698453739285
-0.0034450753591954
-0.0049985721707344
-0.0063848383724689
-0.0075683239847421
-0.0085262693464756
-0.00924913585186
-0.0097387172281742
-0.0100069446489214
-0.0100747905671596
-0.00996854621917
-0.0097145158797502
-0.0093354675918817
-0.0088511016219854
-0.0082813426852226
-0.0076484647579491
-0.006976228673011
-0.0062869261018931
-0.0055972104892134
-0.004914860241115
-0.0042390208691358
-0.003563123056665
-0.0028776817489415
-0.0021723222453147
-0.0014384374953806
-0.0006726684514433
0.0001209855545312
0.0009325316641479
0.0017497767694294
0.002560495166108
0.0033511263318359
0.0041056466288864
0.004808091558516
0.0054464871063828
0.0060138585977256
0.0065070516429841
0.0069278287701308
0.0072853476740419
0.0075944964773952
0.0078697195276618
0.0081200096756219
0.0083492118865251
0.0085596945136785
0.0087550496682524
0.0089412927627563
0.0091262543573975
0.0093136876821517
0.0094940066337585
0.0096389446407556
0.0097033362835645
0.0096334889531135
0.0093782451003789
0.0088975327089428
0.0081702806055545
0.0072030676528811
0.0060324762016534
0.0047184284776449
0.0033344256225973
0.0019589704461395
0.0006677086930721
-0.0004745754413306
-0.00142154074274
-0.002150509506464
-0.002662468003109
-0.002976719290018
-0.0031237159855663
-0.0031379365827888
-0.0030513135716319
-0.0028904448263347
-0.0026781996712088
-0.0024351761676371
-0.0021779183298349
-0.0019158483482897
-0.0016518840566277
-0.0013863411732017
-0.0011178846471011
-0.0008410555310547
-0.0005458304658532
-0.0002216077409684
0.0001376024447381
0.0005308082327246
0.0009507504291832
0.0013861602637916
0.0018239861819893
0.0022506606765091
0.002653778064996
0.0030237757600843
0.0033528362400829
0.0036333859898149
0.0038613385986536
0.00404151994735
0.0041877790354192
0.0043175802566111
0.0044466806575655
0.0045852828770875
0.0047352979891002
0.0048905871808528
0.0050396681763231
0.0051684416830539
0.005262688267976
0.0053115328773856
0.0053101778030395
0.0052589895203709
0.0051613952964544
0.0050239171832799
0.0048566590994596
0.0046716379001736
0.0044805281795561
0.0042938292026519
0.0041169943287968
0.0039408728480339
0.0037336028181016
0.0034421700984239
0.003004721365869
0.0023676953278481
0.0015005347086116
0.0004036134923808
-0.0008923314744606
-0.0023327828384935
-0.0038479052018374
-0.0053614587523043
-0.0068000983446836
-0.0081019857898354
-0.0092220213264226
-0.0101323397830128
-0.0108206458389759
-0.011289432644844
-0.0115548195317387
-0.0116424756124615
-0.0115818521007895
-0.0113995149731636
-0.0111143719404935
-0.0107402447611093
-0.0102911069989204
-0.0097811771556735
-0.0092232534661889
-0.0086298398673534
-0.0080148121342062
-0.0073929112404584
-0.0067764744162559
-0.0061695072799921
-0.0055635953322052
-0.0049431337974965
-0.0042970036156475
-0.0036245272494852
-0.002932203002274
-0.0022274553775787
-0.0015147775411605
-0.0007961895316839
-7.461570203304291e-05
0.0006424994207918
0.001342290546745
0.0020101112313568
0.0026345984078943
0.003210028167814
0.0037357138935476
0.0042144889011979
0.0046515604481101
0.0050528426654636
0.0054229199886322
0.0057647735811769
0.0060812458395957
0.0063764424994587
0.0066555822268128
0.0069228298962116
0.007178520783782
0.0074181533418595
0.0076344311237335
0.0078205736353993
0.0079725105315446
0.0080892592668533
0.0081711569800972
0.0082185678184032
0.0082320347428321
0.0082073733210563
0.0081256087869405
0.0079480819404125
0.0076210210099816
0.0070870174095034
0.0063004158437252
0.0052409516647458
0.0039202803745865
0.0023804791271686
0.0006866534240543
-0.0010833512060344
-0.0028494303114712
-0.0045374305918812
-0.0060847392305731
-0.0074448017403483
-0.0085909459739923
-0.0095183094963431
-0.0102406535297632
-0.010781105607748
-0.0111624272540211
-0.0114013561978936
-0.011506974697113
-0.0114829875528812
-0.011332300491631
-0.0110608022660017
-0.0106787197291851
-0.0101998094469308
-0.0096401637420058
-0.0090167922899127
-0.0083454810082912
-0.0076393196359276
-0.0069075189530849
-0.0061543583869934
-0.005381166934967
-0.0045897532254457
-0.0037819640710949
-0.0029575619846582
-0.0021164398640394
-0.0012626098468899
-0.0004037031903862
0.0004527177661657
0.0013004429638385
0.0021336451172828
0.0029473500326275
0.0037376442924141
0.0045000705868005
0.0052298586815595
0.0059239263646304
0.0065815290436148
0.0072039109654724
0.0077929962426424
0.0083494037389755
0.0088722538203001
0.0093603730201721
0.0098132025450468
0.0102317221462726
0.0106185050681233
0.0109756626188755
0.0113022336736321
0.0115925129503011
0.0118365148082375
0.0120246158912777
0.0121548539027571
0.0122361248359084
0.0122823789715766
0.0123024070635437
0.0122930221259593
0.0122348880395293
0.0120879728347063
0.0117911379784345
0.0112707484513521
0.01045614015311
0.0092949904501438
0.007763507310301
0.005871539004147
0.0036641787737607
0.0012195107992738
-0.0013594175688922
-0.0039581842720508
-0.0064679505303502
-0.0088032586500048
-0.0109117859974503
-0.0127693563699722
-0.0143694533035159
-0.0157159976661205
-0.0168166905641555
-0.0176768451929092
-0.0182979367673397
-0.0186809282749891
-0.0188302248716354
-0.0187551230192184
-0.0184698700904846
-0.0179935917258262
-0.0173486098647117
-0.0165569949895143
-0.015638131648302
-0.0146100288257002
-0.0134918773546814
-0.0123029183596372
-0.0110596362501382
-0.0097756404429674
-0.0084623415023088
-0.0071291774511337
-0.0057843150570988
-0.0044339364394545
-0.0030801445245742
-0.0017211083322763
-0.000354403629899
0.0010191490873694
0.0023928713053464
0.0037541706115007
0.0050878366455435
0.0063788127154111
0.0076116053387522
0.0087692905217409
0.0098358234390616
0.0108019150793552
0.0116700399667024
0.0124540645629167
0.0131743485108017
0.0138516994193196
0.0145017933100461
0.0151320733129978
0.015743114054203
0.0163317136466503
0.0168920438736677
0.0174157153815031
0.0178925991058349
0.0183111894875764
0.018657948821783
0.0189177226275205
0.019073886796832
0.0191043466329574
0.0189759843051433
0.0186424776911735
0.0180444940924644
0.0171132795512676
0.0157818682491779
0.0140013508498668
0.0117551451548933
0.0090679302811622
0.0060096508823335
0.0026923483237624
-0.0007438384927809
-0.0041521796956658
-0.007399583235383
-0.0103803444653749
-0.0130222449079155
-0.0152836544439196
-0.0171442534774541
-0.0185978002846241
-0.0196500793099403
-0.0203165989369153
-0.0206198096275329
-0.0205897986888885
-0.020264882594347
-0.0196887608617544
-0.0189070850610733
-0.0179643630981445
-0.0169002190232276
-0.0157473199069499
-0.0145320203155279
-0.0132736545056104
-0.0119820889085531
-0.0106583796441555
-0.0092978337779641
-0.0078927734866738
-0.0064366571605205
-0.0049282433465123
-0.003372767008841
-0.0017816461622714
-0.0001718597486615
0.0014360239729285
0.003020079806447
0.0045590442605316
0.0060346056707203
0.0074318004772067
0.008738468401134
0.0099474536255002
0.0110587989911437
0.0120783951133489
0.0130150057375431
0.0138775818049907
0.0146736223250627
0.0154072660952806
0.0160734187811613
0.0166478063911199
0.0170771963894367
0.0172755923122167
0.0171326138079166
0.0165355317294597
0.0153959635645151
0.0136686190962791
0.0113592538982629
0.0085258232429623
0.0052734212949872
0.0017436437774449
-0.0018985546194016
-0.0054800566285848
-0.0088371727615594
-0.0118326246738433
-0.0143658686429262
-0.0163744948804378
-0.0178310945630073
-0.0187376495450735
-0.0191171877086162
-0.0190073121339082
-0.0184600558131933
-0.017544412985444
-0.0163435544818639
-0.014944851398468
-0.0134286005049943
-0.0118602495640516
-0.0102865770459175
-0.0087353214621543
-0.0072175441309809
-0.0057307705283164
-0.0042618559673428
-0.0027898782864212
-0.0012905467301607
0.0002568447962403
0.0018638409674167
0.0035335686989128
0.005264367442578
0.0070482157170772
0.0088647659868001
0.0106803877279162
0.0124547434970736
0.0141478739678859
0.0157236941158771
0.0171527042984962
0.0184161141514778
0.0195086635649204
0.020437229424715
0.0212168507277965
0.021867249161005
0.0224098972976207
0.0228649340569973
0.0232493095099926
0.0235757008194923
0.0238494779914617
0.0240645911544561
0.0242032725363969
0.024242203682661
0.0241624731570482
0.0239569079130888
0.0236285720020532
0.0231786090880632
0.0225890222936868
0.021809322759509
0.020751804113388
0.0192982833832502
0.0173197500407695
0.0147043988108634
0.0113868182525038
0.007369034923613
0.0027258535847067
-0.0024034064263105
-0.0078320261090993
-0.0133492117747664
-0.0187444034963846
-0.0238282456994056
-0.0284486599266529
-0.0324984230101108
-0.0359127335250377
-0.0386612713336944
-0.0407391265034675
-0.0421594008803367
-0.0429484620690345
-0.0431414470076561
-0.0427778623998165
-0.0419018864631652
-0.0405679941177368
-0.0388441607356071
-0.036807432770729
-0.034536313265562
-0.0321050360798835
-0.0295788347721099
-0.0270087197422981
-0.0244276896119117
-0.0218505300581455
-0.0192774906754493
-0.0167014990001916
-0.014115959405899
-0.011518070474267
-0.0089074689894914
-0.0062846578657627
-0.0036527691408991
-0.0010224459692835
0.0015845985617488
0.0041371001861989
0.0066003440879285
0.0089430660009384
0.0111415181308984
0.0131799774244427
0.0150499157607555
0.0167507007718086
0.0182906296104192
0.0196842066943645
0.0209464095532894
0.0220893528312444
0.0231216419488191
0.0240467675030231
0.0248629972338676
0.0255667325109243
0.0261559672653675
0.0266324710100889
0.0269992351531982
0.0272491499781608
0.0273503847420215
0.0272359549999237
0.0268006194382905
0.0259091928601264
0.0244191940873861
0.0222126934677362
0.0192251801490783
0.0154627580195665
0.0110078090801835
0.0060149924829602
0.0006957221776247
-0.0047102645039558
-0.0099687296897172
-0.0148770101368427
-0.0192770827561616
-0.023059656843543
-0.0261630341410636
-0.028566088527441
-0.030276495963335
-0.0313200131058692
-0.0317339226603508
-0.0315639898180961
-0.03086469322443
-0.0297011043876409
-0.0281486678868532
-0.0262883231043815
-0.0241991244256496
-0.0219531562179327
-0.0196141488850116
-0.0172362253069877
-0.0148605704307556
-0.0125124035403132
-0.0101998811587691
-0.0079155676066875
-0.0056416513398289
-0.0033579128794372
-0.0010495102033019
0.0012872184161096
0.0036421129480004
0.0059928335249423
0.0083092357963323
0.0105584803968667
0.0127099622040987
0.0147380083799362
0.0166225060820579
0.0183495115488767
0.0199115760624408
0.0213070884346961
0.0225389339029788
0.0236136559396982
0.0245416555553674
0.025336654856801
0.0260129384696483
0.0265819579362869
0.0270507037639617
0.0274220742285251
0.0276957731693983
0.0278699062764644
0.0279441569000482
0.0279209204018116
0.0278020519763231
0.0275852046906948
0.0272607132792472
0.026805467903614
0.0261738188564777
0.0252907834947109
0.0240540765225887
0.0223473869264125
0.0200611688196659
0.0171150583773851
0.0134782325476408
0.0091841351240873
0.0043343212455511
-0.0009101796895265
-0.0063480073586106
-0.0117645179852843
-0.0169591475278139
-0.0217640232294797
-0.0260526500642299
-0.0297407656908035
-0.0327810421586036
-0.035156063735485
-0.0368726961314678
-0.0379574820399284
-0.038452535867691
-0.0384128540754318
-0.0379052087664604
-0.0370058193802833
-0.0357947908341884
-0.0343486629426479
-0.0327334254980087
-0.0309997852891683
-0.0291816145181655
-0.0272968858480453
-0.0253498218953609
-0.023334439843893
-0.021239586174488
-0.019055126234889
-0.0167785324156284
-0.0144180757924914
-0.0119902612641453
-0.0095156384631991
-0.0070174243301153
-0.0045224544592201
-0.0020613255910575
0.0003345406148582
0.0026362887583673
0.0048172371461987
0.0068518626503646
0.0087191509082913
0.010407218709588
0.0119151826947927
0.0132536711171269
0.0144444163888692
0.0155169581994414
0.0165027193725109
0.0174294710159301
0.0183187499642372
0.0191846303641796
0.020031489431858
0.0208530128002166
0.0216350257396698
0.0223593302071094
0.023004500195384
0.0235467236489057
0.0239633601158857
0.0242330804467201
0.0243298299610614
0.0242143049836158
0.0238256137818098
0.0230775047093629
0.0218650437891483
0.0200831852853298
0.0176522321999073
0.0145415812730789
0.0107840523123741
0.0064772926270961
0.0017749946564435
-0.0031282547861337
-0.0080201402306556
-0.0126990173012018
-0.0169957410544157
-0.020782470703125
-0.0239727608859539
-0.0265176817774772
-0.028399758040905
-0.0296282768249511
-0.0302371345460414
-0.0302814319729805
-0.0298317000269889
-0.0289675369858741
-0.027771133929491
-0.0263212174177169
-0.0246880408376455
-0.0229304488748312
-0.0210957005620002
-0.0192189328372478
-0.01732087880373
-0.0154087077826261
-0.0134816449135541
-0.0115363309159874
-0.0095690228044986
-0.0075759915634989
-0.005553790833801
-0.0035015549510717
-0.0014251896645873
0.0006605406524613
0.0027332929894328
0.0047655920498073
0.0067284596152603
0.0085956379771232
0.010345434769988
0.0119606563821434
0.0134297227486968
0.0147489169612526
0.0159220676869153
0.0169573333114385
0.0178648829460144
0.0186548382043838
0.0193347055464983
0.019909830763936
0.0203859265893697
0.0207694396376609
0.0210667438805103
0.021283196285367
0.021417174488306
0.021447442471981
0.0213196724653244
0.0209400132298469
0.0201823823153972
0.0189103353768587
0.017007116228342
0.014406019821763
0.0111136157065629
0.0072177182883024
0.0028761811554431
-0.0017078192904591
-0.0063135828822851
-0.010726804845035
-0.0147584863007068
-0.0182591415941715
-0.0211259108036756
-0.0233031548559665
-0.0247812233865261
-0.0255929250270128
-0.0258041247725486
-0.025500439107418
-0.0247756540775299
-0.0237239934504032
-0.0224343817681074
-0.0209854952991008
-0.0194421540945768
-0.0178533643484115
-0.0162518937140703
-0.0146547500044107
-0.0130635164678096
-0.0114650931209325
-0.0098358178511261
-0.0081503158435225
-0.0063914628699421
-0.0045549878850579
-0.0026477170176804
-0.0006851362995803
0.0013099221978336
0.0033088340424001
0.0052784043364226
0.0071831285022199
0.0089892363175749
0.0106681995093822
0.0121990507468581
0.0135702490806579
0.0147808268666267
0.0158397816121578
0.0167635679244995
0.0175727549940347
0.0182877853512763
0.0189247783273458
0.0194938071072101
0.019999474287033
0.0204417817294597
0.0208163186907768
0.0211150720715522
0.0213280469179153
0.0214407723397016
0.0214248374104499
0.0212273150682449
0.0207657907158136
0.0199314467608928
0.0186037700623273
0.0166774783283472
0.0140913370996713
0.0108461920171976
0.0070096850395202
0.0027113859541714
-0.0018705585971474
-0.0065301735885441
-0.0110580027103424
-0.0152639131993055
-0.0189935248345136
-0.0221366435289382
-0.0246281437575817
-0.0264427978545427
-0.0275882184505462
-0.0280994717031717
-0.0280350223183631
-0.027471600100398
-0.02649687230587
-0.0252029225230216
-0.0236819107085466
-0.022019263356924
-0.0202850215137004
-0.0185297094285488
-0.016785442829132
-0.0150675233453512
-0.0133744701743125
-0.0116890929639339
-0.0099836038425564
-0.0082281054928898
-0.0063985912129282
-0.0044824206270277
-0.0024820449762046
-0.0004159705713391
0.0016839541494846
0.0037770238704979
0.0058186175301671
0.0077652293257415
0.0095792850479483
0.0112336166203022
0.012714291922748
0.0140211209654808
0.0151667781174182
0.0161742158234119
0.0170707050710916
0.0178800486028194
0.018616285175085
0.0192765519022941
0.0198307465761899
0.0202147252857685
0.0203330758959054
0.0200693346560001
0.0193026922643184
0.0179323516786098
0.0159039236605167
0.0132285123690962
0.0099890818819403
0.0063332160934805
0.0024553264956921
-0.001427651848644
-0.0051032416522502
-0.0083869053050875
-0.0111375171691179
-0.0132653648033738
-0.0147344255819916
-0.0155585398897528
-0.0157913789153099
-0.0155136454850435
-0.0148204956203699
-0.0138098057359457
-0.0125739518553018
-0.011196719482541
-0.0097511019557714
-0.0082949502393603
-0.0068670278415083
-0.0054858312942087
-0.0041513871401548
-0.0028488067910075
-0.0015526423230767
-0.0002340734936296
0.0011295774020254
0.0025493199937045
0.004025493748486
0.0055497726425528
0.0071047735400497
0.0086648324504494
0.0101997032761573
0.0116787683218717
0.0130738746374845
0.014360113069415
0.0155170066282153
0.0165324211120605
0.0174049288034439
0.0181411560624837
0.0187517888844013
0.0192493833601474
0.0196477435529232
0.0199620798230171
0.0202076379209756
0.0203946195542812
0.0205219369381666
0.0205743107944726
0.0205207522958517
0.0203091818839311
0.0198602378368377
0.0190681144595146
0.0178105644881725
0.0159672070294618
0.0134457722306251
0.0102094477042555
0.0062925675883889
0.0017998525872826
-0.0031049707904458
-0.0082156676799058
-0.0133051555603742
-0.0181526392698287
-0.0225695744156837
-0.026415703818202
-0.0296031981706619
-0.0320917218923568
-0.0338782891631126
-0.0349865108728408
-0.0354592576622962
-0.0353551544249057
-0.0347454100847244
-0.0337088853120803
-0.0323261097073555
-0.0306731630116701
-0.0288172308355569
-0.0268146023154258
-0.0247090868651866
-0.0225316137075424
-0.0203028116375207
-0.0180361680686473
-0.0157401915639638
-0.0134197510778903
-0.0110767018049955
-0.0087119583040475
-0.006329053081572
-0.0039363307878375
-0.0015470772050321
0.0008221864700317
0.0031536440365016
0.0054278476163744
0.0076241740025579
0.0097252670675516
0.0117202084511518
0.0136007368564605
0.01535489782691
0.0169669985771179
0.0184232238680124
0.0197159517556428
0.0208458397537469
0.0218227542936801
0.0226633921265602
0.023385414853692
0.0239999126642942
0.0245020985603332
0.0248607750982046
0.0250091012567281
0.0248410888016223
0.0242204628884792
0.0230034962296485
0.0210680086165666
0.018339566886425
0.0148111628368496
0.0105544319376349
0.0057175364345312
0.000507041811943
-0.0048404699191451
-0.0100885853171348
-0.0150268506258726
-0.0194870103150606
-0.0233477912843227
-0.0265310853719711
-0.0289941858500242
-0.0307218935340642
-0.0317208692431449
-0.0320175625383853
-0.0316587723791599
-0.0307110697031021
-0.0292560923844575
-0.0273830965161323
-0.0251833721995353
-0.0227472465485334
-0.0201588794589042
-0.017489057034254
-0.0147913582623004
-0.0121027287095785
-0.0094455583021044
-0.0068283705040812
-0.0042469333857297
-0.0016891025006771
0.0008589550852775
0.0034076180309057
0.0059583485126495
0.0084996409714221
0.0110087357461452
0.013456386514008
0.0158101022243499
0.0180386304855346
0.0201175324618816
0.0220307596027851
0.0237696301192045
0.025333072990179
0.0267278309911489
0.0279661566019058
0.0290597788989543
0.0300139263272285
0.0308288764208555
0.0315059348940849
0.0320479795336723
0.0324553027749061
0.0327234007418155
0.0328438393771648
0.0328040979802608
0.0325809456408023
0.0321282781660556
0.0313676074147224
0.0301887430250644
0.0284638665616512
0.0260718446224927
0.022925367578864
0.0189948379993438
0.0143238119781017
0.00903055164963
0.0032949708402156
-0.002663783263415
-0.0086129819974303
-0.0143304672092199
-0.0196240693330764
-0.0243439897894859
-0.0283853895962238
-0.0316828563809394
-0.0342045426368713
-0.0359497144818306
-0.0369459688663482
-0.03724355250597
-0.0369088649749755
-0.0360190011560916
-0.0346568599343299
-0.0329061672091484
-0.0308476313948631
-0.0285586509853601
-0.0261140838265419
-0.0235821362584829
-0.0210176538676023
-0.0184592418372631
-0.0159293860197067
-0.0134356776252388
-0.0109750805422663
-0.0085400752723217
-0.0061227683909237
-0.003716473467648
-0.0013176825596019
0.0010703864973038
0.0034355418756604
0.0057581081055104
0.0080151092261075
0.0101833352819085
0.0122394990175962
0.0141611900180578
0.0159300584346056
0.0175332762300968
0.0189626198261976
0.0202146675437688
0.0212920792400836
0.0222031604498624
0.0229596309363842
0.0235745590180158
0.0240614339709281
0.0244333818554878
0.0247017405927181
0.0248749610036611
0.0249571911990642
0.0249424278736114
0.0248029697686433
0.024476708844304
0.0238596517592668
0.0228117443621158
0.0211790017783641
0.0188249889761209
0.0156631655991077
0.0116825364530086
0.006958239711821
0.0016441978514194
-0.0040468955412507
-0.0098693836480379
-0.0155720543116331
-0.0209237355738878
-0.0257344655692577
-0.0298696607351303
-0.0332523137331008
-0.0358529835939407
-0.0376760363578796
-0.038749273866415
-0.0391183458268642
-0.0388444364070892
-0.0380021184682846
-0.0366760268807411
-0.0349564030766487
-0.0329330079257488
-0.0306891277432441
-0.0282974727451801
-0.025816535577178
-0.0232874695211648
-0.0207338277250528
-0.0181659739464521
-0.0155891124159097
-0.0130091682076454
-0.0104331970214843
-0.0078677460551261
-0.0053183720447123
-0.0027916552498936
-0.0002989340573549
0.002142512705177
0.0045125856995582
0.0067914528772234
0.0089599378407001
0.0110006751492619
0.0129013117402791
0.0146561078727245
0.0162650719285011
0.0177318397909402
0.0190603546798229
0.0202524475753307
0.0213083308190107
0.0222286619246006
0.0230153817683458
0.0236710254102945
0.0241997968405485
0.0246099065989255
0.0249127931892871
0.0251195449382066
0.0252370629459619
0.0252645388245582
0.0251879766583442
0.0249708220362663
0.0245443768799304
0.0238031670451164
0.0226118918508291
0.0208301432430744
0.0183479189872741
0.0151161095127463
0.0111625390127301
0.0065936092287302
0.0015842411667108
-0.0036425031721591
-0.0088426452130079
-0.0137791475281119
-0.0182449854910373
-0.0220786016434431
-0.0251713767647743
-0.0274685882031917
-0.0289669055491685
-0.029709693044424
-0.0297778826206922
-0.0292765740305185
-0.0283214151859283
-0.0270269401371479
-0.0254975073039531
-0.0238207131624221
-0.0220632646232843
-0.0202711373567581
-0.0184720810502767
-0.0166772846132516
-0.0148840621113777
-0.0130800064653158
-0.0112467147409915
-0.0093638869002461
-0.0074150403961539
-0.0053945290856063
-0.0033128010109066
-0.0011955137597396
0.0009222687222063
0.0030023236759006
0.005009377375245
0.006916010286659
0.0087030893191695
0.0103579945862293
0.0118752298876643
0.0132569372653961
0.0145100289955735
0.0156431216746568
0.0166654046624898
0.0175850838422775
0.0184070095419883
0.0191321447491645
0.0197601187974214
0.0202917661517858
0.0207252874970436
0.0210434012115001
0.0211978200823068
0.0211008060723543
0.0206299908459186
0.0196488443762063
0.0180370900779962
0.0157184265553951
0.0126785682514309
0.0089732790365815
0.004725843667984
0.0001141452230513
-0.0046488083899021
-0.0093385744839906
-0.0137460688129067
-0.0177004560828208
-0.0210806988179683
-0.0238147489726543
-0.0258708633482456
-0.0272479634732007
-0.027967857196927
-0.0280685797333717
-0.02760093472898
-0.0266290605068206
-0.0252308528870344
-0.0234940033406019
-0.021507978439331
-0.0193554107099771
-0.0171063598245382
-0.0148171512410044
-0.0125308912247419
-0.0102757588028907
-0.0080640278756618
-0.0058964057825505
-0.0037692617624998
-0.0016787890344858
0.000379582401365
0.0024116463027894
0.0044209221377968
0.0064044869504868
0.0083525460213422
0.0102504119277
0.012080643326044
0.013826766051352
0.0154762528836727
0.0170177575200796
0.0184370465576648
0.0197187308222055
0.0208505447953939
0.0218257047235965
0.0226445589214563
0.0233148597180843
0.0238489583134651
0.0242601912468671
0.0245611406862735
0.024762887507677
0.024873424321413
0.0248957090079784
0.0248240306973457
0.0246347300708293
0.0242734141647815
0.0236465111374855
0.0226248186081647
0.0210638884454965
0.0188365057110786
0.0158651210367679
0.0121445097029209
0.0077491626143455
0.0028252163901925
-0.0024282322265207
-0.0077834697440266
-0.0130111230537295
-0.0179050881415605
-0.0222996287047863
-0.0260770730674266
-0.0291670262813568
-0.0315396673977375
-0.0331981554627418
-0.0341712534427642
-0.0345056876540184
-0.0342611782252788
-0.0335072763264179
-0.032317578792572
-0.0307632982730865
-0.0289115495979785
-0.0268276836723089
-0.0245759077370166
-0.0222150534391403
-0.0197928752750158
-0.0173442848026752
-0.0148928416892886
-0.0124505804851651
-0.0100163305178284
-0.0075772581622004
-0.0051147369667887
-0.0026101814582943
-4.921527579426765e-05
0.0025725529994815
0.0052424045279622
0.0079270415008068
0.0105752004310488
0.0131239462643861
0.0155064575374126
0.0176608301699161
0.0195373147726058
0.0211011096835136
0.0223331283777952
0.0232332199811935
0.0238235685974359
0.0241447165608406
0.0242443531751632
0.0241675097495317
0.0239527653902769
0.0236334074288606
0.0232403688132762
0.0228024069219827
0.0223434623330831
0.0218796916306018
0.0214156992733478
0.0209393315017223
0.020413976162672
0.0197702720761299
0.0189039669930934
0.0176851172000169
0.0159793067723512
0.013674602843821
0.0107058761641383
0.0070740012452006
0.0028557842597365
-0.001802640967071
-0.0067076203413307
-0.0116452947258949
-0.0164073314517736
-0.0208127498626709
-0.024722134694457
-0.0280412267893552
-0.0307163093239069
-0.0327256210148334
-0.034070324152708
-0.0347679033875465
-0.0348496660590171
-0.0343621373176574
-0.0333687514066696
-0.0319479890167713
-0.0301876943558454
-0.0281779076904058
-0.0260036643594503
-0.0237377174198627
-0.021434411406517
-0.0191274378448724
-0.0168317519128322
-0.0145478220656514
-0.0122674759477376
-0.0099803833290934
-0.0076791951432824
-0.0053619449026882
-0.0030325027182698
-0.0007016318850219
0.0016116234473884
0.0038810353726148
0.0060766995884478
0.008169456385076
0.0101355770602822
0.0119601674377918
0.0136372279375791
0.0151670090854167
0.0165545213967561
0.0178097561001777
0.0189456827938556
0.0199738256633281
0.0209021978080272
0.0217374712228775
0.0224872156977653
0.0231570303440094
0.0237447302788496
0.0242390669882297
0.0246241781860589
0.0248849783092737
0.0250109583139419
0.0249975007027387
0.0248409993946552
0.0245268903672695
0.0240168664604425
0.0232414621859788
0.0221018996089696
0.0204858370125293
0.0182942021638155
0.0154680302366614
0.0120083671063184
0.0079849306493997
0.0035292948596179
-0.0011833822354674
-0.0059566078707575
-0.0105947898700833
-0.0149219967424869
-0.0187946930527687
-0.0221081599593162
-0.0247964020818471
-0.0268272086977958
-0.0281970668584108
-0.0289276409894227
-0.0290629640221595
-0.0286674536764621
-0.0278217419981956
-0.0266146268695592
-0.0251354947686195
-0.0234689526259899
-0.021689087152481
-0.0198542196303606
-0.0180057175457477
-0.0161694511771202
-0.0143556371331214
-0.0125590162351727
-0.0107644964009523
-0.0089560877531766
-0.0071232318878173
-0.005263412836939
-0.0033818059600889
-0.0014879344962537
0.0004083341918885
0.002297977451235
0.004170449450612
0.0060104946605861
0.0077967783436179
0.0095030479133129
0.0111028756946325
0.0125760026276111
0.0139106698334217
0.0151013396680355
0.016146620735526
0.0170503016561269
0.0178234428167343
0.0184831451624631
0.0190475564450025
0.0195303782820701
0.0199353918433189
0.0202484875917434
0.0204257685691118
0.0203842353075742
0.0200072489678859
0.0191649310290813
0.0177392978221178
0.0156494062393903
0.0128736048936843
0.0094614969566464
0.0055308602750301
0.0012526558712124
-0.0031705850269645
-0.0075293164700269
-0.0116300741210579
-0.015312542207539
-0.0184580665081739
-0.0209909249097108
-0.0228773355484008
-0.0241232849657535
-0.0247667524963617
-0.0248657930642366
-0.0244892202317714
-0.0237106159329414
-0.0226032808423042
-0.0212366860359907
-0.0196746084839105
-0.0179734267294406
-0.0161801297217607
-0.0143305901437997
-0.012449337169528
-0.0105505902320146
-0.008638922125101
-0.0067103207111358
-0.0047565610148012
-0.002772485371679
-0.0007612435147166
0.0012653139419853
0.0032889847643673
0.0052883429452776
0.0072412444278597
0.0091249663382768
0.0109164230525493
0.0125960409641265
0.0141517519950866
0.0155776813626289
0.0168699249625206
0.0180260017514228
0.0190479904413223
0.0199430547654628
0.0207195933908224
0.0213829111307859
0.0219334065914154
0.0223684385418891
0.0226867757737636
0.0228917934000492
0.0229907613247632
0.0229909345507621
0.0228926725685596
0.0226792655885219
0.0223063323646783
0.0216962359845638
0.0207415148615837
0.0193189792335033
0.0173139963299036
0.0146487522870302
0.0113044902682304
0.0073323426768183
0.0028514298610389
-0.0019647176377475
-0.0069095883518457
-0.0117707345634698
-0.0163567420095205
-0.0205141063779592
-0.0241329539567232
-0.02714654058218
-0.0295254159718751
-0.0312680527567863
-0.0323916003108024
-0.0329246744513511
-0.0329040959477424
-0.0323752611875534
-0.0313937440514564
-0.0300259385257959
-0.0283460207283496
-0.0264301132410764
-0.0243498738855123
-0.0221668388694524
-0.0199300553649663
-0.0176757220178842
-0.0154262678697705
-0.0131901316344738
-0.0109641626477241
-0.0087387636303901
-0.0065041929483413
-0.0042554377578198
-0.0019938512705266
0.0002738237380981
0.0025355303660035
0.0047719702124595
0.0069575677625834
0.0090659968554973
0.0110745821148157
0.0129646258428692
0.0147199276834726
0.0163257420063018
0.0177696552127599
0.0190445948392152
0.0201515965163707
0.0210989639163017
0.0218987315893173
0.0225641783326864
0.0231087263673543
0.0235448852181434
0.0238822139799594
0.0241248086094856
0.0242717117071151
0.0243190266191959
0.0242565665394067
0.0240562967956066
0.0236597992479801
0.0229753721505403
0.021887544542551
0.0202756393700838
0.0180403478443622
0.0151328342035412
0.0115730622783303
0.007451927755028
0.0029232953675091
-0.0018128785304725
-0.006539930589497
-0.011057642288506
-0.0152037050575017
-0.0188601128756999
-0.0219508036971092
-0.0244361367076635
-0.0263057239353656
-0.0275698658078908
-0.0282519347965717
-0.0283846408128738
-0.0280115008354187
-0.0271898675709962
-0.0259902589023113
-0.0244918279349803
-0.0227755177766084
-0.0209156982600688
-0.0189743861556053
-0.0170008093118667
-0.0150320790708065
-0.0130924051627516
-0.0111925350502133
-0.0093299113214015
-0.0074921362102031
-0.0056641013361513
-0.0038337162695825
-0.0019952803850173
-0.0001520849764347
0.0016847888473421
0.003501049708575
0.005281837657094
0.0070133549161255
0.0086845643818378
0.010285036638379
0.0118011068552732
0.0132165607064962
0.0145172886550426
0.0156941451132297
0.0167430788278579
0.017665596678853
0.018467852845788
0.0191567838191986
0.0197359919548034
0.0202012788504362
0.0205334722995758
0.0206899624317884
0.0205991975963115
0.0201631188392639
0.0192711427807807
0.0178211890161037
0.0157410595566034
0.0130083281546831
0.0096637476235628
0.005812894552946
0.0016163231339305
-0.0027302380185574
-0.0070218462496995
-0.0110685620456933
-0.0147114414721727
-0.0178297162055969
-0.0203427821397781
-0.0222099032253026
-0.0234267245978117
-0.0240168422460556
-0.0240224562585353
-0.0235005356371402
-0.0225229300558567
-0.0211747419089078
-0.0195489898324012
-0.0177375525236129
-0.015821486711502
-0.0138654913753271
-0.0119163170456886
-0.0100019359961152
-0.0081320358440279
-0.0063015650957822
-0.0044953431934118
-0.0026928819715976
-0.0008743815124034
0.0009738570079207
0.002856004750356
0.0047647571191191
0.0066809309646487
0.0085755856707692
0.0104142222553491
0.012160257436335
0.0137786418199539
0.0152427079156041
0.0165407247841358
0.017677042633295
0.0186676178127527
0.0195320509374141
0.0202863831073045
0.0209406539797782
0.0215007849037647
0.0219719633460044
0.0223595071583986
0.0226643346250057
0.0228792279958724
0.0229926072061061
0.0229914747178554
0.0228529796004295
0.0225300602614879
0.0219430923461914
0.0209834575653076
0.0195310991257429
0.0174825377762317
0.0147780105471611
0.011419384740293
0.0074763447046279
0.0030794665217399
-0.0015967022627592
-0.0063555920496582
-0.0110038304701447
-0.0153735112398862
-0.0193342808634042
-0.022797243669629
-0.0257129184901714
-0.0280629601329565
-0.0298496279865503
-0.0310868900269269
-0.0317947119474411
-0.0319963097572326
-0.0317176133394241
-0.0309906713664531
-0.0298600122332572
-0.028385154902935
-0.0266356822103261
-0.0246832892298698
-0.0225964710116386
-0.0204384736716747
-0.0182638466358184
-0.0161119699478149
-0.0140030663460493
-0.0119404960423707
-0.0099173560738563
-0.0079229967668652
-0.0059463833458721
-0.003977068234235
-0.0020072481129318
-3.6133104003965855e-05
0.0019273341167718
0.0038665942847728
0.0057612615637481
0.0075881383381783
0.0093209510669112
0.0109327901154756
0.0124006913974881
0.0137101151049137
0.0148577624931931
0.0158507972955703
0.0167029239237308
0.0174299608916044
0.0180467944592237
0.018565671518445
0.0189960096031427
0.0193457752466201
0.0196209754794836
0.0198225025087595
0.019944280385971
0.0199697371572256
0.0198607388883829
0.0195459686219692
0.0189225878566503
0.0178735964000225
0.0162929911166429
0.0141114825382828
0.0113163590431213
