bvp
0.0405956953763961
0.0379422716796398
0.0352850519120693
0.032638382166624
0.0300034210085868
0.0273728817701339
0.0247278548777103
0.0220249779522418
0.0191839057952165
0.0160874929279088
0.0125964470207691
0.0085735283792018
0.0039119217544794
-0.0014396961778402
-0.0074620228260755
-0.0140614435076713
-0.0210779011249542
-0.0283051058650016
-0.0355184003710746
-0.0425015725195407
-0.0490675568580627
-0.0550691075623035
-0.0603981018066406
-0.0649800598621368
-0.068768672645092
-0.0717390999197959
-0.0738821104168891
-0.0752026587724685
-0.0757210850715637
-0.0754747539758682
-0.0745200961828231
-0.0729321539402008
-0.0707993656396865
-0.0682169795036315
-0.065281443297863
-0.0620838664472103
-0.0587032474577426
-0.0552025362849235
-0.0516265630722045
-0.0480008497834205
-0.0443354025483131
-0.0406338311731815
-0.036900445818901
-0.0331415832042694
-0.029364388436079
-0.0255755297839641
-0.0217806175351142
-0.0179863255470991
-0.0142044620588421
-0.0104551147669553
-0.0067673306912183
-0.0031762847211211
0.0002822908572852
0.0035772873088717
0.0066841123625636
0.0095840310677886
0.012265395373106
0.0147265242412686
0.0169752016663551
0.0190248005092144
0.0208912473171949
0.0225915107876062
0.0241411551833152
0.0255518890917301
0.0268321484327316
0.0279881842434406
0.0290217064321041
0.0299266315996646
0.0306858848780393
0.0312637872993946
0.0315955616533756
0.0315828211605548
0.031100682914257
0.0300150364637374
0.0282068438827991
0.0255998130887746
0.0221815053373575
0.0180102623999118
0.0132108805701136
0.0079611735418438
0.0024709245190024
-0.0030412664636969
-0.0083704609423875
-0.0133441733196377
-0.0178313702344894
-0.021740710362792
-0.0250125974416732
-0.0276097133755683
-0.0295101273804903
-0.0307050049304962
-0.0311998780816793
-0.0310165099799633
-0.030193394050002
-0.0287866406142711
-0.0268711484968662
-0.0245374348014593
-0.0218823663890361
-0.0189992785453796
-0.0159726552665233
-0.0128749692812561
-0.0097628561779856
-0.0066752508282661
-0.0036346931010484
-0.0006507895886898
0.0022755544632673
0.0051504150032997
0.0079860733821988
0.0107949702069163
0.0135801434516906
0.0163310095667839
0.0190261024981737
0.021636389195919
0.0241280663758516
0.0264672692865133
0.0286237411201
0.0305720288306474
0.0322925001382827
0.0337721146643161
0.0350056737661361
0.0359990149736404
0.0367703326046466
0.0373458676040172
0.0377535708248615
0.0380182191729545
0.0381574444472789
0.0381792970001697
0.0380830280482769
0.0378640741109848
0.03752002120018
0.0370517522096633
0.0364604666829109
0.0357460789382457
0.0349077135324478
0.0339439548552036
0.0328516885638237
0.0316208153963089
0.0302231796085834
0.0286001805216074
0.0266574937850236
0.0242740288376808
0.0213253051042556
0.0177139416337013
0.0133968479931354
0.0083991279825568
0.0028120931237936
-0.0032196640968322
-0.0095153404399752
-0.0158755704760551
-0.0221019331365823
-0.0280162021517753
-0.0334715992212295
-0.0383545979857444
-0.0425826907157897
-0.0461004525423049
-0.0488738566637039
-0.0508853122591972
-0.0521313399076461
-0.0526227429509162
-0.0523869805037975
-0.0514695793390274
-0.0499302335083484
-0.0478368550539016
-0.0452634990215301
-0.0422906689345836
-0.0390039905905723
-0.0354920327663421
-0.0318456143140792
-0.0281580723822116
-0.0245235171169042
-0.0210315249860286
-0.0177607499063015
-0.0147743886336684
-0.0121159283444285
-0.0098031004890799
-0.0078226784244179
-0.0061298012733459
-0.0046518975868821
-0.0032957433722913
-0.0019579757936298
-0.0005383612588047
0.001047138357535
0.0028554862365126
0.0049098366871476
0.0071992496959865
0.0096856541931629
0.012315621599555
0.0150308459997177
0.0177734699100255
0.0204881057143211
0.0231224801391363
0.0256256535649299
0.0279454663395881
0.0300290938466787
0.0318250246345996
0.0332847125828266
0.0343673937022686
0.0350480712950229
0.0353234708309173
0.0352122820913791
0.0347514115273952
0.0339919999241828
0.0329944528639316
0.0318173877894878
0.0304982513189315
0.0290333647280931
0.0273698456585407
0.0254146866500377
0.0230564251542091
0.0201914086937904
0.0167482402175664
0.0127069782465696
0.0081096431240439
0.003058211877942
-0.0022986382246017
-0.007784130051732
-0.0132130617275834
-0.0184109695255756
-0.0232299640774726
-0.0275573953986167
-0.0313176363706588
-0.0344692170619964
-0.0369974076747894
-0.0389044508337974
-0.040201649069786
-0.0409064814448356
-0.0410460904240608
-0.0406630262732505
-0.0398162715137004
-0.0385756231844425
-0.0370125137269496
-0.0351920574903488
-0.033169399946928
-0.0309889558702707
-0.0286853890866041
-0.0262870769947767
-0.0238194148987531
-0.0213045347481966
-0.018759112805128
-0.0161952953785657
-0.0136246355250477
-0.0110593438148498
-0.0085110906511545
-0.0059918342158198
-0.0035151310730725
-0.0010952721349895
0.001253857044503
0.0035191443748772
0.0056884903460741
0.0077503928914666
0.0096937231719493
0.0115082990378141
0.0131850708276033
0.0147172361612319
0.0161028653383255
0.0173457227647304
0.0184537209570407
0.0194375794380903
0.0203087404370307
0.0210759062319993
0.0217433255165815
0.0223114173859357
0.0227782502770423
0.0231421329081058
0.0234043635427951
0.0235697925090789
0.0236453171819448
0.0236380398273468
0.0235546231269836
0.0234028324484825
0.0231931265443563
0.0229341834783554
0.0226206257939338
0.0222200378775596
0.0216643512248992
0.0208478532731533
0.0196401495486497
0.0179155599325895
0.015584697946906
0.0126146581023931
0.0090356888249516
0.0049380641430616
0.0004611210897564
-0.0042242659255862
-0.0089342035353183
-0.0134883318096399
-0.017726507037878
-0.0215217787772417
-0.024782970547676
-0.0274503510445356
-0.0294933654367923
-0.0309105440974235
-0.0317257605493068
-0.0319820046424865
-0.0317364409565925
-0.0310553070157766
-0.0300080180168151
-0.0286623705178499
-0.0270807668566703
-0.02531816996634
-0.0234224796295166
-0.0214336737990379
-0.0193800255656242
-0.0172767415642738
-0.0151305440813303
-0.0129448724910616
-0.0107228942215442
-0.0084711341187357
-0.0062012569978833
-0.0039280829951167
-0.0016674632206559
0.000565311871469
0.0027571450918912
0.0048970370553433
0.006974178366363
0.0089768022298812
0.0108939008787274
0.0127179324626922
0.0144444853067398
0.0160694625228643
0.0175878591835498
0.0189941972494125
0.0202811583876609
0.0214379206299781
0.0224530734121799
0.0233197659254074
0.0240366160869598
0.02460503205657
0.0250287950038909
0.0253168288618326
0.0254841968417167
0.0255479477345943
0.0255215317010879
0.0254137441515922
0.0252309571951627
0.0249763615429401
0.0246433392167091
0.0242052059620618
0.0236063431948423
0.0227607674896717
0.0215626843273639
0.0199076738208532
0.0177159234881401
0.0149504002183675
0.0116288680583238
0.0078269178047776
0.0036693927831947
-0.0006855567917227
-0.005064757540822
-0.0092979585751891
-0.0132324639707803
-0.0167433936148881
-0.0197394806891679
-0.0221634283661842
-0.0239904187619686
-0.025228502228856
-0.0259159654378891
-0.026112150400877
-0.025888318195939
-0.0253234580159187
-0.0245002824813127
-0.0234982073307037
-0.0223865248262882
-0.0212189648300409
-0.0200299769639968
-0.01883514970541
-0.0176351219415664
-0.0164191741496324
-0.015167380683124
-0.013854356482625
-0.0124565949663519
-0.0109607642516493
-0.0093688424676656
-0.0076978979632258
-0.0059747411869466
-0.0042283567599952
-0.0024843725841492
-0.0007637776434421
0.0009153748396784
0.0025359513238072
0.0040807886980473
0.0055338740348815
0.0068838419392704
0.0081271827220916
0.0092697320505976
0.0103258471935987
0.0113128423690795
0.0122428219765424
0.0131172221153974
0.0139243304729461
0.0146362073719501
0.0152027672156691
0.0155465481802821
0.0155647918581962
0.0151413045823574
0.0141673972830176
0.0125672658905386
0.0103163113817572
0.0074458085000514
0.0040400950238108
0.0002321406063856
-0.0038057889323681
-0.0078815463930368
-0.0118089849129319
-0.0154292471706867
-0.0186214670538902
-0.0213036555796861
-0.0234263576567173
-0.0249639339745044
-0.0259079150855541
-0.0262638665735721
-0.0260533578693866
-0.0253189168870449
-0.024124339222908
-0.0225485637784004
-0.0206775050610303
-0.0185956712812185
-0.0163787640631198
-0.0140892751514911
-0.0117747448384761
-0.0094674946740269
-0.0071860197931528
-0.0049376701936125
-0.0027215797454118
-0.0005310960114002
0.0016439575701951
0.0038139568641781
0.0059858532622456
0.0081614479422569
0.0103373993188142
0.0125048942863941
0.0146481096744537
0.0167434606701135
0.018763069063425
0.0206791739910841
0.022464171051979
0.0240907315164804
0.0255360566079616
0.0267868246883153
0.0278420690447092
0.0287116467952728
0.0294095054268836
0.0299477912485599
0.0303369909524917
0.0305885076522827
0.0307144448161125
0.0307251326739788
0.0306267663836479
0.0304186306893825
0.030087212100625
0.029596347361803
0.0288789272308349
0.0278372950851917
0.0263538379222154
0.0243099462240934
0.0216099489480257
0.0182040277868509
0.0141033874824643
0.0093837892636656
0.0041784839704632
-0.0013367240317165
-0.0069645075127482
-0.0125089166685938
-0.017793396487832
-0.0226715132594108
-0.0270321574062109
-0.0307987220585346
-0.0339226201176643
-0.0363754890859127
-0.0381442122161388
-0.0392304174602031
-0.0396527871489524
-0.0394486933946609
-0.0386726036667823
-0.0373916178941726
-0.0356802977621555
-0.0336160771548748
-0.0312755033373832
-0.0287304278463125
-0.026043776422739
-0.0232664812356233
-0.0204366967082023
-0.0175819918513298
-0.0147235179319977
-0.0118773020803928
-0.0090516488999128
-0.0062467642128467
-0.0034591387957334
-0.0006865095347166
0.0020692949183285
0.0048000956885516
0.0074893161654472
0.01011298969388
0.0126431593671441
0.0150495516136288
0.0173003505915403
0.0193657148629426
0.02122363448143
0.0228635109961032
0.0242844261229038
0.025490965694189
0.026491055265069
0.0272970702499151
0.0279270019382238
0.028401855379343
0.028740981593728
0.0289592389017343
0.0290652252733707
0.0290601253509521
0.0289412606507539
0.0287079699337482
0.028362326323986
0.0279067791998386
0.0273442380130291
0.0266782715916633
0.0259081535041332
0.0250175222754478
0.0239617098122835
0.0226610004901886
0.0210039615631103
0.0188633110374212
0.016123104840517
0.0127074420452117
0.0085993874818086
0.0038470029830932
-0.0014400780200958
-0.0071009201928973
-0.0129411872476339
-0.0187562182545661
-0.0243510007858276
-0.0295547898858785
-0.0342326685786247
-0.0382895022630691
-0.041664820164442
-0.0443257316946983
-0.0462622120976448
-0.0474838055670261
-0.0480161197483539
-0.0478986725211143
-0.0471847765147686
-0.0459407232701778
-0.0442423522472381
-0.0421688444912433
-0.0397962257266044
-0.0371943861246109
-0.0344264581799507
-0.0315477102994918
-0.0286037437617778
-0.0256279539316892
-0.0226408168673515
-0.0196539480239152
-0.0166752208024263
-0.0137099148705601
-0.01076081674546
-0.0078312940895557
-0.0049281758256256
-0.0020625269971787
0.0007501281797885
0.0034904996864497
0.0061371298506855
0.008669395931065
0.011071303859353
0.0133318910375237
0.0154422279447317
0.0173938758671283
0.0191801264882087
0.0207977909594774
0.0222482234239578
0.0235359165817499
0.0246648471802473
0.025638461112976
0.0264644213020801
0.0271559078246355
0.0277273692190647
0.028191290795803
0.0285586658865213
0.0288398284465074
0.0290431883186101
0.0291719119995832
0.0292156040668487
0.0291351415216922
0.028850657865405
0.0282448288053274
0.0271805375814437
0.0255253817886114
0.0231777597218751
0.0200904086232185
0.0162864327430725
0.0118620488792657
0.0069743259809911
0.001819659024477
-0.0033894076477736
-0.0084453150629997
-0.0131629165261983
-0.0173925813287496
-0.0210282132029533
-0.0240075457841157
-0.0263051185756921
-0.0279232375323772
-0.0288854800164699
-0.0292336884886026
-0.0290282294154167
-0.0283474158495664
-0.0272798314690589
-0.0259136203676462
-0.0243310034275054
-0.0226062927395105
-0.0208019260317087
-0.0189613588154315
-0.0171039942651987
-0.0152300503104925
-0.0133323147892951
-0.0114026218652725
-0.0094316750764846
-0.0074098859913647
-0.0053306617774069
-0.003194504417479
-0.0010130619630217
0.0011906316503882
0.0033857927192002
0.005537502001971
0.0076103317551314
0.0095720887184143
0.0113964127376675
0.013065118342638
0.014570128172636
0.0159123558551073
0.0170982405543327
0.0181385707110166
0.0190484821796417
0.0198440514504909
0.020537719130516
0.0211363434791564
0.0216418094933033
0.0220511276274919
0.022349601611495
0.0224965773522853
0.0224141050130128
0.0219872184097766
0.0210768282413482
0.0195445772260427
0.0172856207937002
0.0142565108835697
0.0104868747293949
0.0060752900317311
0.0011745856609195
-0.0040276404470205
-0.0093274433165788
-0.0145207708701491
-0.0194188263267278
-0.0238607227802276
-0.0277211125940084
-0.030913021415472
-0.0333856344223022
-0.0351174362003803
-0.0361098758876323
-0.0363856069743633
-0.0359876528382301
-0.0349760651588439
-0.0334248840808868
-0.0314204506576061
-0.0290576163679361
-0.026431992650032
-0.02363121509552
-0.0207290574908256
-0.0177823845297098
-0.014830089174211
-0.0118944942951202
-0.008984656073153
-0.0061004292219877
-0.0032360078766942
-0.0003835847601294
0.0024622539058327
0.0053016934543848
0.0081269666552543
0.0109179057180881
0.0136413788422942
0.0162576660513877
0.0187292378395795
0.0210274253040552
0.023134496062994
0.0250422395765781
0.0267510339617729
0.0282694716006517
0.029612123966217
0.0307956915348768
0.0318355783820152
0.0327439680695533
0.0335288271307945
0.0341935940086841
0.034736692905426
0.0351507663726806
0.0354244261980056
0.0355450548231601
0.0354962758719921
0.0352479889988899
0.0347430929541587
0.033888790756464
0.0325607694685459
0.0306226070970296
0.0279540996998548
0.0244793873280286
0.0201869048178195
0.0151368174701929
0.0094578266143798
0.0033352682366967
-0.0030098380520939
-0.0093468930572271
-0.0154595347121357
-0.0211620815098285
-0.0263081118464469
-0.0307932831346988
-0.0345519967377185
-0.0375481769442558
-0.0397676862776279
-0.0412161238491535
-0.041916761547327
-0.0419077388942241
-0.0412417314946651
-0.0399860590696334
-0.0382203422486782
-0.0360328592360019
-0.0335169769823551
-0.0307661108672618
-0.0278658978641033
-0.024886380881071
-0.0218783095479011
-0.018873831257224
-0.0158902592957019
-0.0129352323710918
-0.0100110061466693
-0.0071174404583871
-0.0042543946765363
-0.0014245952479541
0.0013632429763674
0.0040939142927527
0.0067485002800822
0.0093079283833503
0.0117550399154424
0.0140739027410745
0.0162484757602214
0.0182648189365863
0.0201149936765432
0.0217963065952062
0.0233069695532321
0.024644661694765
0.025808572769165
0.0268011167645454
0.0276284553110599
0.0283006373792886
0.0288304835557937
0.029231471940875
0.0295164845883846
0.0296961721032857
0.0297758337110281
0.029754078015685
0.0296247005462646
0.0293777305632829
0.0289951302111148
0.0284405816346406
0.0276475939899683
0.0265139602124691
0.0249092523008584
0.0226956810802221
0.0197571143507957
0.0160265509039163
0.0115027017891407
0.0062553882598876
0.0004240609705448
-0.0057935081422328
-0.0121663371101021
-0.0184603743255138
-0.0244625490158796
-0.0299966074526309
-0.0349293798208236
-0.0391672700643539
-0.0426482111215591
-0.0453341826796531
-0.0472061671316623
-0.0482613407075405
-0.0485136210918426
-0.0479980409145355
-0.0467741452157497
-0.0449251011013984
-0.0425535105168819
-0.0397730842232704
-0.0366979762911796
-0.0334341302514076
-0.0300722699612379
-0.026682173833251
-0.0233106762170791
-0.0199841223657131
-0.0167144760489463
-0.0135056115686893
-0.010356955230236
-0.0072657344862818
-0.004228794015944
-0.0012439691927284
0.0016873818822205
0.0045571401715278
0.0073498543351888
0.0100451624020934
0.0126202348619699
0.0150517728179693
0.0173189453780651
0.0194058082997798
0.021301656961441
0.0230001658201217
0.0244982168078422
0.0257947631180286
0.0268895775079727
0.0277839452028274
0.0284848883748054
0.0290078446269035
0.0293740779161453
0.0296062380075454
0.0297247786074876
0.0297455824911594
0.0296788457781076
0.029528472572565
0.0292923487722873
0.0289638619869947
0.0285339970141649
0.0279933642596006
0.0273307543247938
0.0265238154679536
0.025524927303195
0.0242512710392475
0.0225861296057701
0.020394392311573
0.0175496935844421
0.0139646492898464
0.0096144806593656
0.0045491885393857
-0.0011076126247644
-0.0071729151532053
-0.0134270032867789
-0.0196396354585886
-0.0255943443626165
-0.031104490160942
-0.0360212549567222
-0.0402379967272281
-0.0436899401247501
-0.0463472604751586
-0.048206515610218
-0.0492853671312332
-0.0496195964515209
-0.0492612496018409
-0.0482779592275619
-0.0467521362006664
-0.0447787046432495
-0.0424599274992942
-0.0398965701460838
-0.0371782928705215
-0.0343759804964065
-0.031536366790533
-0.0286801941692829
-0.02580670081079
-0.022903349250555
-0.0199551358819007
-0.0169507190585136
-0.0138870850205421
-0.0107729258015751
-0.0076288129203021
-0.0044825440272688
-0.0013625640422105
0.0017037126235663
0.004687113687396
0.0075568477623164
0.0102852042764425
0.0128519646823406
0.0152445714920759
0.0174549594521522
0.019477404654026
0.0213097762316465
0.0229560062289237
0.0244269669055938
0.0257390327751636
0.0269103832542896
0.027957547456026
0.0288955327123403
0.029738949611783
0.0304985381662845
0.0311756692826747
0.0317627750337123
0.0322488248348236
0.0326234810054302
0.0328781716525554
0.0330039858818054
0.032985370606184
0.0327898412942886
0.0323562994599342
0.0315890982747077
0.030365465208888
0.0285564363002777
0.0260537285357713
0.0227945186197757
0.0187798012048006
0.0140816047787666
0.0088350567966699
0.0032215300016105
-0.0025482545606791
-0.0082523077726364
-0.0136785842478275
-0.0186445377767086
-0.0230101943016052
-0.0266829878091812
-0.0296151675283908
-0.0317968428134918
-0.0332480147480964
-0.0340106375515461
-0.034141331911087
-0.0337066762149333
-0.0327803045511245
-0.0314402170479297
-0.0297667924314737
-0.0278402846306562
-0.0257359463721513
-0.0235178377479314
-0.0212344955652952
-0.0189189650118351
-0.0165923591703176
-0.0142668318003416
-0.0119462814182043
-0.0096277799457311
-0.0073040882125496
-0.0049656918272376
-0.0026048282161355
-0.000220931135118
0.0021782144904136
0.0045781643129885
0.006957200821489
0.009287073276937
0.0115368673577904
0.0136751225218176
0.0156714469194412
0.0175004694610834
0.0191453024744987
0.0205978043377399
0.0218576975166797
0.0229328051209449
0.0238372534513473
0.024587407708168
0.0252002924680709
0.0256950333714485
0.026093179360032
0.0264135226607322
0.0266643613576889
0.0268411450088024
0.0269305687397718
0.0269168131053447
0.0267864316701889
0.0265302881598472
0.026141969487071
0.0256112143397331
0.0249122977256774
0.0239931475371122
0.0227724555879831
0.0211466625332832
0.0190058872103691
0.0162570960819721
0.0128494407981634
0.0087918564677238
0.0041561592370271
-0.0009302487596869
-0.0062974872998893
-0.0117519870400428
-0.0170967355370521
-0.0221483688801527
-0.0267508886754512
-0.0307845119386911
-0.0341669097542762
-0.036848459392786
-0.0388075821101665
-0.0400488302111625
-0.0406007692217826
-0.0405127666890621
-0.0398512594401836
-0.0386953651905059
-0.0371325239539146
-0.0352528095245361
-0.0331413783133029
-0.030872443690896
-0.0285057872533798
-0.02608373016119
-0.0236296691000461
-0.0211508814245462
-0.0186447128653526
-0.0161045175045728
-0.0135232675820589
-0.0108968112617731
-0.0082280002534389
-0.0055283512920141
-0.0028167855925858
-0.0001196060329675
0.0025288457982242
0.0050892028957605
0.0075238924473524
0.0098035503178834
0.0119092836976051
0.0138318426907062
0.0155704701319336
0.0171313770115375
0.0185262151062488
0.0197712667286396
0.0208847876638174
0.0218814499676227
0.0227690674364566
0.0235516857355833
0.0242341607809066
0.0248208232223987
0.0253103300929069
0.0256951004266738
0.0259667057543993
0.0261210203170776
0.0261586345732212
0.0260826591402292
0.0258967038244009
0.0256004184484481
0.0251811686903238
0.024603933095932
0.023803275078535
0.0226843655109405
0.0211372841149568
0.0190609153360128
0.0163878034800291
0.0131010673940181
0.0092408945783972
0.0049046948552131
0.000240933150053
-0.0045668659731745
-0.0093224216252565
-0.013838100247085
-0.0179518423974514
-0.0215376541018486
-0.0245096273720264
-0.0268221031874418
-0.0284672137349843
-0.0294700227677822
-0.0298824440687894
-0.0297762807458639
-0.0292355064302682
-0.02834989503026
-0.0272103901952505
-0.0259026549756526
-0.0244984701275825
-0.0230499021708965
-0.0215886291116476
-0.020127810537815
-0.0186639130115509
-0.017179612070322
-0.0156494546681642
-0.0140463011339306
-0.0123458355665206
-0.0105309374630451
-0.0085972296074032
-0.0065548671409487
-0.0044247191399335
-0.0022358670830726
-2.72414181381464e-05
0.0021529383957386
0.0042535657994449
0.0062290430068969
0.0080447634682059
0.0096785239875316
0.011119907721877
0.0123693421483039
0.013436984270811
0.0143410060554742
0.0151044372469186
0.0157516673207283
0.016306372359395
0.0167893562465906
0.0172161180526018
0.0175956189632415
0.0179293006658554
0.0182108432054519
0.0184268299490213
0.0185546297580003
0.0185565166175365
0.0183727759867906
0.0179172232747077
0.0170811098068952
0.015749579295516
0.0138263488188385
0.0112563576549291
0.0080393645912408
0.0042353342287242
-3.790343180298805e-05
-0.0046175816096365
-0.0093173496425151
-0.0139494948089122
-0.0183419715613126
-0.0223486814647912
-0.0258546229451894
-0.0287774894386529
-0.0310657396912574
-0.0326938293874263
-0.0336576476693153
-0.0339718014001846
-0.033668715506792
-0.0328001603484153
-0.0314389541745185
-0.0296761970967054
-0.0276124123483896
-0.0253442730754613
-0.0229525044560432
-0.0204976182430982
-0.0180219337344169
-0.0155515819787979
-0.0130974873900413
-0.0106575954705476
-0.008221318013966
-0.0057750586420297
-0.0033058896660804
-0.0008039204403758
0.0017332332208752
0.004296101629734
0.0068632094189524
0.0094043584540486
0.0118856132030487
0.014275006018579
0.0165464505553245
0.0186803415417671
0.0206624194979667
0.0224824547767639
0.0241332929581403
0.0256113409996032
0.0269175320863723
0.0280561074614524
0.0290325209498405
0.0298536382615566
0.0305289439857006
0.0310697183012962
0.0314850136637687
0.0317743830382823
0.0319179967045784
0.0318652354180812
0.0315265730023384
0.0307787358760833
0.0294870994985103
0.0275361333042383
0.02485734783113
0.0214491561055183
0.0173835437744855
0.0127990581095218
0.007883814163506
0.002851917175576
-0.0020812705624848
-0.0067203594371676
-0.0109058720991015
-0.0145222377032041
-0.0174960400909185
-0.0197887178510427
-0.0213925465941429
-0.0223325416445732
-0.0226667448878288
-0.0224795527756214
-0.021870918571949
-0.020945431664586
-0.0198028497397899
-0.018530610948801
-0.0171984080225229
-0.0158541556447744
-0.0145224742591381
-0.0132081378251314
-0.0119015825912356
-0.0105820829048752
-0.0092209717258811
-0.0077876537106931
-0.0062566073611378
-0.004613765515387
-0.0028616110794246
-0.0010205004364252
0.0008758818730711
0.0027885576710104
0.004680024459958
0.0065180649980902
0.0082774432376027
0.0099400207400321
0.0114939324557781
0.0129323061555624
0.0142521811649203
0.0154540166258811
0.016539093106985
0.017501838505268
0.0183168686926364
0.0189253017306327
0.0192304737865924
0.0191083066165447
0.0184282474219799
0.01707992143929
0.015000189654529
0.0121920388191938
0.0087302261963486
0.004754108376801
0.0004497680347412
-0.0039720982313156
-0.0082972701638937
-0.0123285073786973
-0.0159022249281406
-0.0188966244459152
-0.0212331525981426
-0.0228741876780986
-0.0238187760114669
-0.0240993294864892
-0.0237789638340473
-0.0229465384036302
-0.0217083357274532
-0.0201774481683969
-0.0184621959924697
-0.0166555102914571
-0.0148282060399651
-0.0130264591425657
-0.0112713631242513
-0.0095621608197689
-0.0078834928572177
-0.0062113958410918
-0.0045188465155661
-0.0027841939590871
-0.0009965226054191
0.0008452525362372
0.0027344161644577
0.0046576629392802
0.0065969671122729
0.0085314083844423
0.0104378769174218
0.0122907990589737
0.0140632204711437
0.0157307982444763
0.0172743666917085
0.0186789911240339
0.0199335180222988
0.0210314877331256
0.0219706576317548
0.0227508191019296
0.0233736746013164
0.0238457266241312
0.0241790544241666
0.0243855752050876
0.0244627110660076
0.0243721678853034
0.0240231323987245
0.0232734717428684
0.0219491720199584
0.0198730621486902
0.0168995689600706
0.01295149885118
0.0080452533438801
0.0022950638085603
-0.0041022170335054
-0.010896511375904
-0.0178186558187007
-0.0246085114777088
-0.0310349687933921
-0.0369103476405143
-0.0420972108840942
-0.0465061701834201
-0.0500869490206241
-0.0528150461614131
-0.0546802915632724
-0.0556833334267139
-0.0558378398418426
-0.0551738515496254
-0.0537407658994197
-0.0516071803867816
-0.0488567389547824
-0.0455836728215217
-0.0418885983526706
-0.0378714762628078
-0.0336232408881187
-0.0292207412421703
-0.0247255321592092
-0.0201843250542879
-0.0156308524310588
-0.0110886860638856
-0.0065734516829252
-0.002095203846693
0.0023380685597658
0.0067183915525674
0.0110379625111818
0.0152867259457707
0.0194456875324249
0.0234827194362878
0.0273549892008304
0.0310145430266857
0.0344143621623516
0.0375142320990562
0.0402861125767231
0.0427183434367179
0.0448156595230102
0.0465941056609153
0.0480744391679763
0.0492774471640586
0.0502219870686531
0.0509247407317161
0.0514004081487655
0.0516632795333862
0.0517288260161876
0.0516106598079204
0.0513123646378517
0.0508162975311279
0.0500699318945407
0.0489756166934967
0.0473939627408981
0.0451653003692626
0.0421426184475421
0.0382241494953632
0.0333774723112583
0.0276509188115596
0.0211709253489971
0.0141291273757815
0.006762989796698
-0.0006693503819406
-0.0079166730865836
-0.0147581677883863
-0.0210169963538646
-0.0265633631497621
-0.0313115343451499
-0.0352125763893127
-0.0382430627942085
-0.0403955765068531
-0.0416782051324844
-0.0421222783625125
-0.0417894795536994
-0.0407703183591365
-0.039174273610115
-0.0371178723871707
-0.0347148217260837
-0.0320687964558601
-0.0292691122740507
-0.0263892468065023
-0.0234861336648464
-0.0205975379794836
-0.0177398324012756
-0.0149124218150973
-0.0121079860255122
-0.0093205785378813
-0.0065487725660204
-0.0037973895668983
-0.0010791883105412
0.0015852391952648
0.0041699656285345
0.0066479416564106
0.0089958012104034
0.0111964596435427
0.0132377743721008
0.0151091497391462
0.0167992562055587
0.0182971432805061
0.0195958707481622
0.0206954758614301
0.0216030851006507
0.0223300457000732
0.0228893868625164
0.0232957042753696
0.0235638655722141
0.0237049646675586
0.0237198993563652
0.0235879141837358
0.0232516583055257
0.0226087383925914
0.0215192250907421
0.0198289304971694
0.0174002945423126
0.0141423996537923
0.0100346747785806
0.0051402598619461
-0.0003955960273742
-0.0063630025833845
-0.0125138433650136
-0.0185907073318958
-0.0243554562330245
-0.0296098794788122
-0.034202191978693
-0.0380234457552433
-0.041001096367836
-0.0430947914719581
-0.044297732412815
-0.0446404889225959
-0.0441904813051223
-0.043045587837696
-0.0413243807852268
-0.0391550324857234
-0.0366644561290741
-0.0339689999818801
-0.0311670619994401
-0.028332483023405
-0.0255097970366477
-0.0227158870548009
-0.0199480988085269
-0.0171924624592065
-0.0144292013719677
-0.0116377370432019
-0.0088022053241729
-0.005916591733694
-0.0029883624520152
-3.8547193980775774e-05
0.0029024656396359
0.0058001619763672
0.0086192265152931
0.0113253146409988
0.0138860754668712
0.0162717141211032
0.0184566117823123
0.0204225592315197
0.022160418331623
0.0236693676561117
0.0249567758291959
0.0260376539081335
0.026930658146739
0.027653269469738
0.0282171592116355
0.0286182556301355
0.0288213063031435
0.0287470892071723
0.0282706767320632
0.0272362753748893
0.0254874303936958
0.022902512922883
0.0194244049489498
0.0150778209790587
0.0099700018763542
0.0042764204554259
-0.0017802449874579
-0.0079535031691193
-0.0139981852844357
-0.0196924395859241
-0.0248513631522655
-0.0293320938944816
-0.0330335833132267
-0.0358937047421932
-0.0378837138414382
-0.0390012338757514
-0.0392660908401012
-0.0387207753956317
-0.0374319516122341
-0.0354886725544929
-0.0329955630004406
-0.0300640352070331
-0.0268055666238069
-0.0233254432678222
-0.0197160094976425
-0.0160526297986507
-0.0123922927305102
-0.008773760870099
-0.005220009945333
-0.0017408756539225
0.0016642175614833
0.0049994969740509
0.0082646366208791
0.0114519800990819
0.0145481992512941
0.0175358206033706
0.0203937292098999
0.0230982024222612
0.025626104325056
0.027958907186985
0.0300844386219978
0.0319957807660102
0.0336896777153015
0.0351663790643215
0.0364312902092933
0.0374963209033012
0.0383774787187576
0.0390896238386631
0.0396417342126369
0.0400342717766761
0.0402608551084995
0.0403140522539615
0.0401912815868854
0.0398978590965271
0.0394462756812572
0.0388507582247257
0.0381147153675556
0.0372118912637233
0.0360701754689216
0.0345686413347721
0.0325525477528572
0.029863690957427
0.0263763591647148
0.0220263376832008
0.01682610809803
0.0108658652752637
0.0043030027300119
-0.0026553031057119
-0.0097727356478571
-0.016806174069643
-0.0235265009105205
-0.0297345332801342
-0.0352718792855739
-0.0400261655449867
-0.0439284369349479
-0.0469447709619998
-0.0490681082010269
-0.0503135994076728
-0.0507171303033828
-0.0503352954983711
-0.0492441989481449
-0.0475354827940464
-0.0453106947243213
-0.0426759384572505
-0.0397367924451828
-0.0365924686193466
-0.0333287008106708
-0.0300111025571823
-0.0266824662685394
-0.0233662221580743
-0.0200729873031377
-0.0168071594089269
-0.0135730197653174
-0.0103781837970018
-0.0072343237698078
-0.0041571976616978
-0.0011660797754302
0.0017173654632642
0.0044710380025208
0.0070765176787972
0.0095237512141466
0.0118117611855268
0.013945085927844
0.0159294568002223
0.0177675802260637
0.0194565001875162
0.0209894105792045
0.0223590210080146
0.0235583428293466
0.0245813373476266
0.025425860658288
0.0260953977704048
0.026597324758768
0.0269405543804168
0.0271343309432268
0.0271877609193325
0.0271096117794513
0.0269071757793426
0.0265871286392211
0.0261600129306316
0.0256403982639312
0.025037195533514
0.024339010939002
0.0235006026923656
0.0224354527890682
0.021019896492362
0.0191103238612413
0.0165703687816858
0.0133011396974325
0.0092642921954393
0.0044923368841409
-0.0009118802845478
-0.0067843096330761
-0.0129176648333668
-0.0190852079540491
-0.0250636413693428
-0.0306518878787755
-0.0356852002441883
-0.0400422364473342
-0.0436441265046596
-0.0464472994208335
-0.0484346151351928
-0.0496103353798389
-0.0499998480081558
-0.0496508851647377
-0.0486327335238456
-0.047031320631504
-0.0449420809745788
-0.0424641817808151
-0.0396957099437713
-0.0367271937429904
-0.033635389059782
-0.0304812043905258
-0.0273099318146705
-0.0241501461714506
-0.0210138950496912
-0.017901936545968
-0.0148104690015316
-0.0117351245135068
-0.0086735868826508
-0.005628109909594
-0.0026067784056067
0.0003766254521906
0.0033028614707291
0.0061481967568397
0.0088892336934804
0.0115102557465434
0.0140046849846839
0.016367757692933
0.0185900926589965
0.0206589214503765
0.0225622132420539
0.024291768670082
0.0258447360247373
0.0272222459316253
0.0284270234405994
0.0294626131653785
0.0303331781178712
0.0310432016849517
0.0315973982214927
0.0320008397102355
0.0322601273655891
0.0323848165571689
0.0323871038854122
0.0322797000408172
0.0320726744830608
0.0317715816199779
0.0313771404325962
0.0308809354901313
0.0302539952099323
0.0294340103864669
0.0283207595348358
0.0267868004739284
0.0247022118419408
0.0219632945954799
0.0185154099017381
0.0143660558387637
0.0095880348235368
0.0043132626451551
-0.0012806640006601
-0.0069886925630271
-0.0125999618321657
-0.0179181583225727
-0.0227754488587379
-0.0270394999533891
-0.030616108328104
-0.0334491990506649
-0.0355171971023082
-0.0368269383907318
-0.0374094732105731
-0.0373181588947773
-0.0366247706115245
-0.0354127660393714
-0.0337711758911609
-0.0317901112139225
-0.029556892812252
-0.0271527860313653
-0.0246489942073822
-0.0221011471003294
-0.01954679004848
-0.0170083865523338
-0.0144968274980783
-0.0120129194110631
-0.0095503311604261
-0.0071000861935317
-0.0046537201851606
-0.002205996774137
0.0002422304823994
0.0026836795732378
0.00510646821931
0.0074947951361536
0.0098284445703029
0.0120827881619334
0.0142298238351941
0.0162408649921417
0.018090097233653
0.0197576358914375
0.0212321802973747
0.0225124359130859
0.0236058831214904
0.0245256312191486
0.0252869967371225
0.0259042903780937
0.0263887234032154
0.0267486553639173
0.0269910506904125
0.0271229743957519
0.0271522812545299
0.0270856823772192
0.0269262567162513
0.0266737639904022
0.0263266693800687
0.0258835516870021
0.0253434218466281
0.0247063264250755
0.0239734686911106
0.0231409631669521
0.0221856795251369
0.0210521332919597
0.0196503475308418
0.0178669895976781
0.0155865661799907
0.0127172004431486
0.0092144645750522
0.0050964318215847
0.0004457822069525
-0.0045992918312549
-0.0098611386492848
-0.0151436273008584
-0.0202556755393743
-0.0250313505530357
-0.0293402299284935
-0.0330871120095253
-0.0362069681286811
-0.0386627726256847
-0.0404457002878189
-0.0415706820785999
-0.0420692078769207
-0.0419858284294605
-0.0413759909570217
-0.0403032451868057
-0.0388385318219661
-0.0370582789182662
-0.0350380763411521
-0.0328463166952133
-0.0305402651429176
-0.028162470087409
-0.0257383082062006
-0.0232770852744579
-0.020776504650712
-0.0182290095835924
-0.0156285818666219
-0.0129764797165989
-0.010283512994647
-0.0075671095401048
-0.0048468583263456
-0.0021445169113576
0.0005135824903845
0.0030977739952504
0.0055795926600694
0.0079361367970705
0.010151607915759
0.0122149875387549
0.0141168562695384
0.0158500168472528
0.0174140129238367
0.0188171751797199
0.0200730748474597
0.0211962331086397
0.0221998505294322
0.0230951756238937
0.0238929316401481
0.0246024988591671
0.0252263769507408
0.0257576704025268
0.0261844731867313
0.0264952704310417
0.0266823675483465
0.026743859052658
0.0266827493906021
0.0265051610767841
0.0262195002287626
0.0258318781852722
0.025335656479001
0.0246990472078323
0.0238562375307083
0.0227091163396835
0.0211415216326713
0.0190404430031776
0.0163201726973056
0.0129454992711544
0.0089457388967275
0.00441540684551
-0.00049609830603
-0.0056029991246759
-0.0107053723186254
-0.0156090036034584
-0.0201412476599216
-0.0241628419607877
-0.0275730472058057
-0.0303086526691913
-0.0323422476649284
-0.0336808450520038
-0.0343611538410186
-0.0344425663352012
-0.0340004377067089
-0.0331196151673793
-0.0318892076611518
-0.0303979087620973
-0.028727663680911
-0.0269468836486339
-0.0251060519367456
-0.0232355799525976
-0.0213451106101274
-0.0194265097379684
-0.0174606759101152
-0.0154247060418128
-0.0132979024201631
-0.0110670495778322
-0.0087303984910249
-0.0063001895323395
-0.003803202882409
-0.0012779189273715
0.0012315930798649
0.0036825058050453
0.0060374583117663
0.0082662673667073
0.0103477584198117
0.012271299958229
0.0140363425016403
0.0156499464064836
0.0171230919659137
0.0184682104736566
0.0196995511651039
0.0208334997296333
0.021885834634304
0.0228666793555021
0.0237769205123186
0.0246096327900886
0.0253541581332683
0.0259992014616727
0.0265358183532953
0.0269588362425565
0.0272642262279987
0.0274462010711431
0.0274982750415802
0.0274157524108886
0.0271975304931402
0.0268485061824321
0.0263778157532215
0.0257876850664615
0.0250575747340917
0.0241314526647329
0.0229155868291854
0.0212929416447877
0.0191496554762125
0.0164019986987113
0.013016864657402
0.0090234037488698
0.0045142797753214
-0.0003641098737716
-0.0054307486861944
-0.0104926563799381
-0.015364421531558
-0.0198822692036628
-0.0239130482077598
-0.0273577086627483
-0.0301506519317626
-0.0322599820792675
-0.0336894430220127
-0.0344758629798889
-0.0346807837486267
-0.034381665289402
-0.03366544470191
-0.0326224491000175
-0.0313392020761966
-0.0298918168991804
-0.0283417720347642
-0.0267336256802082
-0.0250928942114114
-0.0234248582273721
-0.0217173062264919
-0.0199465528130531
-0.0180848408490419
-0.016109462827444
-0.0140115404501557
-0.0118005275726318
-0.0095034968107938
-0.0071591804735362
-0.0048087984323501
-0.0024897158145904
-0.0002340795472264
0.0019309748895466
0.0039834445342421
0.0059066344983875
0.0076894368976354
0.0093255713582038
0.0108122490346431
0.0121522052213549
0.01335743162781
0.0144470185041427
0.0154391545802354
0.0163454413414001
0.017170675098896
0.0179149117320776
0.0185761637985706
0.0191530436277389
0.0196458622813224
0.0200571808964014
0.0203927922993898
0.0206609927117824
0.0208689179271459
0.0210165232419967
0.0210860054939985
0.0210283566266298
0.0207580663263797
0.020161909982562
0.0191167835146188
0.0175104327499866
0.0152620747685432
0.012341471388936
0.0087817655876278
0.0046798973344266
0.0001851599663496
-0.0045190975069999
-0.0092371217906475
-0.0137814246118068
-0.0179874096065759
-0.0217205360531806
-0.0248794481158256
-0.0273987632244825
-0.0292494557797908
-0.030435100197792
-0.0309875793755054
-0.0309627428650856
-0.0304334517568349
-0.0294813457876443
-0.0281907729804515
-0.0266446229070425
-0.0249196887016296
-0.0230815932154655
-0.0211797878146171
-0.0192445758730173
-0.0172891877591609
-0.0153148071840405
-0.0133149102330207
-0.0112788183614611
-0.0091951396316289
-0.0070560676977038
-0.0048618093132972
-0.0026214830577373
-0.0003508552908897
0.0019289841875433
0.0041921506635844
0.0064100022427737
0.0085537806153297
0.0105965808033943
0.0125157926231622
0.0142954848706722
0.0159264486283063
0.0174045115709304
0.0187288112938404
0.0199017245322465
