bvp
-0.0123387994244694
-0.0182227566838264
-0.023620730265975
-0.0283737815916538
-0.0323815569281578
-0.035596590489149
-0.038012683391571
-0.0396511442959308
-0.040552482008934
-0.0407747440040111
-0.0403900668025016
-0.0394767336547374
-0.038113247603178
-0.0363763719797134
-0.034339565783739
-0.0320710726082325
-0.0296301376074552
-0.0270621851086616
-0.0243992041796445
-0.0216643214225769
-0.018875041976571
-0.0160456523299217
-0.0131885148584842
-0.0103127975016832
-0.0074250046163797
-0.0045339977368712
-0.0016552126035094
0.0011902106925845
0.0039795255288481
0.0066918875090777
0.0093094408512115
0.0118164923042058
0.0141975730657577
0.0164365544915199
0.0185190979391336
0.0204362273216247
0.022186417132616
0.0237764418125152
0.0252198819071054
0.0265325866639614
0.0277273692190647
0.0288095772266387
0.0297757964581251
0.0306176114827394
0.031326986849308
0.0318983718752861
0.0323265716433525
0.0326042845845222
0.0327245891094207
0.0326860025525093
0.0324940830469131
0.0321594513952732
0.0316945239901542
0.0311103984713554
0.030415903776884
0.0296189356595277
0.0287266504019498
0.0277411136776208
0.0266493074595928
0.0254090651869773
0.0239382609724998
0.0221175551414489
0.0198095496743917
0.016887716948986
0.0132664088159799
0.0089248726144433
0.003920049406588
-0.0016141002997756
-0.0074809119105339
-0.0134469605982303
-0.0192725397646427
-0.0247394442558288
-0.0296730026602745
-0.0339529812335968
-0.0375105366110801
-0.0403188690543174
-0.0423851981759071
-0.0437445268034935
-0.0444532074034214
-0.0445806831121444
-0.0442010536789894
-0.0433881878852844
-0.0422142036259174
-0.0407485961914062
-0.0390564911067485
-0.0371954441070556
-0.0352110154926776
-0.0331331379711627
-0.0309770200401544
-0.028748819604516
-0.0264516603201627
-0.0240880586206913
-0.0216587968170642
-0.0191623140126466
-0.0165986400097608
-0.0139748584479093
-0.0113060297444462
-0.0086126383394002
-0.0059178783558309
-0.0032443068921566
-0.0006117047742009
0.0019620023667812
0.0044599999673664
0.0068674013018608
0.0091710519045591
0.0113575868308544
0.0134117221459746
0.0153176244348287
0.0170639026910066
0.0186477713286876
0.0200746152549982
0.0213546194136142
0.0224994383752346
0.0235206596553325
0.0244305655360221
0.0252426452934741
0.0259680021554231
0.026606973260641
0.0271376632153987
0.0275054350495338
0.0276189967989921
0.0273554250597953
0.0265742279589176
0.0251412130892276
0.0229584723711013
0.019991498440504
0.0162851437926292
0.0119627295061945
0.0072100181132555
0.0022532995790243
-0.0026652198284864
-0.0073158605955541
-0.0115068526938557
-0.0150982616469264
-0.0180037133395671
-0.0201851576566696
-0.0216461904346942
-0.0224241279065608
-0.0225809402763843
-0.0221964474767446
-0.0213623140007257
-0.0201738327741622
-0.0187216941267251
-0.017086137086153
-0.0153329335153102
-0.0135111128911376
-0.0116540640592575
-0.009783474728465
-0.0079122595489025
-0.0060452222824096
-0.0041795661672949
-0.0023071598261594
-0.0004194220528006
0.0014870567247271
0.0034082173369824
0.0053339679725468
0.007249804213643
0.009136470966041
0.0109696947038173
0.0127229494974017
0.0143726710230112
0.0159027744084596
0.0173058994114398
0.0185815319418907
0.0197336860001087
0.020769715309143
0.0216997675597667
0.0225358661264181
0.0232892744243145
0.0239670407027006
0.0245709139853715
0.0250981822609901
0.0255420114845037
0.0258925426751375
0.0261403396725654
0.0262793097645044
0.026305042207241
0.0262111313641071
0.0259896218776702
0.0256347116082906
0.0251444149762392
0.0245162434875965
0.0237356349825859
0.0227624159306287
0.0215222314000129
0.0199063718318939
0.0177837293595075
0.0150255151093006
0.0115363094955682
0.007282730191946
0.0023115631192922
-0.0032492391765117
-0.0092060305178165
-0.0153228966519236
-0.0213480480015277
-0.0270426515489816
-0.032206192612648
-0.0366906262934207
-0.0404024198651313
-0.0432980805635452
-0.0453787147998809
-0.0466822311282157
-0.04727179184556
-0.047225534915924
-0.0466295555233955
-0.045571532100439
-0.0441354513168334
-0.0423988290131092
-0.0404314771294593
-0.0382949672639369
-0.0360417440533638
-0.0337129160761833
-0.0313363410532474
-0.0289263930171728
-0.0264851823449134
-0.0240063872188329
-0.0214815288782119
-0.0189050510525703
-0.0162763986736536
-0.0136010171845555
-0.0108903432264924
-0.0081586139276623
-0.0054185213521122
-0.0026814262382686
3.841426223516464e-05
0.0027217427268624
0.0053458432666957
0.0078867524862289
0.0103206587955355
0.0126254260540008
0.0147828608751297
0.0167808663100004
0.0186130255460739
0.0202742032706737
0.0217564441263675
0.0230498071759939
0.0241470672190189
0.0250482484698295
0.02576145529747
0.0263012237846851
0.0266878474503755
0.0269453842192888
0.0270966850221157
0.0271606743335723
0.0271529294550418
0.02708475664258
0.0269599705934524
0.0267700478434562
0.0264857411384582
0.0260465685278177
0.0253554340451955
0.0242847315967082
0.0226951502263546
0.0204640552401542
0.0175151880830526
0.0138396183028817
0.0095031587406992
0.0046410541981458
-0.0005563970189541
-0.0058642029762268
-0.011047919280827
-0.0158892273902893
-0.0202054418623447
-0.0238621141761541
-0.0267801396548748
-0.0289343949407339
-0.0303428303450346
-0.0310530848801136
-0.0311335418373346
-0.0306679233908653
-0.0297490637749433
-0.0284716933965683
-0.0269256830215454
-0.0251901671290397
-0.0233298353850841
-0.0213925633579492
-0.0194088071584701
-0.0173942800611257
-0.0153519306331872
-0.0132729122415184
-0.0111425071954727
-0.0089489938691258
-0.0066890828311443
-0.0043702498078346
-0.0020107124000787
0.0003649182617664
0.0027319053187966
0.0050691002979874
0.0073600322939455
0.0095929093658924
0.011758804321289
0.0138487014919519
0.0158527605235576
0.0177610274404287
0.019563902169466
0.0212546680122613
0.0228307358920574
0.024289172142744
0.0256231892853975
0.0268243215978145
0.02788507938385
0.0287998579442501
0.0295660011470317
0.0301835611462593
0.030652780085802
0.030970849096775
0.0311272181570529
0.0310958065092563
0.0308252442628145
0.0302311796694993
0.0291981622576713
0.027597228065133
0.02531448751688
0.0222786739468574
0.0184810608625412
0.0139854243025183
0.0089253168553113
0.0034899306483566
-0.002097766380757
-0.0076072630472481
-0.0128254387527704
-0.0175758972764015
-0.0217312723398208
-0.0252153649926185
-0.027994580566883
-0.030066143721342
-0.031448807567358
-0.0321758016943931
-0.0322922952473163
-0.0318565927445888
-0.0309391841292381
-0.0296199079602956
-0.0279841311275959
-0.0261152368038892
-0.0240868758410215
-0.0219596251845359
-0.019780384376645
-0.0175827592611312
-0.0153877669945359
-0.0132039496675133
-0.0110286390408873
-0.0088519025593996
-0.0066618779674172
-0.0044502615928649
-0.0022170089650899
2.7223024517297745e-05
0.0022612691391259
0.0044558979570865
0.0065772430971264
0.0085900351405143
0.0104628708213567
0.0121750114485621
0.0137177826836705
0.0150899505242705
0.016295351088047
0.0173450000584125
0.0182569753378629
0.0190525092184543
0.0197544898837804
0.0203876681625843
0.0209736507385969
0.0215238723903894
0.0220384858548641
0.0225099138915538
0.0229272656142711
0.0232797861099243
0.0235563088208436
0.0237433537840843
0.0238267015665769
0.0237932652235031
0.0236287415027618
0.0233109854161739
0.0227994658052921
0.0220246221870183
0.0208861157298088
0.019264668226242
0.0170432161539793
0.0141308195888996
0.01048487983644
0.0061284825205802
0.0011588539928197
-0.0042590592056512
-0.0099152168259024
-0.015584023669362
-0.0210497472435235
-0.0261245965957641
-0.0306598525494337
-0.0345502756536006
-0.0377325862646102
-0.040178932249546
-0.0418878495693206
-0.0428777337074279
-0.0431860387325286
-0.0428704246878623
-0.0420055016875267
-0.0406752824783325
-0.0389657318592071
-0.03696059435606
-0.034739151597023
-0.0323724150657653
-0.0299189705401659
-0.0274233520030975
-0.0249170437455177
-0.0224209986627101
-0.0199473816901445
-0.017499454319477
-0.015072981826961
-0.0126612922176718
-0.0102617051452398
-0.0078814337030053
-0.0055397534742951
-0.0032640947028994
-0.0010834484128281
0.0009777452796697
0.0029036006890237
0.0046870885416865
0.0063278726302087
0.0078306626528501
0.0092054940760135
0.0104672629386186
0.011632090434432
0.0127136362716555
0.0137230437248945
0.014671416953206
0.0155698545277118
0.0164257623255252
0.0172414910048246
0.0180173553526401
0.0187532790005207
0.0194477252662181
0.0200966782867908
0.0206912402063608
0.0212119296193122
0.0216201413422822
0.0218497030436992
0.0218052919954061
0.0213725101202726
0.0204366296529769
0.0189040973782539
0.0167237631976604
0.0139033142477273
0.0105148879811167
0.006689928472042
0.0026056147180497
-0.0015356866642832
-0.0055299773812294
-0.0091942762956023
-0.0123847741633653
-0.0150070376694202
-0.0170173980295658
-0.0184157975018024
-0.0192336048930883
-0.0195233765989542
-0.0193520747125148
-0.0187944993376731
-0.0179266296327114
-0.0168217103928327
-0.0155491307377815
-0.0141715770587325
-0.0127400029450654
-0.0112904487177729
-0.0098427906632423
-0.0084004756063222
-0.0069537363015115
-0.0054866736754775
-0.0039844154380261
-0.0024372776970267
-0.0008428045548498
0.0007921447977423
0.0024521392770111
0.0041193757206201
0.005778185557574
0.0074118888005614
0.0089984592050313
0.0105111980810761
0.0119221694767475
0.0132064279168844
0.0143461637198925
0.0153324697166681
0.0161659363657236
0.016857273876667
0.0174245741218328
0.017887994647026
0.0182666592299938
0.0185772068798542
0.018833128735423
0.0190459843724966
0.0192253030836582
0.0193741507828235
0.0194853730499744
0.0195455178618431
0.0195417366921901
0.0194607283920049
0.019279196858406
0.018952764570713
0.0184090230613946
0.0175490919500589
0.0162602942436933
0.0144382454454898
0.012011919170618
0.0089644324034452
0.0053445110097527
0.0012656240724027
-0.00310700526461
-0.0075789424590766
-0.0119538307189941
-0.0160568207502365
-0.0197489224374294
-0.0229347385466098
-0.0255649741739034
-0.0276304967701435
-0.0291495639830827
-0.030155973508954
-0.0306911673396825
-0.030797766521573
-0.0305153727531433
-0.0298813600093126
-0.0289333127439022
-0.0277089737355709
-0.02624580450356
-0.0245833862572908
-0.0227658543735742
-0.0208389554172754
-0.0188426822423934
-0.0168058462440967
-0.0147462170571088
-0.0126740420237183
-0.0105949435383081
-0.0085116513073444
-0.0064265592955052
-0.0043445248156785
-0.0022732815705239
-0.0002223597839474
0.0017966995947062
0.0037707900628447
0.0056876833550632
0.0075360387563705
0.0093021309003233
0.0109679754823446
0.0125134550034999
0.0139212869107723
0.015181228518486
0.0162914581596851
0.0172588191926479
0.0180985368788242
0.018831955268979
0.0194816701114177
0.0200654380023479
0.0205925684422254
0.0210638754069805
0.0214730948209762
0.0218094699084758
0.0220610853284597
0.0222175940871238
0.0222724638879299
0.0222240947186946
0.0220742970705032
0.0218231547623872
0.021459175273776
0.020947566255927
0.0202244147658348
0.0192007161676883
0.0177756417542696
0.0158577412366867
0.013388973660767
0.0103634539991617
0.0068365512415766
0.0029236748814582
-0.0012133540585637
-0.0053910408169031
-0.0094298468902707
-0.0131729077547788
-0.0164986811578273
-0.0193288512527942
-0.0216289311647415
-0.0234009772539138
-0.0246724709868431
-0.0254849605262279
-0.0258854664862155
-0.0259216222912073
-0.0256381891667842
-0.0250749848783016
-0.0242668874561786
-0.0232450701296329
-0.0220406092703342
-0.0206889528781175
-0.0192295983433723
-0.0176998563110828
-0.0161273702979087
-0.0145262898877263
-0.0128986192867159
-0.0112390955910086
-0.0095407431945204
-0.0077987657859921
-0.0060126883909106
-0.0041884621605277
-0.0023403530940413
-0.0004901345819234
0.0013370439410209
0.003117072628811
0.0048281941562891
0.0064505296759307
0.007966186851263
0.009359641931951
0.0106202568858861
0.0117463851347565
0.0127451326698064
0.0136278616264462
0.0144069092348217
0.0150946313515305
0.015702661126852
0.0162395443767309
0.0167086627334356
0.0171105489134788
0.0174472648650407
0.0177224818617105
0.0179372560232877
0.0180879440158605
0.0181687418371438
0.0181746035814285
0.0181025136262178
0.0179530438035726
0.0177318062633276
0.0174480937421321
0.0171106066554784
0.0167217068374156
0.0162683092057704
0.0157103221863508
0.0149750504642724
0.0139639219269156
0.0125705515965819
0.0107050333172082
0.0083160251379013
0.0054046399891376
0.0020300671458244
-0.0016945898532867
-0.0056168925948441
-0.0095638092607259
-0.0133610172197222
-0.0168536510318517
-0.0199236199259758
-0.022496722638607
-0.0245409589260816
-0.0260606408119201
-0.0270869880914688
-0.027667824178934
-0.0278605557978153
-0.0277268327772617
-0.0273275915533304
-0.0267203077673912
-0.0259569901973009
-0.0250811651349067
-0.0241252891719341
-0.0231101103127002
-0.0220455527305603
-0.020931826904416
-0.0197613779455423
-0.0185226052999496
-0.0172037538141012
-0.0157951265573501
-0.0142894033342599
-0.012681271880865
-0.0109676057472825
-0.0091488622128963
-0.0072334147989749
-0.0052430075593292
-0.0032125036232173
-0.0011832355521619
0.0008039884269237
0.0027136518619954
0.0045182853937149
0.0061992984265089
0.0077469320967793
0.0091595752164721
0.010441793128848
0.0116022285073995
0.0126522872596979
0.0136039312928915
0.0144673641771078
0.0152511373162269
0.0159615650773048
0.0165991224348545
0.0171566605567932
0.017622597515583
0.0179867558181285
0.018245717510581
0.0184042789041996
0.0184724889695644
0.0184632185846567
0.018392140045762
0.018276147544384
0.0181289408355951
0.0179561860859394
0.0177518725395202
0.0174946077167987
0.0171414166688919
0.0166219659149646
0.0158408321440219
0.0146917393431067
0.0130805745720863
0.0109496070072054
0.0082945898175239
0.0051703653298318
0.0016860226169228
-0.0020084353163838
-0.0057421484962105
-0.0093457195907831
-0.0126706101000308
-0.0156029378995299
-0.0180703625082969
-0.0200410969555377
-0.0215173196047544
-0.0225270595401525
-0.0231154728680849
-0.0233362633734941
-0.0232453290373086
-0.0228960458189249
-0.0223358832299709
-0.0216051470488309
-0.0207361485809087
-0.0197520051151514
-0.0186671074479818
-0.0174894873052835
-0.0162223596125841
-0.0148648666217923
-0.0134138250723481
-0.0118663348257541
-0.0102235367521643
-0.0084944767877459
-0.0066972952336072
-0.0048573771491646
-0.0030032629147171
-0.0011620027944445
0.0006433697417378
0.0023928084410727
0.004067214205861
0.0056497040204703
0.0071287369355559
0.0084995198994874
0.0097640110179781
0.0109283560886979
0.0119987688958644
0.0129821635782718
0.0138895697891712
0.0147349145263433
0.0155303068459033
0.0162820778787136
0.0169894397258758
0.0176471881568431
0.0182501263916492
0.0187959037721157
0.0192865282297134
0.0197276547551155
0.0201249662786722
0.0204812251031398
0.0207957532256841
0.0210648626089096
0.0212826039642095
0.0214417576789855
0.0215345155447721
0.0215503983199596
0.0214688740670681
0.021249234676361
0.0208235476166009
0.0200987961143255
0.0189704783260822
0.0173428878188133
0.0151513060554862
0.0123831294476985
0.0090910047292709
0.0053922100923955
0.0014543593861162
-0.0025294921360909
-0.0063701956532895
-0.0099063832312822
-0.0130167715251445
-0.0156251899898052
-0.0177024714648723
-0.0192622430622577
-0.0203506723046302
-0.0210348460823297
-0.0213922206312418
-0.0215009860694408
-0.0214315820485353
-0.0212410595268011
-0.020969720557332
-0.020639045163989
-0.0202539339661598
-0.0198080297559499
-0.0192872174084186
-0.0186725314706563
-0.0179443880915641
-0.0170867424458265
-0.0160897616297006
-0.0149495657533407
-0.0136660281568765
-0.0122424839064478
-0.010688392445445
-0.0090212505310773
-0.0072654583491384
-0.0054504214785993
-0.0036105487961322
-0.0017856338527053
-1.8175771401729435e-05
0.0016514875460416
0.0031901397742331
0.0045770886354148
0.0058068330399692
0.0068838614970445
0.0078138206154108
0.0086004957556724
0.0092481775209307
0.0097626820206642
0.010150290094316
0.0104187009856104
0.0105802882462739
0.0106533020734786
0.0106600448489189
0.0106243770569562
0.0105691412463784
0.0105146495625376
0.0104788346216082
0.010477595962584
0.0105245318263769
0.0106276283040642
0.0107835866510868
0.0109746940433979
0.0111661031842231
0.0113001829013228
0.0112919099628925
0.011029434390366
0.0103839030489325
0.0092314165085554
0.007481257431209
0.0050997706130146
0.0021223709918558
-0.0013470682315528
-0.0051465714350342
-0.0090758707374334
-0.0129238776862621
-0.0164978764951229
-0.019647117704153
-0.0222749393433332
-0.0243393555283546
-0.0258462820202112
-0.0268380045890808
-0.0273789912462234
-0.0275439508259296
-0.0274098217487335
-0.0270491708070039
-0.0265251323580741
-0.0258876457810401
-0.0251697245985269
-0.0243851188570261
-0.0235287118703126
-0.0225802287459373
-0.0215122085064649
-0.0202994458377361
-0.0189240779727697
-0.0173765160143375
-0.0156565643846988
-0.0137746408581733
-0.011750959791243
-0.0096128145232796
-0.0073913307860493
-0.0051182527095079
-0.0028232708573341
-0.0005348296836018
0.0017161453142762
0.0038952687755227
0.0059688836336135
0.00790960714221
0.0096981497481465
0.011321423575282
0.0127709284424781
0.0140438098460435
0.0151452217251062
0.0160881206393241
0.0168899483978748
0.0175692364573478
0.0181443095207214
0.0186341721564531
0.0190593637526035
0.0194409787654876
0.0197971332818269
0.0201350376009941
0.0204391423612833
0.0206601824611425
0.0207111425697803
0.0204756651073694
0.0198292471468448
0.0186658482998609
0.0169231407344341
0.0146017512306571
0.0117721147835254
0.008566609583795
0.0051612202078104
0.001752552576363
-0.0014658598229289
-0.0043253181502223
-0.0066986316815018
-0.0085093155503273
-0.0097325686365365
-0.0103895766660571
-0.0105396816506981
-0.010271968320012
-0.0096933851018548
-0.0089145740494132
-0.0080378074198961
-0.0071486225351691
-0.0063112564384937
-0.0055670756846666
-0.0049342038109898
-0.0044071618467569
-0.0039568655192852
-0.0035333968698978
-0.0030738692730665
-0.002513775601983
-0.0017969720065593
-0.0008817799389362
0.0002551339566707
0.0016154907643795
0.0031779818236827
0.0049011027440428
0.0067298840731382
0.0086037246510386
0.010464321821928
0.0122620183974504
0.0139573644846677
0.0155201852321624
0.0169297400861978
0.018174098804593
0.0192472413182258
0.0201468765735626
0.0208748988807201
0.0214377269148826
0.0218436531722545
0.0220986064523458
0.0222043357789516
0.0221594758331775
0.0219575203955173
0.0215768292546272
0.0209662765264511
0.0200364626944065
0.0186656937003135
0.0167212672531604
0.0140892788767814
0.0107057942077517
0.0065816650167107
0.0018133003031834
-0.0034228169824928
-0.0088892942294478
-0.0143178030848503
-0.0194450169801712
-0.0240456350147724
-0.0279539730399847
-0.0310706440359354
-0.0333574190735816
-0.034827172756195
-0.0355324484407901
-0.0355514697730541
-0.0349732562899589
-0.0338874273002147
-0.0323804654181003
-0.030533829703927
-0.0284204445779323
-0.0261023677885532
-0.0236331801861524
-0.0210641473531723
-0.0184492506086826
-0.0158428866416215
-0.0132921719923615
-0.0108312042430043
-0.0084792105481028
-0.0062409844249486
-0.0041089439764618
-0.002066433429718
-9.183399379253387e-05
0.0018356880173087
0.0037291711196303
0.0055907135829329
0.007414816878736
0.0091939670965075
0.0109231118112802
0.012600427493453
0.0142229441553354
0.0157832279801368
0.0172720644623041
0.0186831671744585
0.0200151875615119
0.0212714616209268
0.0224596373736858
0.0235910583287477
0.0246785003691911
0.0257320571690797
0.0267556086182594
0.0277445465326309
0.0286794267594814
0.0295135788619518
0.0301602445542812
0.0304852277040481
0.0303122587502002
0.0294473320245742
0.0277168210595846
0.0250069238245487
0.0212944392114877
0.0166603662073612
0.0112811010330915
0.0054021147079765
-0.0006947275833226
-0.0067236442118883
-0.0124245686456561
-0.0175858922302722
-0.0220575500279665
-0.0257530380040407
-0.0286395642906427
-0.0307228062301874
-0.0320350863039493
-0.0326276756823062
-0.0325644835829734
-0.0319158099591732
-0.0307526178658008
-0.0291447881609201
-0.0271639116108417
-0.0248843654990196
-0.0223784148693084
-0.0197088085114955
-0.0169243775308132
-0.0140593675896525
-0.0111342426389455
-0.0081573575735092
-0.0051287058740854
-0.0020476821810007
0.0010772952809929
0.0042234542779624
0.007353757508099
0.010419936850667
0.0133674601092934
0.0161410123109817
0.0186886359006166
0.020965576171875
0.0229391306638717
0.0245912261307239
0.0259169414639472
0.0269227661192417
0.0276268757879734
0.0280593428760767
0.0282598454505205
0.0282724481076002
0.0281401760876178
0.0279028732329607
0.0275973938405513
0.0272580180317163
0.026917090639472
0.0266033560037612
0.0263349376618862
0.0261084418743848
0.0258874036371707
0.0255926437675952
0.0250981636345386
0.0242390073835849
0.022835461422801
0.0207285918295383
0.0178150981664657
0.0140715986490249
0.0095641780644655
0.0044424012303352
-0.0010802987962961
-0.0067555420100688
-0.0123322755098342
-0.0175857879221439
-0.0223395749926567
-0.0264769066125154
-0.0299397017806768
-0.0327187702059745
-0.0348411202430725
-0.0363558270037174
-0.0373213849961757
-0.0377986133098602
-0.0378476530313491
-0.0375257283449173
-0.0368862338364124
-0.0359788388013839
-0.0348476730287075
-0.0335279926657676
-0.0320439338684082
-0.0304074883460998
-0.0286176949739456
-0.0266614314168691
-0.0245193094015121
-0.0221757851541042
-0.0196267366409301
-0.0168802700936794
-0.013953547924757
-0.010870411992073
-0.0076616490259766
-0.0043677720241248
-0.0010419692844152
0.0022522481158375
0.0054484410211443
0.0084826881065964
0.0112966764718294
0.0138430213555693
0.0160911865532398
0.0180290099233388
0.0196587219834327
0.0209904164075851
0.0220363400876522
0.0228073261678218
0.0233126729726791
0.0235642939805984
0.0235808975994586
0.0233875587582588
0.0230121258646249
0.0224828571081161
0.0218289606273174
0.0210795849561691
0.0202546250075101
0.0193493049591779
0.0183217283338308
0.0170907769352197
0.0155466981232166
0.0135724786669015
0.0110711194574832
0.0079920310527086
0.0043502710759639
0.0002336986362934
-0.0042047407478094
-0.0087686739861965
-0.0132480710744857
-0.0174468960613012
-0.0212026126682758
-0.0243988540023565
-0.0269727110862731
-0.028914263471961
-0.0302570704370737
-0.0310634076595306
-0.0314086601138114
-0.0313690714538097
-0.0310157239437103
-0.0304125286638736
-0.0296147614717483
-0.028666628524661
-0.0275989882647991
-0.0264309309422969
-0.0251733474433422
-0.0238298214972019
-0.0223965942859649
-0.0208638496696949
-0.0192178022116422
-0.0174441020935773
-0.015531038865447
-0.0134704411029815
-0.0112596536055207
-0.0089075500145554
-0.0064387270249426
-0.0038910082075744
-0.0013095210306346
0.0012598913162946
0.0037759658880531
0.006201930809766
0.0085022747516632
0.0106436051428318
0.0125999059528112
0.0143561642616987
0.0159072522073984
0.0172556061297655
0.0184117220342159
0.0193956568837165
0.0202346481382846
0.020955603569746
0.0215769298374652
0.0221057664602994
0.0225413609296083
0.0228798799216747
0.0231167376041412
0.0232457313686609
0.0232577044516801
0.0231408942490816
0.0228801574558019
0.0224525351077318
0.0218210015445947
0.0209286995232105
0.0196971371769905
0.0180343277752399
0.0158547032624483
0.0131048141047358
0.0097848391160368
0.0059588206931948
0.0017525600269436
-0.0026590721681714
-0.0070731127634644
-0.0112844016402959
-0.0151110421866178
-0.0184132251888513
-0.0211030319333076
-0.0231459476053714
-0.0245541110634803
-0.0253731049597263
-0.0256686545908451
-0.0255171991884708
-0.02499845251441
-0.0241898689419031
-0.0231643244624137
-0.0219886414706707
-0.0207213424146175
-0.0194109268486499
-0.0180939305573701
-0.0167916975915431
-0.0155093763023614
-0.0142396399751305
-0.0129680018872022
-0.01167575083673
-0.0103407632559537
-0.0089401341974735
-0.0074557345360517
-0.0058792345225811
-0.0042137023992836
-0.0024713943712413
-0.0006693677860312
0.0011738322209566
0.0030385334976017
0.0049047176726162
0.006756629794836
0.0085852863267064
0.010383834131062
0.0121428091078996
0.0138504588976502
0.0154946558177471
0.0170633308589458
0.0185429994016885
0.0199169628322124
0.0211653243750333
0.0222675036638975
0.023206140846014
0.0239694193005561
0.024551210924983
0.0249511618167161
0.0251749604940414
0.0252324417233467
0.0251323617994785
0.0248792096972465
0.0244756210595369
0.0239248685538768
0.0232290234416723
0.0223825369030237
0.0213630348443985
0.0201249495148658
0.0186017490923404
0.0167191158980131
0.0144165251404047
0.0116692250594496
0.0085026351734995
0.0049969283863902
0.0012822924181818
-0.0024761110544204
-0.0061028050258755
-0.0094392197206616
-0.0123629923909902
-0.0147949177771806
-0.0166973080486059
-0.0180682651698589
-0.0189346857368946
-0.0193467400968074
-0.0193738862872123
-0.0190992951393127
-0.0186121072620153
-0.0180006437003612
-0.0173466894775629
-0.0167172588407993
-0.0161551255732774
-0.0156746841967105
-0.0152658121660351
-0.0149019146338105
-0.0145475324243307
-0.0141643360257148
-0.0137155456468462
-0.0131685771048069
-0.0124971978366374
-0.011684563010931
-0.0107258865609765
-0.0096275908872485
-0.0084033450111746
-0.0070715760812163
-0.005655855871737
-0.0041852151043713
-0.0026916484348475
-0.0012059798464179
0.0002434402704238
0.0016291765496134
0.002925727982074
0.0041140122339129
0.0051842834800481
0.0061349496245384
0.0069693513214588
0.0076933111995458
0.008314361795783
0.0088410675525665
0.0092818113043904
0.0096439495682716
0.0099334977567195
0.0101560540497303
0.0103182215243577
0.0104262251406908
0.0104807429015636
0.0104728313162922
0.0103863710537552
0.0102033773437142
0.0099040083587169
0.0094607211649417
0.0088317291811108
0.0079573355615139
0.0067617604508996
0.0051639080047607
0.0030971886590123
0.0005322694778442
-0.0025055687874555
-0.0059299780987203
-0.0095988046377897
-0.0133298747241497
-0.01692596077919
-0.020203623920679
-0.0230160802602767
-0.0252641811966896
-0.0268982797861099
-0.0279140081256628
-0.0283425152301788
-0.0282401368021965
-0.0276818759739398
-0.0267552118748426
-0.0255505703389644
-0.0241521690040826
-0.0226341430097818
-0.021059762686491
-0.0194792356342077
-0.0179268382489681
-0.0164219103753566
-0.0149746378883719
-0.0135910930112004
-0.0122739151120185
-0.0110212750732898
-0.0098263788968324
-0.0086778281256556
-0.0075629586353898
-0.006474052555859
-0.0054115401580929
-0.0043799132108688
-0.0033806329593062
-0.0024085016921162
-0.0014506410807371
-0.0004854751750826
0.000514437444508
0.0015740087255835
0.0027089053764939
0.0039258571341633
0.0052261659875512
0.006607137620449
0.0080619435757398
0.0095801912248134
0.0111483242362737
0.0127493292093276
0.0143626015633344
0.0159646328538656
0.0175301469862461
0.0190307851880788
0.0204297471791505
0.0216753277927637
0.0226955190300941
0.0233952179551124
0.0236628726124763
0.0233902987092733
0.0224978812038898
0.0209553819149732
0.0187938269227743
0.0161066427826881
0.0130400694906711
0.0097748851403594
0.0065032485872507
0.0034062443301081
0.0006361734122037
-0.0016947332769632
-0.0035176072269678
-0.0048035830259323
-0.0055581554770469
-0.0058161690831184
-0.0056376829743385
-0.0051030814647674
-0.0043048784136772
-0.0033350456506013
-0.0022724065929651
-0.0011759344488382
-8.334219455718994e-05
0.0009863749146461
0.0020277276635169
0.0030454415827989
0.0040527917444705
0.0050670132040977
0.0061021773144602
0.00716442335397
0.0082519575953483
0.0093559864908456
0.0104601038619875
0.0115409260615706
0.0125710181891918
0.0135229863226413
0.014373779296875
0.0151074491441249
0.0157156698405742
0.0161974038928747
0.0165587794035673
0.0168127547949552
0.0169778615236282
0.0170764122158288
0.0171341206878423
0.0171813424676656
0.0172513630241155
0.0173715315759181
0.017550328746438
0.0177657734602689
0.0179573372006416
0.0180242173373699
0.0178339220583438
0.0172408707439899
0.0161100402474403
0.0143412351608276
0.011890560388565
0.0087837632745504
0.0051173311658203
0.0010480105411261
-0.0032268229406327
-0.0074947886168956
-0.0115552237257361
-0.0152423912659287
-0.0184401217848062
-0.0210843998938798
-0.0231563616544008
-0.0246718470007181
-0.0256717950105667
-0.0262130945920944
-0.0263593159615993
-0.0261732507497072
-0.0257119014859199
-0.0250246357172727
-0.0241554658859968
-0.023146042600274
-0.022033218294382
-0.0208417288959026
-0.0195810589939355
-0.0182520598173141
-0.0168558098375797
-0.0153937777504324
-0.0138625754043459
-0.0122540164738893
-0.0105597842484712
-0.0087741343304514
-0.0068950252607464
-0.0049257716163992
-0.0028760163113474
-0.0007620947435498
0.0013927118852734
0.0035593612119555
0.0057060257531702
0.0078018316999077
0.0098202098160982
0.011739682406187
0.0135408472269773
0.0152037246152758
0.0167102105915546
0.0180482380092144
0.0192123856395483
0.0202026814222335
0.0210244916379451
0.0216883607208728
0.0222067572176456
0.0225862059742212
0.022816739976406
0.0228612124919891
0.0226477161049842
0.0220708474516868
0.021005805581808
0.0193324722349643
0.0169616360217332
0.0138574251905083
0.0100528206676244
0.0056547126732766
0.0008355478639714
-0.0041877902112901
-0.0091827828437089
-0.0139305908232927
-0.0182491671293973
-0.022006494924426
-0.0251241698861122
-0.027572026476264
-0.029356038197875
-0.0305048879235982
-0.0310598667711019
-0.0310703255236148
-0.0305938087403774
-0.0296964943408966
-0.028451457619667
-0.0269363708794116
-0.0252300295978784
-0.0234059449285268
-0.0215254072099924
-0.0196329653263092
-0.017753817141056
-0.0158921778202056
-0.0140333240851759
-0.0121508622542023
-0.0102146724238991
-0.0081958854570984
-0.0060705346986651
-0.0038244640454649
-0.0014588357880711
0.0010082656517624
0.0035468526184558
0.0061219176277518
0.0086971381679177
0.0112377060577273
0.0137142362073063
0.0161052364856004
0.0183957740664482
0.0205721817910671
0.0226164404302835
0.0245053470134735
0.0262152440845966
0.0277272649109363
0.0290280748158693
0.0301074106246233
0.0309567954391241
0.0315704718232154
0.031946063041687
0.0320835933089256
0.0319839753210544
0.0316446349024772
0.0310482922941446
0.0301488004624843
0.0288629401475191
0.0270738005638122
0.0246483255177736
0.0214686505496501
0.0174685288220644
0.0126613173633813
0.0071520712226629
0.0011324079241603
-0.0051404386758804
-0.0113749802112579
-0.0172805730253458
-0.0226002652198076
-0.0271347519010305
-0.0307525563985109
-0.0333885438740253
-0.035036988556385
-0.0357426591217517
-0.0355903767049312
-0.0346927568316459
-0.0331779792904853
-0.031180677935481
-0.0288347378373146
-0.0262652598321437
-0.0235816780477762
-0.0208744648844003
-0.0182138159871101
-0.0156488679349422
-0.013208894059062
-0.0109071293845772
-0.008744865655899
-0.0067135654389858
-0.0047969538718461
-0.0029755197465419
-0.0012323409318923
0.0004434902220964
0.0020585623569786
0.0036190720275044
0.005133100785315
0.006610944867134
0.0080630742013454
0.0094970753416419
0.0109169520437717
0.0123251350596547
0.0137251336127519
0.0151228886097669
0.0165264885872602
0.0179440788924694
0.0193801987916231
0.0208328403532505
0.0222895313054323
0.0237168800085783
0.0250447578728199
0.0261535104364156
0.0268737748265266
0.0270044393837451
0.0263442378491163
0.0247286986559629
0.0220675319433212
0.0183727368712425
0.0137647781521081
0.0084556937217712
0.0027187920641154
-0.003146230475977
-0.0088487872853875
-0.0141389919444918
-0.0188286714255809
-0.0227982699871063
-0.0259918142110109
-0.0284048579633235
-0.0300678182393312
-0.0310295484960079
-0.0313503146171569
-0.0311019551008939
-0.0303637441247701
-0.0292131099849939
-0.027719248086214
-0.0259407851845026
-0.0239225625991821
-0.0216926299035549
-0.019263669848442
-0.0166378039866685
-0.01381223089993
-0.0107850674539804
-0.0075606480240821
-0.0041540889069437
-0.0005940813571214
0.0030772248283028
0.0068052625283598
0.010524570941925
0.0141623551025986
0.0176436007022857
0.0208970457315444
0.0238605756312608
0.0264853537082672
0.0287408530712127
0.0306182540953159
0.0321267060935497
0.0332853309810161
0.0341165177524089
0.0346412882208824
0.0348768271505832
0.0348375663161277
0.0345388501882553
0.0339995771646499
0.0332418382167816
0.0322876945137977
0.031152606010437
0.0298341773450374
0.0282968953251838
0.0264601670205593
0.0241992361843585
0.0213619172573089
0.0177987106144428
0.0134011674672365
0.008138938806951
0.0020828880369663
-0.0045934151858091
-0.0116327861323952
-0.0187287088483572
-0.0255669075995683
-0.0318634510040283
-0.0373913571238517
-0.0419947654008865
-0.0455920919775962
-0.0481677167117595
-0.0497549474239349
-0.0504181869328022
-0.0502393394708633
-0.049308530986309
-0.0477192439138889
-0.0455681085586547
-0.0429573394358158
-0.0399961024522781
-0.0367980413138866
-0.0334759876132011
-0.0301366746425628
-0.0268742050975561
-0.0237593166530132
-0.0208295155316591
-0.0180879849940538
-0.015510318800807
-0.0130527103319764
-0.0106590539216995
-0.0082689858973026
-0.0058269170112907
-0.0032895887270569
-0.0006311214528977
0.0021563014015555
0.0050658760592341
0.008079563267529
0.0111698787659406
0.0143007822334766
0.0174300149083137
0.0205143168568611
0.0235126577317714
0.0263857562094926
0.0290964096784591
0.0316119119524955
0.0339065417647361
0.0359623953700065
0.0377689190208911
0.039321631193161
0.0406191237270832
0.0416599288582801
0.0424411818385124
0.0429582111537456
0.0432048998773098
0.0431738682091236
0.0428534671664238
0.0422197580337524
0.0412245616316795
0.0397836416959762
0.0377711243927478
0.0350280851125717
0.0313916206359863
0.0267368536442518
0.0210148505866527
0.0142773203551769
0.0066851917654275
-0.0015022940933704
-0.0099567240104079
-0.0183195155113935
-0.0262425374239683
-0.0334254950284957
-0.0396438539028167
-0.0447600334882736
-0.0487177558243274
-0.0515266060829162
-0.0532430596649646
-0.0539520978927612
-0.0537532567977905
-0.0527526661753654
-0.0510596930980682
-0.048786025494337
-0.046044535934925
-0.042947232723236
-0.0396033786237239
-0.036115825176239
-0.0325751230120658
-0.0290562808513641
-0.0256182830780744
-0.0223021227866411
-0.0191279985010623
-0.0160949677228927
-0.0131851630285382
-0.0103715751320123
-0.0076244371011853
-0.0049151857383549
-0.002220940310508
0.0004721919540315
0.0031694760546088
0.0058689899742603
0.0085624232888221
0.0112377367913723
0.0138830654323101
0.0164860449731349
0.0190282929688692
0.0214834585785865
0.0238225050270557
0.0260206293314695
0.0280596930533647
0.0299255456775426
0.0316056571900844
0.0330904610455036
0.0343736261129379
0.0354483984410762
0.0363050363957881
0.0369325093924999
0.037322249263525
0.0374723449349403
0.0373897664248943
0.0370872803032398
0.0365780480206012
0.0358736626803875
0.0349847339093685
0.0339205712080001
0.0326875634491443
0.0312849357724189
0.0296943373978137
0.0278658010065555
0.025709057226777
0.0230978429317474
0.0198905169963836
0.0159632544964551
0.0112448651343584
0.0057431515306234
-0.0004420671612024
-0.0071233566850423
-0.0140469912439584
-0.0209241919219493
-0.0274667330086231
-0.0334211811423301
-0.0385941714048385
-0.0428649634122848
-0.0461844652891159
-0.0485628023743629
-0.0500518083572387
-0.0507284589111804
-0.0506816543638706
-0.0500030666589736
-0.0487823858857154
-0.0471058562397956
-0.0450566746294498
-0.0427164584398269
-0.0401657186448574
-0.0374813489615917
-0.0347311794757843
-0.0319666787981987
-0.0292174778878688
-0.0264923200011253
-0.023785300552845
-0.0210828576236963
-0.0183693878352642
-0.0156308561563491
-0.0128577956929802
-0.0100483652204275
-0.0072083692066371
-0.0043474743142724
-0.0014762699138373
0.0013922930229455
0.0042399587109684
0.0070427926257252
0.0097730588167905
0.0124029517173767
0.014910165220499
0.0172810368239879
0.0195079669356346
0.0215845368802547
0.0235033556818962
0.0252567566931247
0.0268366858363151
0.0282324533909559
0.0294306464493274
0.0304204300045967
0.031198289245367
0.0317647494375705
0.0321176946163177
0.0322524532675743
0.0321675837039947
0.031868427991867
0.0313671566545963
0.0306820124387741
0.0298362299799919
0.0288567319512367
0.0277702808380126
0.0265918672084808
0.0253058299422264
0.0238508358597755
0.0221189856529235
0.0199709795415401
0.0172656141221523
0.0138947209343314
0.0098115596920251
0.0050490591675043
-0.0002743704244494
-0.005964882671833
-0.0117773041129112
-0.0174484178423881
-0.0227318666875362
-0.0274257883429527
-0.03138904646039
-0.0345463864505291
-0.0368829369544982
-0.0384304337203502
-0.0392518788576126
-0.0394293554127216
-0.0390549600124359
-0.0382243245840072
-0.0370317362248897
-0.0355659052729606
-0.0339063964784145
-0.0321192108094692
-0.0302528161555528
-0.0283377226442098
-0.0263876933604478
-0.0244009271264076
-0.0223623290657997
-0.020247446373105
-0.0180284138768911
-0.0156810991466045
-0.0131911477074027
-0.0105563066899776
-0.0077862413600087
-0.0049037681892514
-0.0019454089924693
0.0010427604429423
0.0040115742012858
0.0069138873368501
0.0097075244411826
0.0123566212132573
0.0148319983854889
0.0171108096837997
0.0191775299608707
0.0210268441587686
0.022663552314043
0.0240971259772777
0.025336293503642
0.0263895690441131
0.027268661186099
0.0279864594340324
0.0285509191453456
0.0289630331099033
0.0292208846658468
0.0293254274874925
0.0292834937572479
0.0291068889200687
0.0288084894418716
0.0283946711570024
0.027851652354002
0.0271295513957738
0.0261358395218849
0.0247444584965705
0.0228184405714273
0.0202412456274032
0.0169480759650468
0.0129477847367525
0.0083307102322578
0.003262526821345
-0.0020337738096714
-0.007305625360459
-0.0123036466538906
-0.0168120805174112
-0.020670186728239
