bvp
-0.0068006049841642
0.0003763809800148
0.0072569344192743
0.0138532519340515
0.0201803129166364
0.0262509509921073
0.0320729278028011
0.0376475490629673
0.0429660342633724
0.0480005741119384
0.0526924394071102
0.0569460988044738
0.0606378465890884
0.0636349618434906
0.0658149570226669
0.0670836418867111
0.0673945397138595
0.0667649284005165
0.0652817413210868
0.0630955100059509
0.0604049488902092
0.0574345029890537
0.0544080734252929
0.0515259392559528
0.0489510744810104
0.0468037649989128
0.0451580993831157
0.0440385676920414
0.0434224009513855
0.043249063193798
0.04343256726861
0.0438752025365829
0.044481486082077
0.0451686084270477
0.045870903879404
0.0465397089719772
0.0471414886415004
0.0476548075675964
0.0480672493577003
0.048373844474554
0.0485768467187881
0.0486852414906024
0.0487109199166297
0.0486617386341095
0.0485361032187938
0.0483226999640464
0.0480047315359115
0.0475640557706356
0.0469831898808479
0.0462477691471576
0.0453487038612365
0.0442813485860824
0.0430428870022296
0.0416303500533103
0.0400406904518604
0.0382728315889835
0.0363296568393707
0.0342198312282562
0.0319597907364368
0.0295736342668533
0.0270896963775157
0.0245352201163768
0.0219321846961975
0.019297931343317
0.0166497230529785
0.0140082510188221
0.0113988118246197
0.0088510829955339
0.0063957944512367
0.0040591154247522
0.0018591722473502
-0.0001943726092576
-0.0021024467423558
-0.0038828272372484
-0.0055776592344045
-0.0072573777288198
-0.0090146698057651
-0.0109478617087006
-0.0131406858563423
-0.0156444571912288
-0.018465906381607
-0.0215614978224039
-0.0248382221907377
-0.0281625818461179
-0.0313785411417484
-0.0343298763036727
-0.0368783511221408
-0.0389146842062473
-0.0403646901249885
-0.0411914363503456
-0.0413953252136707
-0.0410134643316268
-0.0401146113872528
-0.038788828998804
-0.0371353216469287
-0.0352504849433898
-0.0332186296582222
-0.0311079826205968
-0.0289705265313386
-0.0268427282571792
-0.0247455332428216
-0.022683871909976
-0.0206489991396665
-0.0186246540397405
-0.0165923032909631
-0.014533931389451
-0.0124363657087087
-0.0102960746735334
-0.0081191286444664
-0.0059177745133638
-0.0037084780633449
-0.0015108715742826
0.0006535593420267
0.0027617868036031
0.0047900695353746
0.0067163966596126
0.0085223820060491
0.0101939877495169
0.0117219518870115
0.0131020303815603
0.014336341060698
0.0154358195140957
0.0164195727556943
0.0173094533383846
0.0181242153048515
0.0188767872750759
0.019575048238039
0.0202240943908691
0.0208247750997543
0.021368108689785
0.021830927580595
0.0221729725599288
0.0223346874117851
0.0222405977547168
0.0218107718974351
0.0209764689207077
0.0196962244808673
0.0179699677973985
0.0158456750214099
0.0134147014468908
0.0107993213459849
0.0081380698829889
0.0055719711817801
0.0032322891056537
0.0012292051687836
-0.0003573792055249
-0.0014825509861111
-0.0021361326798796
-0.0023379428312182
-0.0021295361220836
-0.0015663607046008
-0.0007136464118957
0.0003566620871424
0.0015698433853685
0.0028506182134151
0.004125514999032
0.0053289579227566
0.0064103100448846
0.0073390766046941
0.0081080980598926
0.008733307942748
0.0092493621632456
0.0097021209076046
0.0101394159719347
0.0106014059856534
0.0111126117408275
0.0116786072030663
0.0122876204550266
0.0129153188318014
0.0135306380689144
0.0141000701114535
0.0145912673324346
0.0149779394268989
0.0152444057166576
0.0153875919058918
0.015415390022099
0.0153426136821508
0.0151883531361818
0.0149748157709836
0.0147252865135669
0.0144604975357651
0.0141919292509555
0.0139129981398582
0.0135930385440588
0.0131753198802471
0.0125774331390857
0.0116968266665935
0.0104260724037885
0.0086748600006103
0.0063897594809532
0.0035656169056892
0.0002480708062648
-0.0034701284021139
-0.0074567794799804
-0.0115525871515274
-0.0155869740992784
-0.0193930268287658
-0.022820346057415
-0.0257454831153154
-0.0280784573405981
-0.0297668296843767
-0.0307980962097644
-0.0311984252184629
-0.0310271959751844
-0.0303680840879678
-0.0293179713189601
-0.0279774982482194
-0.0264449324458837
-0.0248098857700824
-0.0231471434235572
-0.0215142890810966
-0.0199521780014038
-0.0184848010540008
-0.0171193182468414
-0.0158489029854536
-0.0146560110151767
-0.0135140847414731
-0.0123920049518346
-0.0112637095153331
-0.0101168230175971
-0.0089537985622882
-0.0077877137809991
-0.0066387522965669
-0.0055324472486972
-0.0044961515814065
-0.003553444519639
-0.0027213096618652
-0.0020116213709115
-0.0014319717884063
-0.0009830389171838
-0.0006564706563949
-0.0004362501204013
-0.0003012176603078
-0.0002269949764013
-0.0001886319369077
-0.0001643821597099
-0.0001388266682624
-0.0001061540096998
-7.636472582817078e-05
-8.330680429935455e-05
-0.0001904740929603
-0.0004911366850137
-0.0011000595986843
-0.0021370500326156
-0.0037072394043207
-0.0058826357126235
-0.0086873304098844
-0.0120900347828865
-0.0160055495798587
-0.020301979035139
-0.0248128995299339
-0.0293553955852985
-0.0337483212351799
-0.0378259867429733
-0.0414480790495872
-0.0445054396986961
-0.0469215922057628
-0.0486518256366252
-0.0496803261339664
-0.0500159673392772
-0.0496880449354648
-0.0487425364553928
-0.0472384952008724
-0.0452436506748199
-0.0428287014365196
-0.0400624759495258
-0.0370120741426944
-0.0337462313473224
-0.030334873124957
-0.0268440470099449
-0.0233309864997863
-0.0198414511978626
-0.0164089985191822
-0.0130558116361498
-0.0097942072898149
-0.0066274730488657
-0.0035505760461091
-0.0005531888455152
0.0023755729198455
0.0052436962723731
0.0080544352531433
0.0108049660921096
0.0134850898757576
0.0160769410431385
0.0185574926435947
0.0209020599722862
0.0230857171118259
0.0250846166163682
0.0268802139908075
0.0284635573625564
0.0298350434750318
0.0310005415230989
0.0319682657718658
0.0327480733394622
0.0333505608141422
0.0337834954261779
0.0340491123497486
0.0341466069221496
0.0340760573744773
0.0338383354246616
0.0334316752851009
0.0328469835221767
0.0320618785917758
0.0310338102281093
0.0296959448605775
0.0279609449207782
0.0257337670773267
0.0229315217584371
0.0195066630840301
0.0154662551358342
0.0108809024095535
0.005881143733859
0.0006436686962842
-0.0046270322054624
-0.0097199976444244
-0.0144403632730245
-0.0186256058514118
-0.0221534091979265
-0.0249452963471412
-0.0269660726189613
-0.0282176248729228
-0.028730783611536
-0.0285588800907135
-0.027771670371294
-0.0264495462179183
-0.0246792733669281
-0.0225491672754287
-0.0201430767774581
-0.017535500228405
-0.0147887170314788
-0.0119518488645553
-0.0090619660913944
-0.0061461776494979
-0.0032245069742202
-0.0003120899200439
0.0025806948542594
0.0054474398493766
0.0082815624773502
0.0110726431012153
0.0138075239956378
0.0164735838770866
0.0190597139298915
0.0215548537671566
0.0239473432302474
0.0262269042432308
0.0283862985670566
0.0304192528128623
0.0323167070746421
0.0340662524104118
0.0356551855802536
0.0370727740228176
0.0383107922971248
0.0393650755286216
0.0402365140616893
0.0409301444888114
0.0414554849267005
0.0418285317718982
0.0420717075467109
0.0422105230391025
0.0422704890370368
0.0422751121222972
0.0422402545809745
0.0421630144119262
0.0420112088322639
0.0417199805378913
0.0411957167088985
0.0403266921639442
0.0390015579760074
0.0371324084699153
0.0346748605370521
0.0316397435963153
0.0280955340713262
0.0241631809622049
0.0200047399848699
0.0158069301396608
0.0117609314620494
0.0080419294536113
0.0047929952852427
0.0021138321608304
5.427096039056778e-05
-0.0013845977373421
-0.0022418112494051
-0.0025850916281342
-0.002500251866877
-0.0020813453011214
-0.0014205072075128
-0.0006005928153172
0.00030617689481
0.0012370885815471
0.0021394342184066
0.0029717152938246
0.0037056538276374
0.0043301931582391
0.0048533850349485
0.0052970061078667
0.0056863985955715
0.0060430858284235
0.0063838604837656
0.0067237438634037
0.0070775933563709
0.0074579250067472
0.0078719537705183
0.0083208251744508
0.0087998155504465
0.0092985052615404
0.0098009370267391
0.0102842710912227
0.0107179842889308
0.0110687110573053
0.0113085657358169
0.0114187188446521
0.0113864168524742
0.0112023167312145
0.0108619332313537
0.0103677995502948
0.0097304172813892
0.0089676491916179
0.0080988034605979
0.0071323253214359
0.0060517787933349
0.0048059523105621
0.0033088214695453
0.0014520175755023
-0.0008754394948482
-0.0037672370672225
-0.0072809793055057
-0.0114224627614021
-0.0161382891237735
-0.0213176123797893
-0.0268008187413215
-0.0323949195444583
-0.0378936752676963
-0.0430974811315536
-0.047830693423748
-0.0519547909498214
-0.0553745292127132
-0.0580375827848911
-0.0599311217665672
-0.0610769279301166
-0.0615243539214134
-0.0613418743014335
-0.0606093928217887
-0.0594118051230907
-0.057834293693304
-0.0559600889682769
-0.0538691729307174
-0.0516358539462089
-0.0493242740631103
-0.0469835773110389
-0.0446457713842392
-0.0423272140324115
-0.0400323458015918
-0.0377574749290943
-0.0354939699172973
-0.0332319140434265
-0.0309640876948833
-0.0286880284547805
-0.0264056641608476
-0.0241240747272968
-0.0218581892549991
-0.0196304637938737
-0.0174665264785289
-0.0153909232467412
-0.0134241078048944
-0.0115792136639356
-0.0098599791526794
-0.0082611087709665
-0.0067694764584302
-0.0053664818406105
-0.0040324870496988
-0.0027508977800607
-0.001509727910161
-0.0003013107925653
0.0008774809539318
0.0020238626748323
0.0031299740076065
0.0041866339743137
0.005184780806303
0.0061103645712137
0.0069340094923973
0.007600987330079
0.00802768394351
0.0081072682514786
0.0077226785942912
0.0067637236788868
0.0051461039111018
0.0028290171176195
-0.0001727677881717
-0.003782607614994
-0.0078619327396154
-0.0122229615226387
-0.0166541561484336
-0.0209459103643894
-0.0249091163277626
-0.0283881817013025
-0.0312680341303348
-0.0334749668836593
-0.0349741615355014
-0.0357638075947761
-0.0358663350343704
-0.035321544855833
-0.0341823063790798
-0.032508946955204
-0.0303635504096746
-0.0278080329298973
-0.0249045751988887
-0.021716458722949
-0.0183094255626201
-0.014752060174942
-0.0111143831163644
-0.0074644237756729
-0.0038626044988632
-0.000356737524271
0.0030190385878086
0.0062417704612016
0.0092963371425867
0.0121726244688034
0.0148638244718313
0.017366025596857
0.0196785032749176
0.0218038633465766
0.023747032508254
0.025512009859085
0.0270989499986171
0.0285058040171861
0.0297328531742095
0.0307862386107444
0.0316790342330932
0.0324290208518505
0.0330546163022518
0.0335720926523208
0.0339966639876365
0.0343459770083427
0.0346405133605003
0.0349001958966255
0.0351415276527404
0.0353760160505771
0.0356084406375885
0.035835638642311
0.0360464453697204
0.0362235307693481
0.0363488122820854
0.0364094823598861
0.0363975539803504
0.0363021418452262
0.0360987931489944
0.0357394218444824
0.0351487211883068
0.0342309921979904
0.0328852497041225
0.0310248471796512
0.0285984389483928
0.0256072133779525
0.0221110004931688
0.0182202663272619
0.0140802841633558
0.0098557639867067
0.0057168900966644
0.0018226131796836
-0.0016959123313426
-0.0047427341341972
-0.007254309952259
-0.0091938152909278
-0.0105480141937732
-0.0113263875246047
-0.0115590840578079
-0.0112933851778507
-0.0105913914740085
-0.0095273703336715
-0.0081812180578708
-0.0066315941512584
-0.0049532987177371
-0.0032144822180271
-0.0014704056084156
0.000242032110691
0.0019061565399169
0.0035240538418293
0.0051126927137374
0.0066989380866289
0.0083133783191442
0.0099846087396144
0.0117364842444658
0.0135858375579118
0.0155388172715902
0.0175882875919342
0.0197126492857933
0.0218744371086359
0.0240203253924846
0.0260865278542041
0.0280087608844041
0.0297311898320913
0.0312115885317325
0.0324228480458259
0.0333525910973548
0.0340042300522327
0.0343974232673645
0.0345637574791908
0.0345410034060478
0.0343697778880596
0.0340891443192958
0.0337275490164756
0.0332906208932399
0.0327504463493824
0.0320414938032627
0.0310657881200313
0.0297052673995494
0.0278386641293764
0.0253623016178607
0.022213265299797
0.01838930696249
0.0139565654098987
0.0090423049405217
0.0038192179054021
-0.0015131682157516
-0.0067478669807314
-0.0116886496543884
-0.0161674618721008
-0.0200591646134853
-0.0232878737151622
-0.025824511423707
-0.0276796892285347
-0.0288946311920881
-0.029532304033637
-0.0296699963510036
-0.0293926764279603
-0.0287859141826629
-0.0279302671551704
-0.0269003324210643
-0.0257647410035133
-0.024582352489233
-0.0233971960842609
-0.0222357548773288
-0.02110605686903
-0.0199978575110435
-0.0188868287950754
-0.0177433583885431
-0.0165412798523902
-0.0152647765353322
-0.013913438655436
-0.0125023433938622
-0.0110570657998323
-0.0096083506941795
-0.008189694955945
-0.0068365801125764
-0.0055840071290731
-0.0044618677347898
-0.0034918598830699
-0.0026876758784055
-0.0020541995763778
-0.0015841554850339
-0.0012595485895872
-0.0010604951530694
-0.0009719412773847
-0.0009825527667999
-0.0010806210339069
-0.0012525096535682
-0.0014838054776191
-0.0017601884901523
-0.002068143337965
-0.0023984387516975
-0.0027537159621715
-0.0031590834259986
-0.0036701224744319
-0.0043732188642024
-0.0053786393254995
-0.0068057384341955
-0.0087605696171522
-0.0113123022019863
-0.0144749097526073
-0.0181985888630151
-0.0223719701170921
-0.0268313959240913
-0.0313753262162208
-0.0357846803963184
-0.0398474745452404
-0.0433820448815822
-0.0462532937526702
-0.0483800694346427
-0.0497342646121978
-0.0503330826759338
-0.0502270832657814
-0.049488216638565
-0.0482013821601867
-0.0464581213891506
-0.0443498939275741
-0.0419621691107749
-0.0393706783652305
-0.0366384349763393
-0.0338130481541156
-0.0309254117310047
-0.0279899984598159
-0.0250066518783569
-0.021964905783534
-0.0188509672880172
-0.0156553089618682
-0.0123781813308596
-0.009030926041305
-0.0056333076208829
-0.0022104484960436
0.0012073102407157
0.0045833713375031
0.0078772418200969
0.0110490955412387
0.0140620190650224
0.0168833993375301
0.0194878131151199
0.0218588169664144
0.0239879414439201
0.0258733257651329
0.0275194775313138
0.0289364848285913
0.030137475579977
0.0311359241604805
0.0319457203149795
0.0325829535722732
0.0330646708607673
0.0334046967327594
0.0336116068065166
0.0336906164884567
0.0336463302373886
0.033484861254692
0.0332160107791423
0.0328547097742557
0.0324179828166961
0.0319134145975112
0.0313223637640476
0.0305886082351207
0.0296196863055229
0.0282998047769069
0.0265086516737937
0.0241400748491287
0.0211200471967458
0.0174251794815063
0.0130965691059827
0.0082431808114051
0.003033050103113
-0.0023277453146874
-0.0076216952875256
-0.012642016634345
-0.0172089710831642
-0.021182931959629
-0.0244724284857511
-0.0270344763994216
-0.028866920620203
-0.0299949292093515
-0.0304572116583585
-0.0302987694740295
-0.0295703969895839
-0.0283294655382633
-0.0266398731619119
-0.0245719365775585
-0.0222013015300035
-0.0196054093539714
-0.0168589130043983
-0.0140294190496206
-0.0111739439889788
-0.0083368765190243
-0.0055488506332039
-0.0028266217559576
-0.0001763012260198
0.0024002566933631
0.0049008587375283
0.0073220105841755
0.009657647460699
0.0118965748697519
0.0140219656750559
0.0160142481327056
0.0178558621555566
0.0195339750498533
0.0210384167730808
0.0223594084382057
0.0234897434711456
0.0244288351386785
0.0251847729086875
0.0257730968296527
0.0262136720120906
0.026528887450695
0.0267421230673789
0.0268730148673057
0.0269324295222759
0.0269225463271141
0.0268407631665468
0.0266832150518894
0.0264462269842624
0.0261265337467193
0.0257218703627586
0.0252324789762496
0.0246628616005182
0.0240220744162797
0.0233215987682342
0.0225709415972232
0.0217708405107259
0.0209032520651817
0.0199193283915519
0.0187311004847288
0.0172151178121566
0.0152318924665451
0.012655253522098
0.0094005744904279
0.0054446114227175
0.0008354326710104
-0.0043074581772089
-0.0098028741776943
-0.0154256885871291
-0.0209305714815855
-0.0260802861303091
-0.0306734181940555
-0.0345639884471893
-0.0376683957874774
-0.0399603322148323
-0.0414579585194587
-0.0422094501554966
-0.0422813817858696
-0.0417492352426052
-0.0406883135437965
-0.0391692891716957
-0.0372614860534668
-0.0350382924079895
-0.0325774550437927
-0.0299559645354747
-0.0272450223565101
-0.0245072320103645
-0.0217935126274824
-0.0191396363079547
-0.0165650565177202
-0.014074370265007
-0.0116598540917038
-0.0093061076477169
-0.0069971196353435
-0.004721337929368
-0.0024720213841646
-0.0002465192228555
0.0019522526999935
0.0041136252693831
0.0062175849452614
0.0082352496683597
0.0101340617984533
0.0118854492902755
0.0134698739275336
0.0148781817406415
0.0161108523607254
0.0171755421906709
0.0180833861231803
0.0188466310501098
0.0194788444787263
0.0199954882264137
0.0204127114266157
0.0207444913685321
0.0210002567619085
0.0211843978613615
0.0212972722947597
0.0213371161371469
0.0213017798960208
0.0211892686784267
0.0209975447505712
0.0207247920334339
0.0203711166977882
0.0199403036385774
0.0194384548813104
0.0188687462359666
0.0182234458625316
0.0174737609922885
0.016560710966587
0.0153934769332408
0.0138586480170488
0.0118379592895507
0.0092303985729813
0.0059741074219346
0.0020636767148971
-0.0024396367371082
-0.0074072196148335
-0.0126535715535283
-0.0179552622139453
-0.0230752527713775
-0.0277913380414247
-0.0319228544831275
-0.0353466644883155
-0.0379990935325622
-0.0398667268455028
-0.0409733578562736
-0.041369654238224
-0.0411247983574867
-0.0403175950050354
-0.0390295758843421
-0.037342332303524
-0.035335998982191
-0.0330870263278484
-0.0306666605174541
-0.0281382352113723
-0.0255513694137334
-0.022938709706068
-0.0203197970986366
-0.0177063923329114
-0.0151044158264994
-0.0125152915716171
-0.0099377445876598
-0.0073688132688403
-0.0048049050383269
-0.0022434694692492
0.0003153569996356
0.0028680050745606
0.00540685467422
0.0079182125627994
0.0103810103610157
0.0127691095694899
0.0150557551532983
0.0172162726521492
0.0192275270819664
0.0210671052336692
0.0227146483957767
0.0241543389856815
0.0253774225711822
0.0263837613165378
0.0271815918385982
0.0277861133217811
0.0282175857573747
0.0284983459860086
0.0286487154662609
0.0286841914057731
0.0286167412996292
0.0284585449844598
0.02822245657444
0.0279169026762247
0.0275408215820789
0.0270856656134128
0.0265430603176355
0.0259098187088966
0.0251869484782218
0.0243745222687721
0.0234613865613937
0.0224112942814826
0.0211541932076215
0.0195894725620746
0.0175994522869586
0.0150672607123851
0.0118980454280972
0.0080441953614354
0.0035265237092971
-0.001558132469654
-0.0070438776165246
-0.0127134164795279
-0.0183222070336341
-0.023625373840332
-0.0284038670361042
-0.0324859321117401
-0.0357606969773769
-0.0381816104054451
-0.0397591069340705
-0.040546178817749
-0.040622778236866
-0.040082462131977
-0.0390214510262012
-0.0375295802950859
-0.0356848537921905
-0.0335550568997859
-0.0312043260782957
-0.0286963712424039
-0.0260925907641649
-0.0234499666839838
-0.0208180602639913
-0.0182325951755046
-0.0157103314995765
-0.0132501330226659
-0.0108371097594499
-0.0084470547735691
-0.0060538300313055
-0.0036380905658006
-0.001191864721477
0.0012815156951546
0.0037689921446144
0.0062492000870406
0.008694383315742
0.0110730491578578
0.0133515149354934
0.0154949827119708
0.0174706652760505
0.0192518979310989
0.0208214670419693
0.0221737250685691
0.0233142077922821
0.0242565311491489
0.0250182263553142
0.0256168283522129
0.0260674748569726
0.0263841021806001
0.0265822000801563
0.0266779027879238
0.0266837645322084
0.0266062710434198
0.0264465659856796
0.0262024588882923
0.0258715189993381
0.0254543051123619
0.0249558091163635
0.0243866294622421
0.0237638372927904
0.0231074281036853
0.0224308967590332
0.0217273142188787
0.0209541227668523
0.0200238078832626
0.0188085846602916
0.0171600021421909
0.0149359954521059
0.0120283337309956
0.0083865514025092
0.0040346728637814
-0.0009224051609635
-0.0063057676889002
-0.0118826488032937
-0.0173942018300294
-0.0225850827991962
-0.027232676744461
-0.0311705917119979
-0.034299399703741
-0.036584049463272
-0.0380431301891803
-0.0387361943721771
-0.038752444088459
-0.0381993651390075
-0.0371899828314781
-0.0358318835496902
-0.0342199653387069
-0.0324315875768661
-0.0305243618786335
-0.0285372287034988
-0.0264933165162801
-0.0244023725390434
-0.0222619455307722
-0.0200592074543237
-0.0177756771445274
-0.0153941009193658
-0.0129021070897579
-0.0102902837097644
-0.007552464492619
-0.0046919262968003
-0.0017258008010685
0.0013163555413484
0.0043971636332571
0.0074767344631254
0.0105164172127842
0.0134803131222724
0.0163354910910129
0.01905158162117
0.0216012578457593
0.0239617433398962
0.0261159185320138
0.028053505346179
0.0297723971307277
0.0312787480652332
0.0325856581330299
0.0337109863758087
0.03467508405447
0.0354995094239711
0.0362057238817215
0.0368118770420551
0.0373298786580562
0.03776516020298
0.0381165146827697
0.0383752658963203
0.0385262742638587
0.0385510623455047
0.0384328886866569
0.0381625145673751
0.0377406924962997
0.0371735356748104
0.0364592336118221
0.0355703383684158
0.0344417840242385
0.0329723060131073
0.0310380477458238
0.0285139698535203
0.0252994932234287
0.0213425643742084
0.0166561901569366
0.011324718594551
0.0054998323321342
-0.0006123222410678
-0.0067720711231231
-0.0127326156944036
-0.0182655062526464
-0.0231810733675956
-0.0273443218320608
-0.0306853428483009
-0.0332010835409164
-0.0349489040672779
-0.0360339730978012
-0.0365912541747093
-0.036766231060028
-0.0366998985409736
-0.0365175083279609
-0.0363181345164775
-0.0361667275428772
-0.0360923148691654
-0.0360914431512355
-0.0361337475478649
-0.0361701846122741
-0.0361448116600513
-0.0360068753361702
-0.0357189252972602
-0.035259585827589
-0.0346233136951923
-0.0338191539049148
-0.0328687019646167
-0.0318034999072551
-0.0306615754961967
-0.0294833816587924
-0.0283078625798225
-0.027167797088623
-0.0260850042104721
-0.0250677317380905
-0.0241111032664775
-0.0232006013393402
-0.0223190560936927
-0.0214546453207731
-0.0206043440848588
-0.0197711922228336
-0.0189582891762256
-0.0181637331843376
-0.0173802524805068
-0.0165978521108627
-0.0158057883381843
-0.0149944992735981
-0.0141587611287832
-0.0133007951080799
-0.0124303381890058
-0.0115601196885108
-0.0106992628425359
-0.0098481196910142
-0.0089983670040965
-0.0081423483788967
-0.0072883418761193
-0.0064728278666734
-0.0057651703245937
-0.005263396538794
-0.0050815884023904
-0.005332232452929
-0.0061062220484018
-0.0074539096094667
-0.0093713589012622
-0.0117940232157707
-0.0145999481901526
-0.0176219772547483
-0.0206649769097566
-0.0235253050923347
-0.0260105319321155
-0.0279581286013126
-0.0292519889771938
-0.0298321209847927
-0.0296935625374317
-0.0288761146366596
-0.0274512246251106
-0.0255110617727041
-0.0231584031134843
-0.020495731383562
-0.0176155865192413
-0.0145949237048625
-0.0114957205951213
-0.0083688721060752
-0.0052549429237842
-0.0021808147430419
0.0008425824344158
0.0038161128759384
0.0067439973354339
0.0096281245350837
0.0124675128608942
0.0152608733624219
0.018009440973401
0.0207162033766508
0.0233798623085021
0.0259884893894195
0.0285185258835554
0.0309371668845415
0.0332050994038581
0.0352803990244865
0.037122868001461
0.0386987552046775
0.0399855226278305
0.0409724600613117
0.041657481342554
0.0420453138649463
0.0421474426984787
0.041981678456068
0.0415721125900745
0.0409495756030082
0.0401506945490837
0.0392144732177257
0.038177516311407
0.0370710492134094
0.0359219759702682
0.0347552821040153
0.033593975007534
0.0324574746191501
0.0313606895506382
0.0303114466369152
0.0293038301169872
0.0283086262643337
0.0272646397352218
0.0260786600410938
0.0246394835412502
0.0228394642472267
0.020593799650669
0.0178567748516798
0.0146355964243412
0.0109967663884162
0.0070615895092487
0.0029917769134044
-0.0010314919054508
-0.0048299394547939
-0.00824711099267
-0.0111611634492874
-0.0134926438331604
-0.0152088664472103
-0.016321524977684
-0.0168754383921623
-0.0169347785413265
-0.0165730379521846
-0.0158666521310806
-0.0148903056979179
-0.0137130580842494
-0.0123954750597476
-0.0109879896044731
-0.0095300488173961
-0.0080488473176956
-0.0065576545894145
-0.0050566308200359
-0.0035377591848373
-0.001991007477045
-0.0004086568951606
0.0012130662798881
0.0028738491237163
0.0045681856572628
0.0062834545969963
0.0079996045678853
0.0096918120980262
0.0113354586064815
0.0129098184406757
0.0143978204578161
0.0157841295003891
0.0170543305575847
0.0181961171329021
0.0192025564610958
0.0200735703110694
0.0208131913095712
0.0214274786412715
0.021925063803792
0.0223168581724166
0.0226149745285511
0.0228316001594066
0.0229754149913787
0.0230444651097059
0.0230167880654335
0.0228423494845628
0.0224420856684446
0.0217186622321605
0.0205780752003192
0.0189546458423137
0.0168287456035614
0.0142325293272733
0.0112488558515906
0.008005591109395
0.0046609221026301
0.0013814885169267
-0.0016785701736807
-0.0043928599916398
-0.0066725309006869
-0.0084702875465154
-0.0097772730514407
-0.0106154717504978
-0.0110305994749069
-0.0110871354117989
-0.0108624082058668
-0.010437598451972
-0.0098883174359798
-0.009278854355216
-0.0086618280038237
-0.0080789485946297
-0.0075577604584395
-0.0071079260669648
-0.006722695659846
-0.0063825864344835
-0.0060574142262339
-0.0057105682790279
-0.0053068799898028
-0.0048189708031713
-0.0042304946109652
-0.0035391403362154
-0.0027589504607021
-0.0019174227491021
-0.0010474934242665
-0.0001816498115658
0.0006482601165771
0.0014108456671237
0.0020788544788956
0.0026339516043663
0.0030689919367432
0.003387470729649
0.0036021647974848
0.0037327520549297
0.00379872135818
0.0038090487942099
0.0037532774731516
0.0035939235240221
0.0032614599913358
0.0026572700589895
0.001667546108365
0.0001845564693212
-0.0018709637224674
-0.0045300461351871
-0.007761999964714
-0.0114714093506336
-0.0155066642910242
-0.0196778234094381
-0.0237802974879741
-0.0276201367378234
-0.03103494271636
-0.0339047573506832
-0.036153744906187
-0.0377480871975421
-0.0386915579438209
-0.0390173457562923
-0.0387780852615833
-0.0380374863743782
-0.0368644446134567
-0.0353298559784889
-0.0335057824850082
-0.0314629673957824
-0.0292658917605876
-0.0269699245691299
-0.0246197432279586
-0.0222460310906171
-0.0198646690696477
-0.0174816250801086
-0.0150991706177592
-0.0127183087170124
-0.0103378584608435
-0.0079537164419889
-0.0055603757500648
-0.0031557013280689
-0.0007462679641321
0.0016521298093721
0.0040174415335059
0.006323046516627
0.0085394447669386
0.0106376176699996
0.0125912651419639
0.0143773760646581
0.0159782841801643
0.0173858534544706
0.0186043102294206
0.0196489747613668
0.02054307423532
0.0213154759258031
0.0219960734248161
0.0226028598845005
0.0231235679239034
0.0235027372837066
0.0236396994441747
0.0233968924731016
0.0226189866662025
0.0211605466902256
0.0189160127192735
0.0158462151885032
0.0119941886514425
0.0074849701486527
0.0025112638249993
-0.0026894267648458
-0.0078613078221678
-0.0127568785101175
-0.0171609967947006
-0.020910196006298
-0.0239031091332435
-0.026098184287548
-0.0275015346705913
-0.0281521379947662
-0.0281090810894966
-0.0274420138448476
-0.0262241419404745
-0.0245273150503635
-0.0224209111183881
-0.0199751500040292
-0.0172654502093791
-0.0143737997859716
-0.0113855004310607
-0.0083808079361915
-0.0054247095249593
-0.0025619585067033
0.000181192997843
0.0027938820421695
0.0052780578844249
0.0076445797458291
0.0099090058356523
0.012088680639863
0.0141993081197142
0.016249967738986
0.0182388871908187
0.0201531462371349
0.0219722464680671
0.0236722044646739
0.0252283215522766
0.0266169607639312
0.0278181582689285
0.0288186687976121
0.0296119693666696
0.0301969051361084
0.0305788721889257
0.0307714417576789
0.0307948607951402
0.0306728668510913
0.0304288864135742
0.0300787724554538
0.0296192727982997
0.0290148872882127
0.0281895957887172
0.0270303152501583
0.0254014898091554
0.0231671892106533
0.0202181842178106
0.0164967086166143
0.0120115568861365
0.0068447357043623
0.0011515095829963
-0.0048507498577237
-0.0109069347381591
-0.016755411401391
-0.0221576020121574
-0.0269208420068025
-0.0309116765856742
-0.034057829529047
-0.0363398119807243
-0.0377769991755485
-0.0384143553674221
-0.0383127257227897
-0.037542525678873
-0.0361813567578792
-0.0343144088983535
-0.0320335254073143
-0.0294336304068565
-0.0266080908477306
-0.0236442554742097
-0.0206201449036598
-0.0176017750054597
-0.0146406050771474
-0.0117715261876583
-0.009012334048748
-0.0063653136603534
-0.0038208349142223
-0.0013629976892843
0.001023503486067
0.0033474892843514
0.0056085176765918
0.0077975722961127
0.0098990686237812
0.0118928449228405
0.013757555745542
0.0154747441411018
0.0170305464416742
0.0184153765439987
0.0196236874908208
0.0206543300300836
0.0215107016265392
0.0221996922045946
0.0227308385074138
0.0231158826500177
0.0233668256551027
0.0234947875142097
0.0235104523599147
0.0234232321381568
0.0232406146824359
0.0229686424136161
0.0226100720465183
0.0221579223871231
0.0215848144143819
0.0208315011113882
0.0198012217879295
0.0183664765208959
0.0163883306086063
0.0137420520186424
0.0103438179939985
0.0061740335077047
0.0012919194996356
-0.0041628051549196
-0.0099839549511671
-0.0159248765558004
-0.0217269863933324
-0.0271461885422468
-0.0319760926067829
-0.0360646583139896
-0.0393204018473625
-0.0417078956961631
-0.0432366952300071
-0.0439486876130104
-0.0439061522483825
-0.0431813672184944
-0.0418493896722793
-0.0399857461452484
-0.0376677587628364
-0.0349767655134201
-0.0320003107190132
-0.0288324560970067
-0.0255691818892955
-0.0222996044903993
-0.0190966613590717
-0.0160102359950542
-0.0130650289356708
-0.0102639757096767
-0.0075948266312479
-0.0050367605872452
-0.002566082868725
-0.0001617682282812
0.0021895740646868
0.0044910735450685
0.0067356489598751
0.0089077847078442
0.0109856789931654
0.012943566776812
0.0147556830197572
0.0164017882198095
0.0178713276982307
0.0191628821194171
0.0202799197286367
0.0212277211248874
0.0220134183764457
0.0226474702358245
0.0231444425880908
0.023521726951003
0.0237961616367101
0.0239801444113254
0.0240795817226171
0.0240956470370292
0.024028368294239
0.0238779876381158
0.0236441139131784
0.0233243126422166
0.0229096133261919
0.0223738905042409
0.0216625891625881
0.0206900425255298
0.0193462595343589
0.0175104923546314
0.0150724537670612
0.0119588440284132
0.0081569086760282
0.003727551549673
-0.0011945180594921
-0.0064137601293623
-0.0116985505446791
-0.0168107543140649
-0.0215311795473098
-0.0256785359233617
-0.0291236601769924
-0.0317957252264022
-0.0336760319769382
-0.0347843095660209
-0.035166285932064
-0.0348843820393085
-0.0340100601315498
-0.0326186120510101
-0.0307873953133821
-0.0285964775830507
-0.0261289346963167
-0.0234687104821205
-0.0206969697028398
-0.0178883988410234
-0.0151072023436427
-0.0124030318111181
-0.0098078418523073
-0.0073353494517505
-0.0049848975613713
-0.0027471841312944
-0.0006070029921829
0.001455686520785
0.0034621215891093
0.005428506527096
0.0073610171675682
0.0092555424198508
0.0111006405204534
0.0128801725804805
0.0145750744268298
0.0161648113280534
0.0176291167736053
0.0189494676887989
0.02010964974761
0.0210970714688301
0.021905405446887
0.0225372910499572
0.0230052731931209
0.0233295261859893
0.0235340874642133
0.0236435532569885
0.0236785467714071
0.023650599643588
0.0235612783581018
0.0234062392264604
0.0231786835938692
0.022869111970067
0.0224654134362936
0.0219568442553281
0.021339813247323
0.0206205863505601
0.0198109857738018
0.0189176648855209
0.0179290901869535
0.0168043803423643
0.0154693219810724
0.0138236479833722
0.0117585016414523
0.0091792857274413
0.0060282461345195
0.0023027900606393
-0.0019342517480254
-0.00655620964244
-0.0113857928663492
-0.0162151586264371
-0.0208283569663763
-0.0250249318778514
-0.028642239049077
-0.0315693914890289
-0.0337493605911731
-0.0351735837757587
-0.0358731560409069
-0.0359085425734519
-0.0353596433997154
-0.0343160033226013
-0.0328674688935279
-0.0310975946485996
-0.0290818884968757
-0.0268897674977779
-0.0245854221284389
-0.0222251079976558
-0.0198528952896595
-0.0174989495426416
-0.015182695351541
-0.0129174208268523
-0.0107118729501962
-0.0085696903988718
-0.0064893681555986
-0.0044658007100224
-0.0024930301588028
-0.0005660653114318
0.001318774651736
0.0031624862458556
0.0049602244980633
0.0066989809274673
0.0083589432761073
0.009917888790369
0.0113557986915111
0.0126578882336616
0.0138157811015844
0.0148279629647731
0.0156992264091968
0.0164385586977005
0.0170582979917526
0.0175749007612466
0.0180075783282518
0.0183752700686454
0.0186945237219333
0.0189774185419082
0.0192294865846633
0.0194484237581491
0.019623240455985
0.019735462963581
0.0197636447846889
0.0196893773972988
0.0195023510605096
0.0192028731107711
0.0188002921640872
0.018305342644453
0.0177168324589729
0.0170075800269842
0.0161176603287458
0.0149603364989161
0.0134367747232317
0.011453378945589
0.0089409574866294
0.0058744335547089
0.0022874614223837
-0.0017234291881322
-0.0060067707672715
-0.0103738950565457
-0.0146214365959167
-0.0185535512864589
-0.0220021791756153
-0.024843918159604
-0.0270086489617824
-0.0284775253385305
-0.0292736105620861
-0.0294502042233943
-0.0290805827826261
-0.028250427916646
-0.027052229270339
-0.0255802348256111
-0.023925308138132
-0.0221689939498901
-0.0203767456114292
-0.0185941867530345
-0.016848986968398
-0.0151547249406576
-0.0135128842666745
-0.0119133349508047
-0.0103367399424314
-0.0087602557614445
-0.0071634515188634
-0.0055321753025054
-0.0038605611771345
-0.0021514203399419
-0.0004163868725299
0.001322831492871
0.0030347085557878
0.004681643564254
0.0062243733555078
0.0076261591166257
0.0088580856099724
0.0099023766815662
0.0107512343674898
0.0114042796194553
0.011867705732584
0.0121552124619483
0.0122879045084118
0.0122914463281631
0.0121943410485982
0.0120291374623775
0.0118319690227508
0.0116388332098722
0.0114822462201118
0.0113900434225797
0.0113846808671951
0.0114810224622488
0.0116839837282896
0.0119899194687604
0.0123910186812281
0.0128773972392082
0.0134359486401081
0.0140504911541938
0.0147039527073502
0.0153768174350261
0.0160395838320255
0.0166440214961767
0.0171175058931112
0.0173640307039022
0.0172760915011167
0.0167548507452011
0.0157299526035785
0.0141747901216149
0.0121174352243542
0.0096437623724341
0.0068899877369403
0.0040285610593855
0.0012507047504186
-0.001254784874618
-0.0033245151862502
-0.0048393118195235
-0.0057335486635565
-0.0059950132854282
-0.0056595155037939
-0.0048028309829533
-0.0035299588926136
-0.0019619343802332
-0.0002212636172771
0.0015807622112333
0.0033522164449095
0.0050251111388206
0.0065565174445509
0.0079262852668762
0.0091325435787439
0.0101855127140879
0.0111013455316424
0.0118981041014194
0.0125952782109379
0.0132143283262848
0.0137745812535285
0.0142866158857941
0.0147505225613713
0.0151595417410135
0.0155038274824619
0.0157714150846004
0.0159479342401027
0.0160166174173355
0.0159594304859638
0.015759527683258
0.0154030118137598
0.0148799549788236
0.014187067747116
0.0133303292095661
0.0123245045542716
0.0111898202449083
0.0099478680640459
0.0086187105625867
0.0072191953659057
0.0057606734335422
0.0042480491101741
0.0026835650205612
0.001072734594345
-0.0005735866725444
-0.0022424086928367
-0.0039226226508617
-0.0056059509515762
-0.0072849243879318
-0.0089513845741748
-0.0105979088693857
-0.0122205987572669
-0.0138235725462436
-0.0154272317886352
-0.0170754753053188
-0.0188355129212141
-0.0207910761237144
-0.0230312794446945
-0.0256361365318298
-0.0286607015877962
-0.0321196354925632
-0.0359763354063034
-0.0401407070457935
-0.0444749407470226
-0.048807255923748
-0.052953016012907
-0.0567372255027294
-0.0600135177373886
-0.0626784488558769
-0.064679704606533
-0.0660161823034286
-0.06672915071249
-0.0668872818350792
-0.0665715783834457
-0.0658648684620857
-0.0648445561528205
-0.0635772794485092
-0.0621171481907367
-0.0605060011148452
-0.058772325515747
-0.0569305978715419
-0.0549829229712486
-0.052920639514923
-0.0507251359522342
-0.0483703538775444
-0.0458291210234165
-0.043082345277071
-0.0401260405778884
-0.0369714125990867
-0.0336395502090454
-0.0301567949354648
-0.0265527479350566
-0.0228591561317443
-0.0191089771687984
-0.0153355542570352
-0.0115723833441734
-0.007853016257286
-0.0042091868817806
-0.0006666034460067
0.0027600936591625
0.0060692429542541
0.0092690512537956
0.0123721174895763
0.0153898447751998
0.0183283984661102
0.0211880467832088
0.0239651948213577
0.0266539733856916
0.0292453784495592
0.0317261852324008
0.0340814962983131
0.0363001674413681
0.0383786410093307
0.0403198450803756
0.0421279147267341
0.0438031777739524
0.0453376024961471
0.0467065572738647
0.0478602536022663
0.0487237498164176
0.0492081493139267
0.0492293387651443
0.048727847635746
0.0476840957999229
0.0461259111762046
0.0441267117857933
0.0417972952127456
0.0392754301428794
0.0367130115628242
0.034260556101799
0.0320511795580387
0.0301863811910152
0.0287269279360771
0.0276900455355644
0.0270523093640804
0.0267602056264877
0.0267452113330364
0.0269348882138729
0.0272587351500988
0.0276528559625148
0.0280635301023721
0.0284489374607801
0.0287805795669555
0.0290450323373079
0.0292447879910469
0.0293966084718704
0.0295270029455423
0.0296667907387018
0.0298461951315403
0.030088622123003
0.0304050166159868
0.0307939015328884
0.0312439352273941
0.0317347049713134
0.0322391167283058
0.0327281206846237
0.03317466750741
0.0335562005639076
0.0338551551103591
0.0340582393109798
0.0341560132801532
0.0341421887278556
0.0340137481689453
0.0337756462395191
0.0334488376975059
0.0330729521811008
0.0326984375715255
0.0323730558156967
0.0321286097168922
0.0319698601961135
0.0318659469485282
