bvp
0.0299653150141239
0.0287151373922824
0.0272817574441432
0.025557829067111
0.0233936533331871
0.0206259414553642
0.0171143263578414
0.0127734243869781
0.007595432922244
0.0016609104350209
-0.0048643443733453
-0.0117446724325418
-0.0186998341232538
-0.0254373252391815
-0.0316844433546066
-0.0372140631079673
-0.0418623313307762
-0.0455369725823402
-0.0482141189277172
-0.0499251186847686
-0.0507405810058116
-0.0507573522627353
-0.0500874519348144
-0.048847883939743
-0.0471525266766548
-0.0451068319380283
-0.0428044311702251
-0.0403231643140316
-0.0377187691628932
-0.0350201651453971
-0.0322327278554439
-0.0293478183448314
-0.0263506174087524
-0.0232234243303537
-0.0199492536485195
-0.0165177285671234
-0.0129285221919417
-0.0091910930350422
-0.0053249392658472
-0.0013628480955958
0.0026450417935848
0.0066325599327683
0.0105271972715854
0.0142620978876948
0.0177834331989288
0.0210535023361444
0.0240521840751171
0.0267768576741218
0.02924045920372
0.0314664766192436
0.0334805324673652
0.0353025421500206
0.0369438827037811
0.0384097844362258
0.0397031642496585
0.0408249124884605
0.0417710244655609
0.0425329953432083
0.0431027747690677
0.0434767790138721
0.0436569675803184
0.0436506047844886
0.0434685572981834
0.0431210808455944
0.0426132306456565
0.0419437363743782
0.0411075837910175
0.0400983802974224
0.0389054007828235
0.0375027656555175
0.0358364954590797
0.0338209420442581
0.0313475579023361
0.0283011756837368
0.0245828256011009
0.0201364122331142
0.0149703361093997
0.0091674048453569
0.0028818491846323
-0.0036742407828569
-0.0102520138025283
-0.0165917240083217
-0.0224495958536863
-0.0276210904121398
-0.031956348568201
-0.0353671722114086
-0.03782819211483
-0.0393743030726909
-0.0400938466191291
-0.0401164032518863
-0.0395975075662136
-0.0387024693191051
-0.0375889614224433
-0.0363918729126453
-0.0352135524153709
-0.0341163650155067
-0.0331190079450607
-0.0322036519646644
-0.0313303135335445
-0.0304480902850627
-0.0295011829584836
-0.0284338537603616
-0.0271971672773361
-0.0257574245333671
-0.0241030156612396
-0.0222459305077791
-0.0202185381203889
-0.0180679000914096
-0.015847947448492
-0.0136120012030005
-0.0114088281989097
-0.0092808390036225
-0.0072615197859704
-0.0053732013329863
-0.0036276734899729
-0.0020291791297495
-0.0005769920535385
0.000734596978873
0.0019171880558133
0.0029867892153561
0.0039604874327778
0.004853697028011
0.0056784669868648
0.0064429948106408
0.0071519245393574
0.007806809619069
0.0084074167534708
0.0089534036815166
0.0094451485201716
0.0098835891112685
0.010269452817738
0.0106017049401998
0.0108745517209172
0.0110728461295366
0.0111645609140396
0.0110896015539765
0.0107513349503278
0.0100207105278968
0.0087554510682821
0.0068276580423116
0.0041519557125866
0.000708834733814
-0.0034425086341798
-0.008165668696165
-0.0132607426494359
-0.0184851922094821
-0.0235777553170919
-0.0282830074429512
-0.032375544309616
-0.0356804654002189
-0.0380849428474903
-0.0395404659211635
-0.0400586985051631
-0.0397029072046279
-0.0385763347148895
-0.0368074178695678
-0.0345331877470016
-0.0318853966891765
-0.0289821475744247
-0.0259238295257091
-0.0227913968265056
-0.0196460094302892
-0.0165284145623445
-0.0134578514844179
-0.0104329213500022
-0.0074356608092784
-0.0044385772198438
-0.0014139674603939
0.0016574971377849
0.0047820191830396
0.007951159030199
0.0111423302441835
0.0143218152225017
0.0174486842006444
0.0204774811863899
0.0233613327145576
0.0260577350854873
0.0285352244973182
0.0307766180485487
0.0327778495848178
0.0345452278852462
0.0360928252339363
0.0374386273324489
0.0385990552604198
0.0395851768553257
0.0404033884406089
0.0410595722496509
0.0415628105401992
0.0419250652194023
0.0421581231057643
0.0422711856663227
0.042270328849554
0.0421595871448516
0.0419416986405849
0.0416173450648784
0.0411845482885837
0.0406385213136673
0.0399710834026336
0.0391690507531166
0.0382078737020492
0.0370392054319381
0.0355808325111866
0.0337176509201526
0.0313152857124805
0.0282444078475236
0.0244093723595142
0.019771484658122
0.0143620688468217
0.0082876347005367
0.0017274965066462
-0.0050801546312868
-0.0118628572672605
-0.0183433219790458
-0.0242683161050081
-0.0294327661395072
-0.0336969383060932
-0.03699367120862
-0.0393223315477371
-0.040733128786087
-0.0413105376064777
-0.0411610901355743
-0.0404035300016403
-0.03915785998106
-0.0375362038612365
-0.0356392189860343
-0.033555157482624
-0.0313580483198165
-0.0291054006665945
-0.0268362835049629
-0.0245709009468555
-0.0223137605935335
-0.0200599413365125
-0.0177998002618551
-0.0155199822038412
-0.0132053876295685
-0.0108441486954689
-0.0084320660680532
-0.005974868312478
-0.003488608635962
-0.0009977873414754
0.0014684163033962
0.0038807988166809
0.0062140887603163
0.0084483847022056
0.0105677712708711
0.0125584919005632
0.0144087020307779
0.0161076374351978
0.0176443383097648
0.0190092399716377
0.020197294652462
0.0212093852460384
0.0220515914261341
0.0227338410913944
0.0232691317796707
0.0236714351922273
0.0239507220685482
0.0241044498980045
0.0241038314998149
0.0238799974322319
0.0233219712972641
0.0222913790494203
0.0206479001790285
0.0182771701365709
0.0151171442121267
0.0111793689429759
0.0065583484247326
0.0014270029496401
-0.0039795245975255
-0.0093918722122907
-0.0145404385402798
-0.0191847644746303
-0.02313450910151
-0.0262609720230102
-0.0284988563507795
-0.0298422705382108
-0.0303383786231279
-0.0300789568573236
-0.0291895922273397
-0.027816193178296
-0.026108656078577
-0.02420499548316
-0.0222207214683294
-0.0202430840581655
-0.0183285381644964
-0.01650395616889
-0.0147690773010253
-0.0130989905446767
-0.0114503689110279
-0.0097729265689849
-0.0080215679481625
-0.0061637251637876
-0.0041817366145551
-0.0020734658464789
0.0001476043835282
0.0024520885199308
0.0047953641042113
0.0071230349130928
0.0093793207779526
0.0115128792822361
0.0134801641106605
0.0152479000389575
0.0167943313717842
0.018109917640686
0.0191967710852623
0.0200667418539524
0.0207403823733329
0.0212445463985204
0.0216053947806358
0.0218386612832546
0.0219364613294601
0.0218500364571809
0.0214788578450679
0.0206780117005109
0.0192838087677955
0.0171482823789119
0.0141717949882149
0.0103277536109089
0.0056770136579871
0.0003682351671159
-0.0053778025321662
-0.0112951137125492
-0.0171025842428207
-0.0225324742496013
-0.0273539405316114
-0.0313871279358863
-0.0345083661377429
-0.0366525389254093
-0.037813052535057
-0.0380344688892364
-0.0373999066650867
-0.0360187217593193
-0.0340155698359012
-0.0315208174288272
-0.0286627989262342
-0.0255618765950202
-0.0223253667354583
-0.0190432537347078
-0.0157850142568349
-0.012597294524312
-0.0095042353495955
-0.0065101077780127
-0.0036010919138789
-0.0007497007027268
0.0020743664354085
0.0048934808000922
0.007717041298747
0.0105397356674075
0.0133411893621087
0.0160892289131879
0.0187470484524965
0.0212791468948125
0.0236522629857063
0.0258338302373886
0.0277927089482545
0.0295037198811769
0.0309530459344387
0.0321409404277801
0.033079694956541
0.0337878875434398
0.0342849567532539
0.0345891937613487
0.0347186885774135
0.0346907973289489
0.0345155708491802
0.0341827012598514
0.0336457006633281
0.0328106097877025
0.0315370336174964
0.0296548586338758
0.0269933193922042
0.0234159845858812
0.0188550036400556
0.0133351534605026
0.0069799139164388
-1.8812716007232666e-07
-0.0073315110057592
-0.0147077310830354
-0.0218221005052328
-0.0283961836248636
-0.0342005565762519
-0.0390669666230678
-0.0428920499980449
-0.0456323102116584
-0.0472940802574157
-0.0479229763150215
-0.047593530267477
-0.046398963779211
-0.0444430038332939
-0.0418353453278541
-0.038689412176609
-0.0351208262145519
-0.031246306374669
-0.0271804425865411
-0.0230292677879333
-0.0188834648579359
-0.0148122906684875
-0.0108593199402093
-0.0070423185825347
-0.0033577261492609
0.0002108057960867
0.0036829411983489
0.0070753153413534
0.0103970468044281
0.0136459302157163
0.016808059066534
0.0198598578572273
0.0227687917649745
0.0254943631589412
0.0279937051236629
0.0302301365882158
0.0321784690022468
0.0338273160159587
0.0351808816194534
0.0362558774650096
0.0370745807886123
0.0376603081822395
0.0380346588790416
0.0382160581648349
0.0382199808955192
0.0380586050450801
0.0377407856285572
0.0372728817164897
0.0366591177880764
0.0359025299549102
0.0350052416324615
0.0339633151888847
0.0327552333474159
0.0313285402953624
0.0295899398624897
0.027405634522438
0.0246172174811363
0.0210705921053886
0.0166493020951747
0.0113038178533315
0.0050707999616861
-0.001921834424138
-0.0094651877880096
-0.0172911770641803
-0.0251018870621919
-0.0326024815440177
-0.0395292155444622
-0.0456677600741386
-0.0508626066148281
-0.0550173819065094
-0.0580881759524345
-0.0600742809474468
-0.0610086768865585
-0.0609497688710689
-0.0599756762385368
-0.058181632310152
-0.0556791722774505
-0.0525928176939487
-0.0490520521998405
-0.0451823100447654
-0.0410988330841064
-0.0369027853012084
-0.0326778478920459
-0.0284870918840169
-0.0243720766156911
-0.0203564632683992
-0.0164513178169727
-0.0126577373594045
-0.008969054557383
-0.0053753573447465
-0.0018679862841963
0.001557717914693
0.0049010142683982
0.008155190385878
0.0113071119412779
0.0143358781933784
0.0172105561941862
0.019890921190381
0.0223338697105646
0.0245020054280757
0.0263708494603633
0.027932783588767
0.0291964281350374
0.0301838144659996
0.0309274438768625
0.0314646922051906
0.0318299569189548
0.032049972563982
0.0321439616382122
0.0321251861751079
0.0320017226040363
0.0317775011062622
0.0314537249505519
0.031029962003231
0.0305054485797882
0.0298803467303514
0.029156170785427
0.0283351242542266
0.0274179857224226
0.0264010429382324
0.0252704918384552
0.0239907894283533
0.0224901121109724
0.0206544231623411
0.0183390062302351
0.0153948031365871
0.0117003135383129
0.0071902386844158
0.0018733721226453
-0.0041630025953054
-0.0107585163787007
-0.0176923852413892
-0.0247040148824453
-0.0315196178853511
-0.0378793478012084
-0.0435601472854614
-0.0483922809362411
-0.0522668957710266
-0.0551317036151886
-0.0569805055856704
-0.057845264673233
-0.0577890947461128
-0.0568955615162849
-0.0552576035261154
-0.0529721789062023
-0.0501414649188518
-0.0468759201467037
-0.0432922057807445
-0.0395035631954669
-0.035609170794487
-0.031688667833805
-0.027800478041172
-0.0239823684096336
-0.0202544536441564
-0.0166235193610191
-0.0130862751975655
-0.0096317287534475
-0.006245388649404
-0.0029140869155526
0.0003703846596181
0.0036071464419364
0.0067833513021469
0.0098749753087759
0.0128505453467369
0.0156765598803758
0.0183222480118274
0.0207630917429924
0.0229832362383604
0.0249748118221759
0.0267356988042593
0.0282690748572349
0.0295839365571737
0.0306945368647575
0.0316185839474201
0.0323752127587795
0.032983049750328
0.0334573648869991
0.033807098865509
0.0340346805751323
0.0341383405029773
0.0341141000390052
0.0339574888348579
0.0336664207279682
0.0332437045872211
0.0326969921588897
0.0320363268256187
0.0312709659337997
0.0304050110280513
0.0294280797243118
0.0283027235418558
0.0269582606852054
0.0252962298691272
0.0232033524662256
0.0205689296126365
0.0173064544796943
0.0133744748309254
0.0087911300361156
0.003641695715487
-0.0019230581820011
-0.0076997210271656
-0.0134531371295452
-0.0189418364316225
-0.0239443965256214
-0.0282806493341922
-0.0318224020302295
-0.0344939231872558
-0.0362687706947326
-0.0371676459908485
-0.0372552797198295
-0.0366321355104446
-0.0354210846126079
-0.033754639327526
-0.0317653901875019
-0.0295768324285745
-0.0272948965430259
-0.0250034630298614
-0.0227625612169504
-0.0206056889146566
-0.0185385532677173
-0.0165440551936626
-0.0145927052944898
-0.012652070261538
-0.0106902746483683
-0.0086778542026877
-0.0065942769870162
-0.0044354451820254
-0.0022160143125802
3.300863318145275e-05
0.0022687544114887
0.0044427681714296
0.0065087373368442
0.0084291286766529
0.0101785659790039
0.0117442104965448
0.0131248086690902
0.0143298096954822
0.0153777953237295
0.0162931345403194
0.0171030163764953
0.017835684120655
0.0185163356363773
0.0191610436886549
0.0197734646499156
0.020344752818346
0.0208551436662673
0.0212760455906391
0.0215678140521049
0.0216719526797533
0.0215048696845769
0.0209592413157224
0.0199147667735815
0.0182570666074752
0.0158993639051914
0.0128017850220203
0.0089855641126632
0.0045397067442536
-0.0003832052461802
-0.0055836015380918
-0.0108390841633081
-0.0159275792539119
-0.0206454191356897
-0.0248217638581991
-0.0283299479633569
-0.0310922767966985
-0.0330764204263687
-0.0342861227691173
-0.034750759601593
-0.0345182009041309
-0.0336506366729736
-0.0322207473218441
-0.0303086470812559
-0.0279981922358274
-0.0253740102052688
-0.0225225090980529
-0.0195312015712261
-0.0164816156029701
-0.0134400930255651
-0.0104520143941044
-0.0075427377596497
-0.0047228224575519
-0.0019914768636226
0.0006613554432988
0.0032502096146345
0.0057880477979779
0.0082818809896707
0.0107301771640777
0.0131224086508154
0.0154403615742921
0.0176591780036687
0.019748393446207
0.0216761548072099
0.0234155803918838
0.024948064237833
0.0262633003294467
0.0273597836494445
0.0282456390559673
0.0289367325603961
0.0294524580240249
0.0298125781118869
0.0300361849367618
0.0301410555839538
0.0301422215998172
0.0300505757331848
0.0298722703009843
0.0296082608401775
0.0292545799165964
0.0288049671798944
0.028254197910428
0.0275984779000282
0.0268322303891181
0.0259414203464984
0.024892633780837
0.0236234813928604
0.0220439881086349
0.0200488977134227
0.0175333395600318
0.0144100366160273
0.0106290914118289
0.0061961831524968
0.0011819601058959
-0.0042830165475606
-0.0100252963602542
-0.0158476904034614
-0.021544624119997
-0.026915643364191
-0.0317815020680427
-0.0360013283789157
-0.0394829101860523
-0.0421817414462566
-0.0440919920802116
-0.0452369041740894
-0.0456628538668155
-0.0454338453710079
-0.0446239337325096
-0.0433103181421756
-0.0415681526064872
-0.0394682250916957
-0.0370785221457481
-0.0344654098153114
-0.0316913686692714
-0.0288117136806249
-0.0258728824555873
-0.0229122396558523
-0.0199581813067197
-0.0170305334031581
-0.0141418268904089
-0.0112980334088206
-0.0084972772747278
-0.0057300515472888
-0.0029853363521397
-0.0002586520276963
0.0024448800832033
0.0051116365939378
0.0077203791588544
0.0102427937090396
0.0126457829028368
0.0148963835090398
0.0169682130217552
0.0188462696969509
0.0205275155603885
0.0220181755721569
0.0233299508690834
0.0244764983654022
0.0254713036119937
0.0263267792761325
0.0270534921437501
0.0276603773236274
0.0281565152108669
0.0285496227443218
0.0288402326405048
0.0290213432163
0.029085574671626
0.0290288068354129
0.0288474727421998
0.0285373907536268
0.0280955098569393
0.027519566938281
0.0268067009747028
0.0259541813284158
0.0249577760696411
0.023802351206541
0.0224486254155635
0.0208270549774169
0.0188447646796703
0.0164005756378173
0.0134034603834152
0.0097929714247584
0.0055563747882843
0.0007378784939646
-0.0045607853680849
-0.0101868938654661
-0.0159489959478378
-0.0216354019939899
-0.0270365253090858
-0.0319640412926673
-0.0362640917301178
-0.0398276597261428
-0.0425958782434463
-0.0445545241236686
-0.0457222126424312
-0.0461426712572574
-0.0458821877837181
-0.045025996863842
-0.0436713173985481
-0.0419185049831867
-0.0398625284433364
-0.0375876314938068
-0.0351648814976215
-0.0326496139168739
-0.0300800520926713
-0.0274792034178972
-0.0248580574989318
-0.0222190096974372
-0.0195582024753093
-0.0168654229491949
-0.0141254216432571
-0.0113254189491271
-0.0084656951949
-0.0055637275800108
-0.0026497561484575
0.0002395417541265
0.0030673025175929
0.0058030192740261
0.0084257908165454
0.010922510176897
0.0132836336269974
0.0155006507411599
0.0175668150186538
0.0194794088602066
0.0212421640753746
0.022866416722536
0.0243683792650699
0.0257636457681655
0.0270636435598135
0.0282751359045505
0.0294000543653965
0.0304344780743122
0.0313688144087791
0.0321909226477146
0.0328897982835769
0.0334559306502342
0.0338784419000148
0.0341428443789482
0.0342319644987583
0.0341286323964595
0.0338181145489215
0.0332908667623996
0.0325446352362632
0.0315829440951347
0.0304120071232318
0.0290385410189628
0.0274655744433403
0.0256851650774478
0.0236709080636501
0.0213740020990371
0.0187279284000396
0.0156625695526599
0.0121220154687762
0.0080808168277144
0.0035560950636863
-0.0013867123052477
-0.0066351764835417
-0.0120374523103237
-0.0174140632152557
-0.0225733071565628
-0.027332043275237
-0.0315372422337532
-0.0350790955126285
-0.0378946252167224
-0.0399671271443367
-0.0413219183683395
-0.0420158058404922
-0.0421238504350185
-0.0417291969060897
-0.0409160740673542
-0.0397645756602287
-0.0383474864065647
-0.0367283448576927
-0.0349602401256561
-0.0330860801041126
-0.0311393104493618
-0.02914366312325
-0.0271137207746505
-0.0250574555248022
-0.0229782667011022
-0.020874822512269
-0.0187396258115768
-0.016558215022087
-0.0143109783530235
-0.011977837421
-0.0095444815233349
-0.0070079239085316
-0.0043786698952317
-0.0016792966052889
0.0010588262230157
0.0037999032065272
0.0065094511955976
0.0091607039794325
0.0117378393188118
0.0142332222312688
0.0166415460407733
0.0189556404948234
0.021164771169424
0.0232541486620903
0.0252059530466794
0.0270019918680191
0.0286256521940231
0.0300602409988641
0.0312863439321517
0.0322834402322769
0.0330343954265117
0.03352802246809
0.0337585471570491
0.033724620938301
0.0334299430251121
0.0328843966126441
0.0321052335202693
0.031118880957365
0.029962046071887
0.0286805778741836
0.0273260977119207
0.0259491465985775
0.0245861485600471
0.0232423730194568
0.0218808110803365
0.0204244945198297
0.0187696926295757
0.0168044865131378
0.0144290132448077
0.0115735223516821
0.0082128951326012
0.004377513192594
0.0001558354124426
-0.0043148291297256
-0.0088658034801483
-0.0133184762671589
-0.0175061039626598
-0.0212902389466762
-0.0245695319026708
-0.0272824298590421
-0.029404904693365
-0.0309451017528772
-0.031936191022396
-0.032429352402687
-0.0324906334280967
-0.0321999080479145
-0.0316469632089138
-0.030924130231142
-0.0301170758903026
-0.0292959548532962
-0.028508648276329
-0.0277758091688156
-0.0270889401435852
-0.0264120884239673
-0.025684829801321
-0.0248285215348005
-0.0237585864961147
-0.022399365901947
-0.0206981413066387
-0.0186365731060504
-0.0162353105843067
-0.0135495504364371
-0.0106592066586017
-0.007657297886908
-0.0046383161097764
-0.0016893977299332
0.0011154829990118
0.0037206416018307
0.0060910456813871
0.0082094417884945
0.0100720692425966
0.0116865634918212
0.0130705758929252
0.0142492176964879
0.0152513645589351
0.016105018556118
0.0168317891657352
0.0174425262957811
0.0179371312260627
0.0183092467486858
0.0185534805059433
0.0186704844236373
0.0186683777719736
0.0185635071247816
0.0183803085237741
0.0181476734578609
0.0178930349647998
0.0176344420760869
0.0173690542578697
0.0170626118779182
0.0166467130184173
0.0160253662616014
0.0150885274633765
0.0137301189824938
0.0118690943345427
0.0094694625586271
0.0065531409345567
0.0032032914459705
-0.0004434967413544
-0.0042162225581705
-0.0079319458454847
-0.0114148911088705
-0.0145122716203331
-0.0171071980148553
-0.0191275291144847
-0.0205495469272136
-0.0213951393961906
-0.0217229202389717
-0.0216173734515905
-0.0211788080632686
-0.0205123294144868
-0.0197151228785514
-0.0188655722886323
-0.0180162824690341
-0.0171903502196073
-0.0163823533803224
-0.0155638689175248
-0.0146903470158576
-0.013709221035242
-0.0125694787129759
-0.0112298931926488
-0.0096635594964027
-0.0078583508729934
-0.0058160270564258
-0.0035536745563149
-0.0011052787303924
0.0014811102300882
0.0041492860764265
0.0068397065624594
0.009492595680058
0.0120510682463645
0.0144643746316432
0.0166905187070369
0.0186973214149475
0.0204613208770751
0.0219663605093956
0.0232027638703584
0.0241654496639966
0.024852292612195
0.0252652652561664
0.0254116430878639
0.0253025088459253
0.024951422587037
0.0243749059736728
0.0235933810472488
0.02263262309134
0.021525852382183
0.020314123481512
0.0190437976270914
0.0177628062665462
0.016516949981451
0.0153466137126088
0.0142845306545495
0.0133532993495464
0.0125614441931247
0.0118988640606403
0.0113304341211915
0.0107890050858259
0.0101750632748007
0.0093662478029727
0.0082330191507935
0.0066567957401275
0.0045481733977794
0.0018610646948218
-0.0013998709619045
-0.0051767202094197
-0.009360296651721
-0.0137988133355975
-0.0183121170848608
-0.0227081477642059
-0.0267998613417148
-0.0304211378097534
-0.0334404706954956
-0.0357714928686618
-0.0373770892620086
-0.0382656119763851
-0.0384836159646511
-0.0381068661808967
-0.0372280701994895
-0.0359451249241828
-0.034353420138359
-0.0325409062206745
-0.0305840112268924
-0.0285424143075943
-0.0264549069106578
-0.0243408307433128
-0.0222041811794042
-0.0200366005301475
-0.0178223699331283
-0.0155468676239252
-0.0132035296410322
-0.0107960570603609
-0.0083381691947579
-0.0058526978828012
-0.0033705346286296
-0.0009288103319704
0.0014345697127282
0.0036868834868073
0.0058009098283946
0.0077526536770164
0.009521409869194
0.0110910255461931
0.012451697140932
0.0136016746982932
0.014545639976859
0.0152913145720958
0.0158494636416435
0.0162362065166234
0.0164732448756694
0.0165867172181606
0.0166071280837059
0.0165693126618862
0.0165100805461406
0.0164607819169759
0.0164340119808912
0.0164108872413635
0.016337227076292
0.0161304324865341
0.0156948622316122
0.014941593632102
0.0138050047680735
0.0122527675703167
0.0102931531146168
0.0079797785729169
0.0054093250073492
0.0027118986472487
3.696000203490257e-05
-0.0024629239924252
-0.0046495380811393
-0.0064156153239309
-0.0076955589465796
-0.0084684947505593
-0.0087559130042791
-0.0086142811924219
-0.0081235561519861
-0.0073756673373281
-0.0064663290977478
-0.0054886694997549
-0.0045245606452226
-0.0036346251145005
-0.0028519579209387
-0.0021812967024743
-0.0016023940406739
-0.001076309941709
-0.0005532931536436
1.829676330089569e-05
0.0006839279085397
0.0014785486273467
0.0024241707287728
0.0035265730693936
0.0047728223726153
0.0061315353959798
0.0075555155053734
0.0089873149991035
0.0103681106120347
0.0116462185978889
0.0127819087356328
0.0137499682605266
0.0145407598465681
0.0151581987738609
0.0156160797923803
0.015934832394123
0.0161377135664224
0.0162461195141077
0.0162757933139801
0.0162361152470111
0.0161324124783277
0.0159664787352085
0.015730794519186
0.0153997018933296
0.0149242160841822
0.0142319751903414
0.0132315354421734
0.0118227023631334
0.0099140629172325
0.0074443207122385
0.0043999832123517
0.0008226777426898
-0.0031949221156537
-0.0075186309404671
-0.0119823031127452
-0.0163999777287244
-0.0205826163291931
-0.0243542082607746
-0.0275648571550846
-0.0301021263003349
-0.0318975634872913
-0.0329247415065765
-0.0331922471523284
-0.0327394381165504
-0.0316349118947982
-0.0299701280891895
-0.0278486981987953
-0.0253787823021411
-0.0226698294281959
-0.0198298320174217
-0.0169600788503885
-0.0141470786184072
-0.0114557240158319
-0.0089283678680658
-0.0065886075608432
-0.0044452557340264
-0.0024945270270109
-0.0007206997834146
0.0009037321433424
0.0024162419140338
0.0038590303156524
0.005271341651678
0.0066839475184679
0.0081186480820178
0.0095883170142769
0.0110937422141432
0.0126221980899572
0.0141525566577911
0.0156626384705305
0.0171325132250785
0.0185427404940128
0.0198711864650249
0.0210939347743988
0.0221903622150421
0.0231469199061393
0.0239571649581193
0.0246195364743471
0.0251351334154605
0.0255062356591224
0.0257352367043495
0.0258246511220932
0.0257768370211124
0.0255886036902666
0.0252399574965238
0.0246836040169
0.0238413047045469
0.0226088240742683
0.0208695642650127
0.0185144674032926
0.0154630783945322
0.0116817103698849
0.0071964198723435
0.0020990604534745
-0.0034556807950139
-0.0092637436464428
-0.0150921829044818
-0.0207019727677106
-0.025871455669403
-0.0304165612906217
-0.034202579408884
-0.0371469371020793
-0.0392151400446891
-0.0404122322797775
-0.0407733246684074
-0.0403568334877491
-0.0392401330173015
-0.0375140756368637
-0.0352766513824462
-0.0326289683580398
-0.0296728014945983
-0.0265066232532262
-0.0232200771570205
-0.019890634343028
-0.0165831539779901
-0.0133487954735755
-0.0102240517735481
-0.007232011295855
-0.0043843714520335
-0.0016846391372382
0.0008663565386086
0.0032662469893693
0.0055113150738179
0.0075990268960595
0.0095301214605569
0.0113092744722962
0.0129445418715476
0.0144459130242466
0.015823109075427
0.0170839373022317
0.0182340685278177
0.0192779898643493
0.0202214699238538
0.0210748054087162
0.0218532960861921
0.0225727576762437
0.023244671523571
0.0238757487386465
0.0244687665253877
0.0250215921550989
0.0255253762006759
0.0259635169059038
0.0263137407600879
0.0265524964779615
0.0266574323177337
0.0266084633767604
0.0263895001262426
0.025986460968852
0.0253779925405979
0.0245245434343814
0.0233622714877128
0.0218029636889696
0.019742077216506
0.0170762613415718
0.0137254958972334
0.0096525494009256
0.0048765856772661
-0.0005179587751626
-0.0063800336793065
-0.0125032356008887
-0.0186472851783037
-0.0245631337165832
-0.0300167184323072
-0.0348078534007072
-0.0387835949659347
-0.0418457984924316
-0.0439507067203521
-0.0451026707887649
-0.0453466325998306
-0.0447592623531818
-0.0434388890862464
-0.0414971336722373
-0.0390521697700023
-0.0362214893102645
-0.0331156849861145
-0.0298361219465732
-0.0264734420925378
-0.023104291409254
-0.019789483398199
-0.0165757331997156
-0.0134986536577343
-0.010584071278572
-0.0078479461371898
-0.0052983127534389
-0.0029394850134849
-0.0007738483254797
0.00119992159307
0.0029882546514272
0.0046024518087506
0.0060576722025871
0.0073700323700904
0.0085524749010801
0.0096134915947914
0.0105605022981762
0.0114042004570364
0.0121605908498168
0.0128509001806378
0.0134987607598304
0.0141247734427452
0.0147410109639167
0.0153481913730502
0.0159377008676528
0.01649528183043
0.0169998202472925
0.0174174942076206
0.0176968686282634
0.0177682749927043
0.0175472311675548
0.0169409550726413
0.0158589724451303
0.0142286699265241
0.0120122376829385
0.0092188548296689
0.0059092622250318
0.0021922020241618
-0.0017887110589072
-0.0058733085170388
-0.0098990136757493
-0.0137090515345335
-0.0171591788530349
-0.0201248526573181
-0.02250736951828
-0.0242373310029506
-0.0252761617302894
-0.0256166122853755
-0.0252809021621942
-0.0243163593113422
-0.0227917600423097
-0.0207939948886632
-0.0184206683188676
-0.0157702080905437
-0.0129351858049631
-0.0099987005814909
-0.0070294551551342
-0.0040761372074484
-0.0011666445061564
0.0016862405464053
0.004477946087718
0.0072072120383381
0.0098708737641572
0.0124590080231428
0.0149539886042475
0.0173331424593925
0.0195723809301853
0.0216487627476453
0.0235420167446136
0.0252350270748138
0.0267108082771301
0.0279478803277015
0.0289208814501762
0.0296069905161857
0.0299926716834306
0.0300778485834598
0.0298774782568216
0.0294212512671947
0.0287520475685596
0.0279221851378679
0.0269872490316629
0.0259991493076086
0.0250003207474946
0.0240189265459775
0.0230620838701725
0.0221067834645509
0.0210922807455062
0.0199186652898788
0.0184571761637926
0.0165733080357313
0.0141540579497814
0.0111291613429784
0.0074836937710642
0.0032638935372233
-0.0014248699881136
-0.0064283432438969
-0.01155836135149
-0.0166117548942565
-0.0213928595185279
-0.0257339440286159
-0.0295082442462444
-0.0326351597905159
-0.0350795537233352
-0.0368459671735763
-0.03796873614192
-0.0385017022490501
-0.0385088473558425
-0.038055632263422
-0.0372037589550018
-0.0360101982951164
-0.0345286056399345
-0.0328094065189361
-0.0308962911367416
-0.0288224127143621
-0.0266090873628854
-0.0242661125957965
-0.0217945389449596
-0.0191917307674884
-0.0164567716419696
-0.0135951470583677
-0.0106207812204957
-0.0075557711534202
-0.0044293678365647
-0.0012758197262883
0.0018676882609724
0.0049619758501648
0.0079666757956147
0.010842852294445
0.0135577283799648
0.0160878635942935
0.0184183791279792
0.0205404609441757
0.0224494133144617
0.0241430439054965
0.0256196931004524
0.0268761347979307
0.027907520532608
0.0287114251405
0.0292931608855724
0.0296671967953443
0.029853731393814
0.0298737064003944
0.0297444630414247
0.0294751357287168
0.0290614739060401
0.0284811221063137
0.0276897344738245
0.0266200583428144
0.0251876879483461
0.0233032535761594
0.0208861492574214
0.0178781282156705
0.0142581379041075
0.0100537575781345
0.0053437165915966
0.0002528214827179
-0.0050590359605848
-0.0104132276028394
-0.0156302042305469
-0.020545944571495
-0.0250248908996582
-0.028966337442398
-0.03230507299304
-0.03500771895051
-0.0370655208826065
-0.0384879484772682
-0.0393004715442657
-0.0395442210137844
-0.0392736792564392
-0.0385524593293666
-0.0374492593109607
-0.0360335782170295
-0.0343704856932163
-0.0325155369937419
-0.0305117890238761
-0.0283896010369062
-0.0261669028550386
-0.0238497331738472
-0.0214360430836677
-0.0189219936728477
-0.016305785626173
-0.0135873425751924
-0.0107688419520854
-0.0078588891774415
-0.0048754317685961
-0.0018439851701259
0.0012063952162861
0.0042458595708012
0.0072441836819052
0.0101713258773088
0.0130002917721867
0.0157094802707433
0.0182826817035675
0.0207081791013479
0.0229764990508556
0.0250785481184721
0.0270074699074029
0.0287608541548252
0.0303380023688077
0.0317340269684791
0.0329372957348823
0.0339336171746254
0.0347131639719009
0.0352731607854366
0.0356168821454048
0.0357544012367725
0.0357043333351612
0.0354921817779541
0.0351447686553001
0.0346844270825386
0.0341243557631969
0.033461146056652
0.0326637364923954
0.0316666066646575
0.030372105538845
0.0286609325557947
0.0264106839895248
0.0235190019011497
0.0199237540364265
0.0156169449910521
0.0106526669114828
0.0051470352336764
-0.0007328204810619
-0.0067883250303566
-0.012811972759664
-0.0186089836061
-0.0240142103284597
-0.028900671750307
-0.0331793315708637
-0.0367948412895202
-0.0397240743041038
-0.0419748276472091
-0.0435780882835388
-0.0445779003202915
-0.0450244173407554
-0.0449699461460113
-0.0444682985544204
-0.0435767322778701
-0.0423560142517089
-0.0408652201294899
-0.0391539335250854
-0.0372568629682064
-0.0351930633187294
-0.0329679958522319
-0.0305767934769392
-0.0280095357447862
-0.0252576302736997
-0.0223189927637577
-0.0192006789147853
-0.0159187205135822
-0.012495731934905
-0.008958438411355
-0.0053375074639916
-0.0016688425093889
0.0020052539184689
0.0056361216120421
0.009171687066555
0.0125620551407337
0.0157646108418703
0.0187460631132125
0.0214837938547134
0.023968132212758
0.0262000188231468
0.0281827934086322
0.0299162194132804
0.0313972197473049
0.0326233729720115
0.0335947573184967
0.0343152806162834
0.0347950533032417
0.035051342099905
0.0351071916520595
0.0349883995950222
0.0347206592559814
0.0343291498720645
0.0338378250598907
0.0332672521471977
0.0326340720057487
0.0319488085806369
0.0312093347311019
0.0303942821919918
0.0294577870517969
0.0283261351287364
0.0269005019217729
0.025067999958992
0.022718159481883
0.01976078748703
0.016142901033163
0.0118613047525286
0.0069672893732786
0.001564391888678
-0.00419875793159
-0.0101414378732442
-0.0160697344690561
-0.0217981785535812
-0.0271680057048797
-0.0320575423538684
-0.0363849401473999
-0.0401043146848678
-0.043197326362133
-0.0456641279160976
-0.0475160516798496
-0.0487711057066917
-0.0494513846933841
-0.0495813377201557
-0.0491888672113418
-0.0483080968260765
-0.0469787865877151
-0.0452437028288841
-0.0431480109691619
-0.0407390184700489
-0.0380642153322696
-0.0351680591702461
-0.0320887900888919
-0.0288569275289773
-0.0254963487386703
-0.0220268070697784
-0.0184657387435436
-0.0148289054632186
-0.0111314915120601
-0.0073908437043428
-0.0036303726956248
0.0001176632940769
0.0038124588318169
0.0074088331311941
0.0108640994876623
0.0141416396945714
0.0172093361616134
0.0200394112616777
0.0226111710071563
0.0249122865498065
0.0269377995282411
0.0286889262497425
0.030171662569046
0.0313953123986721
0.0323737524449825
0.0331280194222927
0.0336846970021724
0.0340720452368259
0.0343199670314788
0.0344610922038555
0.0345278680324554
0.034547284245491
0.0345360450446605
0.0344983823597431
0.0344279035925865
0.0343103408813476
0.0341246761381626
0.0338445678353309
0.0334393866360187
0.0328702144324779
0.0320802368223667
0.0309869535267353
0.0294847507029771
0.0274573788046836
0.0247955098748207
0.0214177183806896
0.0172911398112773
0.0124441804364323
0.0069674756377935
0.001005919650197
-0.0052551394328475
-0.0116080213338136
-0.0178422145545482
-0.0237618330866098
-0.0291996598243713
-0.0340272150933742
-0.0381590574979782
-0.0415505915880203
-0.0441917777061462
-0.0460991188883781
-0.0473077967762947
-0.0478664524853229
-0.0478340201079845
-0.0472765304148197
-0.0462634190917015
-0.0448633506894111
-0.0431396514177322
-0.0411459803581237
-0.0389242395758628
-0.0365066789090633
-0.0339188799262046
-0.0311795994639396
-0.0283004790544509
-0.0252891574054956
-0.0221540555357933
-0.0189086887985467
-0.0155739914625883
-0.0121776144951581
-0.0087519483640789
-0.0053339162841439
-0.0019661663100123
0.0013053598813712
0.0044380170293152
0.0073971655219793
0.0101571697741746
0.0127019565552473
0.0150260003283619
0.0171338953077793
0.0190376881510019
0.0207531545311212
0.0222970284521579
0.0236862748861312
0.0249384399503469
0.0260711573064327
0.0271006822586059
0.0280395504087209
0.0288932342082262
0.0296580791473388
0.0303218830376863
0.0308680459856987
0.0312829613685607
0.0315605625510215
0.0317004509270191
0.0317036174237728
0.0315693654119968
0.0312934294342994
0.0308675821870565
0.0302798487246036
0.0295109841972589
0.0285273287445306
0.0272740721702575
0.0256709828972816
0.0236167199909687
0.0210065729916095
0.0177561771124601
0.0138222463428974
0.0092187663540244
0.0040259817615151
-0.0016131410375237
-0.0075079756788909
-0.0134402653202414
-0.0191848613321781
-0.0245296582579612
-0.0292939003556966
-0.0333431363105773
-0.0365967899560928
-0.0390259325504303
-0.0406452901661396
-0.0415050834417343
-0.0416824519634246
-0.0412713624536991
-0.0403726957738399
-0.0390857271850109
-0.0375016666948795
-0.0356989279389381
-0.0337381996214389
-0.0316583402454853
-0.0294772498309612
-0.0271981619298458
-0.0248170476406812
-0.0223278291523456
-0.0197251141071319
-0.0170075856149196
-0.0141831077635288
-0.0112717254087328
-0.0083037689328193
-0.0053142365068197
-0.0023383544757962
0.0005889944732189
0.0034335767850279
0.0061634848825633
0.0087500102818012
0.0111680272966623
0.0133967986330389
0.0154212173074483
0.0172347649931907
0.0188441611826419
0.0202720426023006
0.0215534456074237
0.0227260813117027
0.0238208938390016
0.0248593762516975
0.0258551370352506
0.0268140472471714
0.0277336034923791
0.0286044292151927
0.0294135715812444
0.0301466453820467
0.0307880975306034
0.0313231609761714
0.0317405201494693
0.032030526548624
0.0321814604103565
0.0321793258190155
0.0320089906454086
0.0316508449614048
0.0310723166912794
0.0302208308130502
0.0290235262364149
0.0273926332592964
0.0252359751611948
0.0224737096577882
0.0190569870173931
0.0149818882346153
0.0102979950606822
0.0051126172766089
-0.0004128199070692
-0.0060770697891712
-0.011661353521049
-0.0169526003301143
-0.0217604972422122
-0.0259283185005188
-0.0293423384428024
-0.0319391041994094
-0.0337063819169998
-0.0346773788332939
-0.0349213071167469
-0.0345326997339725
-0.033620499074459
-0.03229820728302
-0.0306753814220428
-0.0288506112992763
-0.026906531304121
-0.024906862527132
-0.0228967871516942
-0.0209055915474891
-0.0189479924738407
-0.017026325687766
-0.0151369553059339
-0.0132767800241708
-0.0114448629319667
-0.0096411192789673
-0.0078664040192961
-0.0061247977428138
-0.0044256374239921
-0.0027832810301333
-0.0012155263684689
0.000258071348071
0.0016189431771636
0.0028530694544315
0.0039530233480036
0.0049178316257894
0.0057518919929862
0.0064633754082024
0.007062173448503
0.0075580761767923
0.0079598184674978
0.008276380598545
0.0085197556763887
0.0087058087810873
0.0088536841794848
0.0089850388467311
0.0091207744553685
0.0092745069414377
0.009443961083889
0.0096013490110635
0.0096866600215435
0.0096092838793993
0.0092572597786784
0.0085085611790418
0.0072443559765815
0.0053685000166296
0.0028294334188103
-0.0003645196557044
-0.0041384920477867
-0.0083533069118857
-0.0128191318362951
-0.0173178780823946
-0.0216278210282325
-0.0255460478365421
-0.0289063099771738
-0.0315889008343219
-0.0335211269557476
-0.0346733108162879
-0.0350545309484005
-0.0347064062952995
-0.0336947366595268
-0.032102070748806
-0.0300223026424646
-0.0275554396212101
-0.024800457060337
-0.0218472760170698
-0.0187708400189876
-0.0156288035213947
-0.0124631281942129
-0.0093039255589246
-0.0061731925234198
-0.0030871648341417
-5.7122670114040375e-05
0.0029102563858032
0.0058113588020205
0.0086414664983749
0.0113907605409622
0.014044246636331
0.016582703217864
0.0189816243946552
0.0212101880460977
0.0232331957668066
0.0250163339078426
0.0265311151742935
0.0277570076286792
0.0286827720701694
0.0293081644922494
0.0296456590294837
0.0297223627567291
0.0295805670320987
0.0292738713324069
0.0288580749183893
0.0283825509250164
0.0278878174722194
0.0274053234606981
0.0269558001309633
0.0265484191477298
0.0261810831725597
0.0258407369256019
0.0255027525126934
0.0251280330121517
0.0246578957885503
0.0240096244961023
0.0230788365006446
0.0217515677213668
0.0199206843972206
0.0175015814602375
0.0144472820684313
0.0107630873098969
0.0065165059641003
0.0018349902238696
-0.0031096751336008
-0.0081225419417023
-0.0130059430375695
-0.017577800899744
-0.0216861553490161
