bvp
0.0277978554368019
0.0284106116741895
0.0289362575858831
0.0293770488351583
0.0297304168343544
0.0299903228878974
0.0301478747278451
0.030192133039236
0.0301125776022672
0.0299024786800146
0.0295600909739732
0.0290842466056346
0.0284637734293937
0.0276636201888322
0.0266144815832376
0.0252133458852767
0.0233356617391109
0.020855700597167
0.0176733620464801
0.0137419709935784
0.0090871127322316
0.0038103573024272
-0.0019217347726225
-0.0078981891274452
-0.0138875395059585
-0.0196624156087636
-0.0250230748206377
-0.0298145972192287
-0.0339318066835403
-0.0373144224286079
-0.0399406850337982
-0.0418207719922065
-0.0429880395531654
-0.0434914007782936
-0.0433911010622978
-0.0427560433745384
-0.0416611172258853
-0.0401849895715713
-0.0384080931544303
-0.0364090465009212
-0.0342586413025856
-0.0320129543542861
-0.0297090020030736
-0.0273657608777284
-0.0249894093722105
-0.0225783493369817
-0.0201268624514341
-0.017629150301218
-0.0150830876082181
-0.0124928820878267
-0.0098700635135173
-0.0072321123443543
-0.0046010501682758
-0.0020034259650856
0.0005306204548105
0.0029706377536058
0.0052902442403137
0.0074705956503748
0.0095012225210666
0.0113788042217493
0.0131058152765035
0.0146894641220569
0.0161404404789209
0.0174705535173416
0.0186897944658994
0.0198061224073171
0.0208269618451595
0.0217581503093242
0.0226017013192176
0.0233543161302804
0.0240065343677997
0.0245450101792812
0.024957325309515
0.0252347253262996
0.0253725573420524
0.0253711901605129
0.0252373814582824
0.0249838065356016
0.0246242508292198
0.0241637844592332
0.0235860310494899
0.0228416435420513
0.0218432676047086
0.0204723291099071
0.0185986254364252
0.0161064267158508
0.0129194585606455
0.0090213157236576
0.0044677918776869
-0.0006131939589977
-0.0060340948402881
-0.0115699199959635
-0.0169868301600217
-0.0220699999481439
-0.0266431011259555
-0.0305776931345462
-0.0337946265935897
-0.0362595468759536
-0.0379745513200759
-0.0389684997498989
-0.0392890647053718
-0.0389992631971836
-0.0381761714816093
-0.0369065962731838
-0.0352794155478477
-0.0333795733749866
-0.0312857814133167
-0.0290670059621334
-0.0267744679003953
-0.0244342945516109
-0.022046323865652
-0.0195890627801418
-0.0170300770550966
-0.0143400840461254
-0.0115043520927429
-0.0085271429270505
-0.0054323021322488
-0.0022645210847258
0.0009108225349336
0.0040154703892767
0.006972168572247
0.0097150225192308
0.0121933128684759
0.0143733024597167
0.016238747164607
0.0177890360355377
0.0190371945500373
0.0200090892612934
0.0207424238324165
0.0212842002511024
0.0216862261295318
0.0219992287456989
0.0222666263580322
0.0225185453891754
0.022768871858716
0.0230173822492361
0.0232538357377052
0.0234618689864873
0.0236219819635152
0.0237132832407951
0.0237169228494167
0.0236211009323596
0.0234227757900953
0.0231241211295127
0.022725598886609
0.0222173146903514
0.0215686317533254
0.0207193158566951
0.0195798445492982
0.0180430375039577
0.0160037614405155
0.0133821684867143
0.010144243016839
0.0063163330778479
0.0019919900223612
-0.0026727579534053
-0.0074784867465496
-0.0122126266360282
-0.0166786313056945
-0.0207125283777713
-0.0241891592741012
-0.0270265862345695
-0.0291872434318065
-0.0306707303971052
-0.0315050482749938
-0.0317444764077663
-0.0314678139984607
-0.0307692643254995
-0.0297460071742534
-0.0284891538321971
-0.0270784944295883
-0.0255779735743999
-0.0240314938127994
-0.0224613472819328
-0.0208705272525548
-0.0192488394677639
-0.0175799299031496
-0.0158454701304435
-0.0140281356871128
-0.0121156154200434
-0.0101048033684492
-0.0080061759799718
-0.0058452794328331
-0.0036574574187397
-0.0014796280302107
0.0006566327065229
0.0027293369639664
0.004724393133074
0.0066305599175393
0.0084382118657231
0.0101416232064366
0.0117402793839573
0.0132378842681646
0.0146406069397926
0.0159563273191452
0.0171941332519054
0.0183628126978874
0.019467182457447
0.0205024778842926
0.021452073007822
0.0222901050001382
0.0229816567152738
0.0234743412584066
0.0236865263432264
0.0235061831772327
0.0228072740137577
0.0214771311730146
0.0194434225559234
0.0166917070746421
0.013271689414978
0.0092957727611064
0.0049306843429803
0.0003787561436183
-0.0041501643136143
-0.0084660267457365
-0.0124146109446883
-0.0158813744783401
-0.0187889225780963
-0.0210924632847309
-0.0227754116058349
-0.023846274241805
-0.0243350565433502
-0.0242877770215272
-0.0237609986215829
-0.0228181928396224
-0.0215275976806879
-0.0199598353356122
-0.0181838348507881
-0.0162619426846504
-0.0142473261803388
-0.0121842864900827
-0.0101072397083044
-0.008037463761866
-0.0059828786179423
-0.0039422372356057
-0.0019082194194197
0.0001308247447013
0.0021847859025001
0.004254846367985
0.0063326014205813
0.0084016742184758
0.0104383518919348
0.0124146435409784
0.0143039152026176
0.0160852260887622
0.0177440680563449
0.019270222634077
0.020656231790781
0.0218978319317102
0.0229935813695192
0.0239426679909229
0.0247442089021205
0.0254001542925834
0.0259181931614875
0.0263109095394611
0.0265924856066703
0.0267754681408405
0.0268683526664972
0.0268754921853542
0.0268004275858402
0.0266482084989547
0.026420334354043
0.0261033158749341
0.0256557129323482
0.0249984618276357
0.0240161679685115
0.022572923451662
0.0205385237932205
0.0178165454417467
0.0143649484962224
0.0102060278877615
0.0054273810237646
0.0001754704862833
-0.0053575881756842
-0.0109541909769177
-0.0163945816457271
-0.021479345858097
-0.0260500721633434
-0.0300010051578283
-0.0332752764225006
-0.0358528979122638
-0.0377403460443019
-0.0389635190367698
-0.0395614728331565
-0.0395806767046451
-0.0390730015933513
-0.0380974933505058
-0.036721222102642
-0.0350166708230972
-0.0330565869808197
-0.0309081636369228
-0.0286285504698753
-0.0262619331479072
-0.0238392315804958
-0.0213808715343475
-0.0188993588089942
-0.0164003055542707
-0.0138835981488227
-0.0113457236438989
-0.0087827704846858
-0.0061933672986924
-0.0035816049203276
-0.0009595598094165
0.0016517883632332
0.0042241769842803
0.0067253168672323
0.0091221090406179
0.0113842617720365
0.0134874917566776
0.0154123809188604
0.0171411447227001
0.0186594445258378
0.0199622213840484
0.0210574809461832
0.0219651013612747
0.0227113533765077
0.0233226772397756
0.0238214544951915
0.0242245011031627
0.0245437994599342
0.0247867032885551
0.0249543618410825
0.02504220046103
0.0250444337725639
0.0249572731554508
0.0247735101729631
0.0244677029550075
0.0239818375557661
0.0232221782207489
0.022068565711379
0.0203934181481599
0.0180868729948997
0.0150817148387432
0.0113717354834079
0.0070190019905567
0.002149318344891
-0.0030606230720877
-0.0084017571061849
-0.0136550264433026
-0.0186144784092903
-0.02310736104846
-0.0270068515092134
-0.0302358288317918
-0.0327622778713703
-0.0345873907208442
-0.0357335954904556
-0.0362400747835636
-0.0361622795462608
-0.0355680547654628
-0.0345307067036628
-0.0331236384809017
-0.0314180068671703
-0.0294815748929977
-0.0273759867995977
-0.025151940062642
-0.0228457003831863
-0.0204799845814704
-0.0180693641304969
-0.0156269539147615
-0.0131667517125606
-0.0107012372463941
-0.0082394424825906
-0.0057874135673046
-0.0033501889556646
-0.0009350678883492
0.0014458545483648
0.0037766334135085
0.0060412054881453
0.0082268323749303
0.0103250574320554
0.0123304901644587
0.0142392758280038
0.0160472430288791
0.0177471712231636
0.0193281695246696
0.0207781270146369
0.022085502743721
0.0232402794063091
0.024235937744379
0.0250711217522621
0.0257499553263187
0.026281090453267
0.0266753733158111
0.0269433446228504
0.0270944274961948
0.0271373428404331
0.0270801428705453
0.0269297566264867
0.0266915448009967
0.026366788893938
0.0259454678744077
0.0253969356417655
0.0246623046696186
0.0236510299146175
0.0222463831305503
0.0203226804733276
0.0177715867757797
0.0145296864211559
0.0105976434424519
0.0060457652434706
0.0010080896317958
-0.0043307561427354
-0.0097545068711042
-0.0150393126532435
-0.0199791248887777
-0.0244068130850791
-0.0282061658799648
-0.0313125252723693
-0.0337045602500438
-0.0353932157158851
-0.0364126898348331
-0.0368137881159782
-0.0366588160395622
-0.0360182896256446
-0.0349685214459896
-0.0335873588919639
-0.0319482684135437
-0.0301161650568246
-0.028145620599389
-0.0260789077728986
-0.0239447597414255
-0.0217612236738204
-0.0195409059524536
-0.0172943994402885
-0.0150318099185824
-0.0127627896144986
-0.0104949632659554
-0.0082326084375381
-0.0059775793924927
-0.0037326179444789
-0.0015040901489555
0.0006988095119595
0.0028664786368608
0.0049892412498593
0.0070562758482992
0.0090560633689165
0.0109764700755476
0.0128013957291841
0.0145087800920009
0.0160761475563049
0.017488420009613
0.0187402479350566
0.0198348611593246
0.0207817256450653
0.0215919464826583
0.0222744233906269
0.0228366404771804
0.0232881028205156
0.023641251027584
0.0239087268710136
0.0240997765213251
0.0242171976715326
0.0242517068982124
0.0241705160588026
0.0239061787724494
0.0233577229082584
0.0224074255675077
0.0209448020905256
0.0188886504620313
0.0162046700716018
0.0129182757809758
0.0091181341558694
0.0049473494291305
0.0005872761830687
-0.0037615189794451
-0.0079006822779774
-0.0116544906049966
-0.014885127544403
-0.017500901594758
-0.0194567460566759
-0.0207495559006929
-0.0214118994772434
-0.0215054489672184
-0.0211149025708436
-0.0203418657183647
-0.0192961618304252
-0.0180836375802755
-0.0167931821197271
-0.0154868997633457
-0.0141968866810202
-0.0129306381568312
-0.0116816069930791
-0.0104357758536934
-0.0091722374781966
-0.0078666470944881
-0.0065003931522369
-0.0050666853785514
-0.003569692838937
-0.002022610977292
-0.0004462574142962
0.001134704449214
0.0026964631397277
0.0042188731022179
0.0056857280433177
0.0070832911878824
0.0083993477746844
0.0096239633858203
0.0107503579929471
0.0117751704528927
0.0127002596855163
0.0135344937443733
0.0142899872735142
0.0149753047153353
0.0155927762389183
0.0161397904157638
0.0166110880672931
0.0170013010501861
0.0173067729920148
0.0175224877893924
0.0176301971077919
0.0175828337669372
0.01729641482234
0.0166550055146217
0.0155280698090791
0.0137969404458999
0.0113831926137208
0.0082697868347167
0.0045094480738043
0.0002186642959713
-0.0044390228576958
-0.0092733604833483
-0.0140869226306676
-0.0186923407018184
-0.0229280292987823
-0.0266710016876459
-0.0298411846160888
-0.0323963239789009
-0.0343221426010131
-0.0356229878962039
-0.0363170504570007
-0.0364351868629455
-0.0360184460878372
-0.0351136177778244
-0.0337722226977348
-0.032053917646408
-0.0300264153629541
-0.0277589466422796
-0.0253160521388053
-0.022755267098546
-0.0201255306601524
-0.0174654517322778
-0.0148025713860988
-0.0121532501652836
-0.0095242261886596
-0.0069162966683506
-0.0043285842984914
-0.0017616469413042
0.0007824366912245
0.0033007329329848
0.0057866317220032
0.0082260873168706
0.0105976238846778
0.0128751853480935
0.0150320697575807
0.0170454140752553
0.0188994985073804
0.0205873530358076
0.022110728546977
0.0234770085662603
0.024695161730051
0.0257748272269964
0.0267264936119318
0.0275596641004085
0.0282832868397235
0.0289096795022487
0.0294539220631122
0.0299273952841758
0.0303338766098022
0.0306700691580772
0.0309250093996524
0.0310738142579793
0.0310651380568742
0.0308101251721382
0.0301852244883775
0.0290506742894649
0.0272757150232791
0.0247630923986434
0.0214699115604162
0.0174229685217142
0.0127239199355244
0.00753910606727
0.0020765773952007
-0.003440728643909
-0.0087985200807452
-0.0138095831498503
-0.018326599150896
-0.0222475212067365
-0.0255128387361764
-0.0280975401401519
-0.0300033185631036
-0.0312534421682357
-0.0318872593343257
-0.0319540128111839
-0.0315109826624393
-0.030626144260168
-0.0293766744434833
-0.0278412215411663
-0.0260941796004772
-0.0242032594978809
-0.0222246684134006
-0.0201978962868452
-0.0181451383978128
-0.0160742662847042
-0.0139836408197879
-0.0118687879294157
-0.0097278598695993
-0.007562487386167
-0.0053759613074362
-0.0031733904033899
-0.0009640250355005
0.0012375703081488
0.0034129391424357
0.0055433032102882
0.0076120845042169
0.0096032842993736
0.0114984810352325
0.0132771888747811
0.0149214603006839
0.0164211951196193
0.0177745800465345
0.0189832393079996
0.0200484134256839
0.0209714528173208
0.0217559468001127
0.0224076099693775
0.0229315161705017
0.0233303774148225
0.0236069932579994
0.0237682946026325
0.0238241925835609
0.0237828865647315
0.0236510671675205
0.0234361346811056
0.0231405310332775
0.0227477364242076
0.0222080182284116
0.0214329939335584
0.0203045736998319
0.0186949931085109
0.016490414738655
0.0136150158941745
0.0100516527891159
0.005851749330759
0.0011322749778628
-0.0039363130927085
-0.0091493306681513
-0.0142934434115886
-0.0191717706620693
-0.0236203949898481
-0.0275157541036605
-0.0307762138545513
-0.0333589538931846
-0.0352537035942077
-0.0364760942757129
-0.0370623171329498
-0.0370661169290542
-0.0365562848746776
-0.0356113202869892
-0.0343118458986282
-0.0327330641448497
-0.0309401545673608
-0.0289890188723802
-0.02692805044353
-0.0247970893979072
-0.0226262230426073
-0.0204362403601408
-0.0182398147881031
-0.0160420034080743
-0.0138409491628408
-0.0116308694705367
-0.0094059919938445
-0.0071629798039793
-0.0049022850580513
-0.0026305466890335
-0.0003622793592512
0.0018831533379852
0.0040861321613192
0.00622638175264
0.0082800835371017
0.0102217206731438
0.012029742822051
0.0136902853846549
0.0151974968612194
0.0165524091571569
0.0177618339657783
0.0188360847532749
0.0197851210832595
0.0206166431307792
0.0213345400989055
0.0219299159944057
0.0223664678633213
0.0225729197263717
0.0224484372884035
0.0218763202428817
0.0207434706389904
0.0189659260213375
0.0165137611329555
0.0134247541427612
0.0098039209842681
0.0058121155016124
0.0016456630546599
-0.0024885856546461
-0.0063950805924832
-0.0099049629643559
-0.0128855826333165
-0.0152449654415249
-0.0169334672391414
-0.0179436914622783
-0.018306940793991
-0.0180872827768325
-0.0173756331205368
-0.016281621530652
-0.0149206407368183
-0.0133989565074443
-0.011802764609456
-0.0101937456056475
-0.0086092129349708
-0.0070643792860209
-0.0055552804842591
-0.0040623443201184
-0.002554515376687
-0.0009945165365934
0.0006540920585393
0.0024202819913625
0.0043198443017899
0.0063493242487311
0.0084817837923765
0.0106675485149025
0.012840581126511
0.0149280298501253
0.0168596245348453
0.0185761712491512
0.0200361870229244
0.0212185345590114
0.0221215039491653
0.0227605234831571
0.0231657307595014
0.0233786683529615
0.0234468672424554
0.0234178081154823
0.0233328379690647
0.0232194699347019
0.023086342960596
0.0229269042611122
0.0227253530174493
0.0224533081054687
0.0220584217458963
0.0214545130729675
0.0205209106206893
0.0191157441586256
0.0171014592051506
0.0143736004829406
0.0108836665749549
0.006652652285993
0.0017751231789588
-0.0035875034518539
-0.0092255407944321
-0.0149102946743369
-0.0204257108271121
-0.0255887657403945
-0.0302555337548255
-0.0343215316534042
-0.0377205088734626
-0.0404190011322498
-0.0424072407186031
-0.0436926297843456
-0.0442994534969329
-0.0442700535058975
-0.0436617583036422
-0.0425405353307724
-0.0409765914082527
-0.0390425473451614
-0.0368094332516193
-0.0343426018953323
-0.0317018069326877
-0.0289406776428222
-0.0261030942201614
-0.023220183327794
-0.0203093197196722
-0.017374712973833
-0.0144102685153484
-0.0114046288654208
-0.0083470046520233
-0.0052339946851134
-0.0020753340795636
0.0011072810739278
0.0042870696634054
0.0074367290362715
0.0105279181152582
0.0135279428213834
0.0163979493081569
0.0190966427326202
0.0215875525027513
0.0238438956439495
0.0258491914719343
0.0275982152670621
0.0290999636054039
0.0303774066269397
0.031461015343666
0.0323795042932033
0.0331537202000618
0.033795740455389
0.0343113914132118
0.0347045175731182
0.0349796041846275
0.0351392813026905
0.0351787433028221
0.0350813455879688
0.0348144173622131
0.0343214347958564
0.0335143022239208
0.0322763510048389
0.0304796975106
0.0280097667127847
0.0247892364859581
0.0207974314689636
0.0160822719335556
0.0107610067352652
0.0050084157846868
-0.0009628739207983
-0.0069250329397618
-0.012659702450037
-0.0179808158427476
-0.0227476004511117
-0.0268647260963916
-0.0302758291363716
-0.0329569913446903
-0.0349101126194
-0.0361571609973907
-0.0367373675107955
-0.0367044880986213
-0.0361226722598075
-0.0350628830492496
-0.0336001105606555
-0.0318101271986961
-0.0297656450420618
-0.027533346787095
-0.0251725669950246
-0.0227343719452619
-0.0202590581029653
-0.0177718251943588
-0.0152812181040644
-0.0127838980406522
-0.0102713089436292
-0.0077338488772511
-0.0051654241979122
-0.002569337375462
3.943266347050667e-05
0.0026368414983153
0.0051939059048891
0.0076802591793239
0.0100669991225004
0.0123293893411755
0.0144477449357509
0.0164050161838531
0.0181851424276828
0.0197753310203552
0.0211697556078434
0.0223711971193552
0.0233891606330871
0.0242362171411514
0.0249260030686855
0.0254738628864288
0.0258971229195594
0.0262131430208683
0.026437684893608
0.0265850014984607
0.0266674514859914
0.0266917925328016
0.026650995016098
0.0265141427516937
0.0262193586677312
0.0256727319210767
0.0247543398290872
0.0233324095606803
0.0212848186492919
0.0185236949473619
0.0150168985128402
0.0108009306713938
0.0059824688360095
0.0007285857573151
-0.0047527318820357
-0.0102377217262983
-0.0155113218352198
-0.0203869473189115
-0.0247202776372432
-0.0284147672355175
-0.0314180068671703
-0.0337134860455989
-0.0353129170835018
-0.0362496115267276
-0.0365733206272125
-0.0363477990031242
-0.0356477946043014
-0.034553475677967
-0.0331449247896671
-0.0314968675374984
-0.0296733733266592
-0.0277244597673416
-0.025684755295515
-0.0235742758959531
-0.0214025527238845
-0.0191741362214088
-0.0168919637799263
-0.0145585043355822
-0.0121776349842548
-0.009758360683918
-0.0073170284740626
-0.0048752999864518
-0.0024562487378716
-8.239303133450449e-05
0.0022241636179387
0.0044424724765121
0.006554502993822
0.0085457302629947
0.0104058822616934
0.0121311424300074
0.0137243010103702
0.0151909179985523
0.0165357515215873
0.0177624709904193
0.0188743285834789
0.0198739394545555
0.0207620579749345
0.0215363558381795
0.0221926048398017
0.0227281283587217
0.0231446903198957
0.0234483703970909
0.0236467011272907
0.0237455982714891
0.0237454883754253
0.0236336980015039
0.0233726426959037
0.0228889808058738
0.0220738109201192
0.0207976624369621
0.0189357548952102
0.0163982082158327
0.0131560582667589
0.0092539880424737
0.0048080226406455
-9.475275874137878e-06
-0.0049924599006772
-0.0099255098029971
-0.0146062411367893
-0.0188630577176809
-0.0225652270019054
-0.025624830275774
-0.027995167300105
-0.0296699106693267
-0.0306808426976203
-0.0310899540781974
-0.0309764482080936
-0.0304246731102466
-0.0295182056725025
-0.0283370558172464
-0.0269522406160831
-0.0254201330244541
-0.0237816888839006
-0.0220652148127555
-0.0202893577516078
-0.0184647738933563
-0.0165944639593362
-0.0146754467859864
-0.012704262509942
-0.0106837637722492
-0.0086253583431243
-0.0065453103743493
-0.0044601671397686
-0.0023851585574448
-0.00033446168527
0.0016785594634711
0.0036413439083844
0.0055422717705369
0.0073715909384191
0.0091230431571602
0.0107932519167661
0.0123782344162464
0.0138720348477363
0.0152672985568642
0.0165535602718591
0.0177169255912303
0.0187445636838674
0.0196295231580734
0.0203728396445512
0.0209837481379508
0.0214774664491415
0.0218708831816911
0.0221797190606594
0.0224194359034299
0.0226059015840291
0.0227509494870901
0.0228552240878343
0.0229018796235322
0.0228493884205818
0.0226243082433938
0.0221211165189743
0.0212142430245876
0.0197812803089618
0.0177309680730104
0.0150261064991354
0.0116948159411549
0.0078297676518559
0.0035774884745478
-0.0008785864338278
-0.0053375009447336
-0.0096015837043523
-0.0134966550394892
-0.0168870259076356
-0.0196827799081802
-0.0218387693166732
-0.0233484748750925
-0.0242387820035219
-0.0245663132518529
-0.0244122724980115
-0.0238736048340797
-0.0230490863323211
-0.0220254007726907
-0.0208700224757194
-0.0196303278207778
-0.0183361619710922
-0.0170037485659122
-0.0156386159360408
-0.0142372157424688
-0.0127892512828111
-0.0112820174545049
-0.0097048748284578
-0.0080519178882241
-0.0063235047273337
-0.0045283772051334
-0.0026857478078454
-0.0008243737975135
0.0010219394462183
0.0028201355598866
0.0045426655560731
0.0061691692098975
0.0076857120729982
0.0090840412303805
0.0103613892570137
0.0115207182243466
0.0125709427520632
0.0135263996198773
0.0144061660394072
0.0152307404205203
0.0160125140100717
0.016746774315834
0.0174121689051389
0.0179753508418798
0.018390379846096
0.018594566732645
0.0185073912143707
0.0180353559553623
0.0170838944613933
0.0155759090557694
0.0134718501940369
0.0107849361374974
0.0075869960710406
0.0040030721575021
0.0001979079097509
-0.0036421897821128
-0.0073314402252435
-0.0107071530073881
-0.013646038249135
-0.0160700622946023
-0.017942713573575
-0.0192616637796163
-0.0200529843568801
-0.0203654095530509
-0.0202627535909414
-0.0198172349482774
-0.0191047228872776
-0.0181997343897819
-0.0171709898859262
-0.0160783790051937
-0.0149675849825143
-0.0138635197654366
-0.0127703230828046
-0.0116776693612337
-0.0105668492615222
-0.0094156675040721
-0.0082032885402441
-0.00691535230726
-0.0055493377149105
-0.0041164220310747
-0.0026371970307081
-0.001135597936809
0.0003636803594417
0.0018351544858887
0.0032536089420318
0.004596805665642
0.0058477539569139
0.0069955307990312
0.0080355675891041
0.0089688897132873
0.0097993481904268
0.01053162291646
0.011171605437994
0.0117263747379183
0.0122037511318922
0.012613471597433
0.0129669466987252
0.013273193500936
0.0135351615026593
0.0137500502169132
0.013912153430283
0.0140163321048021
0.0140619501471519
0.0140538942068815
0.0139937009662389
0.0138619625940918
0.0136041101068258
0.0131300603970885
0.0123284328728914
0.0110890567302703
0.0093269292265176
0.0070030028000473
0.0041379425674676
0.0008153826929628
-0.0028273193165659
-0.0066178306005895
-0.0103705432265996
-0.013907522894442
-0.0170762874186038
-0.0197614133358001
-0.0218906980007886
-0.0234366282820701
-0.0244117267429828
-0.0248605106025934
-0.0248512513935565
-0.0244664512574672
-0.0237921699881553
-0.0229087676852941
-0.0218850411474704
-0.0207751244306564
-0.0196166336536407
-0.0184310972690582
-0.0172267481684684
-0.0160011313855648
-0.0147433206439018
-0.0134377805516123
-0.0120700355619192
-0.010631182231009
-0.0091193541884422
-0.0075399545021355
-0.0059039397165179
-0.004222678951919
-0.0025046709924936
-0.0007588742300868
0.000999747775495
0.0027486495673656
0.004460182506591
0.006105254869908
0.0076568028889596
0.0090939775109291
0.0104068517684936
0.0115983830764889
0.0126805324107408
0.013664674013853
0.0145492106676101
0.0153080523014068
0.0158853624016046
0.0162001438438892
0.0161580424755811
0.0156677290797233
0.0146610513329505
0.0131113342940807
0.0110427560284733
0.0085313273593783
0.0057001905515789
0.0027074357494711
-0.0002733096480369
-0.0030740583315491
-0.0055499384179711
-0.0075904624536633
-0.0091246683150529
-0.0101217459887266
-0.0105884289368987
-0.0105624878779053
-0.0101027516648173
-0.0092802261933684
-0.0081732496619224
-0.006863965652883
-0.0054331440478563
-0.0039534326642751
-0.0024823183193802
-0.0010568425059318
0.0003075189888477
0.0016141142696142
0.0028795907273888
0.004126246087253
0.0053748581558465
0.0066412910819053
0.0079379770904779
0.0092747900635004
0.010654529556632
0.0120695037767291
0.0135030597448349
0.0149311805143952
0.0163253061473369
0.0176584683358669
0.0189091637730598
0.0200606826692819
0.0211008731275796
0.0220235716551542
0.0228267591446638
0.0235082060098648
0.0240641515702009
0.0244908705353736
0.0247871596366167
0.0249568745493888
0.0250077620148658
0.0249432809650897
0.0247496403753757
0.024383183568716
0.0237638521939516
0.0227816849946975
0.0213176626712083
0.0192708075046539
0.0165836699306964
0.013260749168694
0.0093725798651576
0.0050446265377104
0.000438172603026
-0.0042711705900728
-0.0089125595986843
-0.0133329220116138
-0.0174050908535718
-0.0210318323224782
-0.0241459123790264
-0.026708785444498
-0.0287075359374284
-0.030148921534419
-0.0310536623001098
-0.0314522385597229
-0.0313809551298618
-0.0308808889240026
-0.0300013646483421
-0.0288018863648176
-0.027347695082426
-0.0257026441395282
-0.023923622444272
-0.0220567882061004
-0.0201353020966053
-0.0181792490184307
-0.0161976180970668
-0.014190599322319
-0.0121521605178713
-0.0100743379443883
-0.0079533345997333
-0.0057952706702053
-0.0036158575676381
-0.0014344830997288
0.0007277857512235
0.0028462246991693
0.0048947809264063
0.0068515134043991
0.0087009277194738
0.010432906448841
0.0120413014665246
0.0135233113542199
0.0148789640516042
0.0161103047430515
0.0172204803675413
0.0182133596390485
0.0190944671630859
0.0198724381625652
0.0205584019422531
0.0211626961827278
0.0216909386217594
0.022141508758068
0.0225053988397121
0.0227671675384044
0.0229040756821632
0.0228803604841232
0.0226376857608556
0.0220886375755071
0.0211210530251264
0.0196154080331325
0.0174699686467647
0.0146260261535644
0.0110861435532569
0.0069191362708806
0.0022529927082359
-0.0027384469285607
-0.0078545529395341
-0.0128921717405319
-0.0176680739969015
-0.022033454850316
-0.0258800759911537
-0.0291383024305105
-0.031769149005413
-0.0337572544813156
-0.0351071022450923
-0.0358390621840953
-0.0359862744808197
-0.0355942919850349
-0.0347203202545642
-0.0334296934306621
-0.0317907966673374
-0.0298711340874433
-0.0277367439121007
-0.0254517905414104
-0.0230733398348093
-0.0206438899040222
-0.018189113587141
-0.0157216154038906
-0.0132455052807927
-0.0107599906623363
-0.0082636158913373
-0.0057581709697842
-0.0032497551292181
-0.0007475987076759
0.0017370814457535
0.0041919061914086
0.0066038174554705
0.008958057500422
0.0112365195527672
0.0134173333644866
0.0154758570715785
0.0173875279724597
0.0191324222832918
0.0206992328166961
0.0220868829637765
0.0233040563762187
0.0243675708770751
0.0252993013709783
0.0261206068098545
0.026846807450056
0.0274855252355337
0.0280374716967344
0.0284985359758138
0.0288637168705463
0.029127137735486
0.029273722320795
0.0292678698897361
0.0290458370000123
0.028513915836811
0.0275550596415996
0.0260462574660778
0.023881884291768
0.0209970343858003
0.0173867605626583
0.0131140397861599
0.0083037503063678
0.00312772532925
-0.0022145267575979
-0.0075155664235353
-0.0125781912356615
-0.0172325782477855
-0.0213488675653934
-0.024840896949172
-0.0276621729135513
-0.0297973435372114
-0.0312545225024223
-0.0320622958242893
-0.0322675481438636
-0.0319305099546909
-0.0311202555894851
-0.0299129355698823
-0.0283893328160047
-0.0266285799443721
-0.0246998872607946
-0.022656213492155
-0.0205321423709392
-0.0183473620563745
-0.0161143019795417
-0.0138447154313325
-0.0115520618855953
-0.0092506995424628
-0.0069539058022201
-0.0046715675853192
-0.002408807631582
-0.0001679705455899
0.0020470474846661
0.0042276089079678
0.0063593788072466
0.0084243901073932
0.0104057816788554
0.0122917219996452
0.0140759199857711
0.0157545134425163
0.0173217076808214
0.0187679100781679
0.020080691203475
0.0212465934455394
0.0222540777176618
0.0230974666774272
0.0237790271639823
0.0243088193237781
0.0247034505009651
0.0249828305095434
0.0251656044274568
0.0252653118222951
0.0252891592681407
0.0252407304942607
0.0251229926943779
0.0249345488846302
0.0246584862470626
0.0242514908313751
0.0236392896622419
0.0227189250290393
0.0213687717914581
0.0194666069000959
0.0169128030538558
0.0136537821963429
0.0096984589472413
0.0051227463409304
6.279535591602325e-05
-0.005300442688167
-0.0107611650601029
-0.016109362244606
-0.0211513638496398
-0.0257278103381395
-0.0297224707901477
-0.0330600962042808
-0.0357010141015052
-0.0376364961266517
-0.0388824120163917
-0.0394723936915397
-0.0394533649086952
-0.0388851687312126
-0.0378423109650611
-0.0364107638597488
-0.0346784554421901
-0.0327262356877327
-0.0306229591369628
-0.0284221656620502
-0.0261599160730838
-0.0238578077405691
-0.0215297173708677
-0.0191850923001766
-0.0168280228972435
-0.0144573897123336
-0.0120695913210511
-0.0096621066331863
-0.0072373743169009
-0.0048051136545836
-0.0023806986864656
1.8391059711575508e-05
0.0023736252915114
0.0046639931388199
0.0068667056038975
0.0089616253972053
0.0109346657991409
0.0127757992595434
0.014475586824119
0.0160261113196611
0.0174241382628679
0.0186720415949821
0.0197765883058309
0.020746674388647
0.0215915646404027
0.0223207622766494
0.0229430813342332
0.0234638880938291
0.0238836240023374
0.024199690669775
0.0244101975113153
0.0245162043720483
0.0245216414332389
0.0244319718331098
0.0242510996758937
0.0239756815135478
0.0235870238393545
0.02304283156991
0.0222722291946411
0.0211774632334709
0.0196456890553236
0.0175701212137937
0.0148748448118567
0.0115354275330901
0.0075884824618697
0.0031301425769925
-0.0016933260485529
-0.0067015937529504
-0.0117003209888935
-0.0165020786225795
-0.0209451392292976
-0.0249042753130197
-0.0282903425395488
-0.0310454927384853
-0.033140979707241
-0.0345743894577026
-0.0353644303977489
-0.0355481654405593
-0.035180889070034
-0.0343339703977108
-0.0330887474119663
-0.0315292067825794
-0.029736440628767
-0.0277831219136714
-0.0257269982248544
-0.0236086659133434
-0.0214550606906414
-0.0192824564874172
-0.0170972626656293
-0.0148997856304049
-0.0126901417970657
-0.010470513254404
-0.0082442834973335
-0.0060157822445034
-0.0037916325964033
-0.0015819766558706
0.0006004436872899
0.0027418425306677
0.0048283790238201
0.0068486267700791
0.0087962532415986
0.0106691233813762
0.0124661456793546
0.0141857154667377
0.0158253125846385
0.0173802115023136
0.018841603770852
0.0201953426003456
0.0214231219142675
0.0225059427320957
0.0234271734952926
0.0241741221398115
0.0247391853481531
0.025122033432126
0.0253328196704387
0.0253939479589462
0.0253357924520969
0.0251823253929615
0.0249307602643966
0.0245377048850059
0.0239196587353944
0.0229657683521509
0.0215581730008125
0.0195966474711895
0.0170219782739877
0.0138317290693521
0.0100870281457901
0.0059093702584505
0.0014647543430328
-0.0030592624098062
-0.0074741910211741
-0.0116064464673399
-0.0153089752420783
-0.0184697229415178
-0.0210176315158605
-0.0229240804910659
-0.0241988338530063
-0.0248814728111028
-0.0250316932797431
-0.0247236415743827
-0.024042697623372
-0.023078080266714
-0.0219113677740097
-0.0206079948693513
-0.0192154720425605
-0.0177658144384622
-0.0162783376872539
-0.0147603675723075
-0.013207534328103
-0.0116089479997754
-0.0099558681249618
-0.0082461340352892
-0.0064832810312509
-0.0046752644702792
-0.0028350218199193
-0.0009807050228118
0.0008670315146446
0.0026878709904849
0.0044612251222133
0.0061649773269891
0.0077781230211257
0.0092869512736797
0.0106882313266396
0.0119860228151083
0.0131870452314615
0.0142975514754652
0.0153209958225488
0.0162571817636489
0.0171029213815927
0.0178537108004093
0.0185067970305681
0.0190638247877359
0.0195300094783306
0.0199108030647039
0.020207954570651
0.0204117484390735
0.0204880721867084
0.0203691758215427
0.0199568755924701
0.0191372409462928
0.0178026109933853
0.0158746242523193
0.0133214555680751
0.0101669542491436
0.0064912708476185
0.0024239663034677
-0.0018696775659918
-0.0062089492566883
-0.010419400408864
-0.0143485553562641
-0.0178734511137008
-0.0209030862897634
-0.0233787074685096
-0.0252716895192861
-0.0265786387026309
-0.0273153241723775
-0.0275119766592979
-0.027211494743824
-0.0264692455530166
-0.0253518335521221
-0.0239331647753715
-0.0222882907837629
-0.0204870738089084
-0.018589423969388
-0.0166427213698625
-0.0146810486912727
-0.0127247618511319
-0.0107806259766221
-0.0088443113490939
-0.006905642338097
-0.0049549830146133
-0.0029870579019188
-0.0010016169399023
0.0009954911656677
0.0029908784199506
0.0049637760967016
0.0068874382413923
0.0087317824363708
0.010468142107129
0.0120748309418559
0.0135399065911769
0.0148601941764354
0.016038553789258
0.017080757766962
0.0179939586669206
0.0187880210578441
0.0194771718233823
0.0200789831578731
0.0206106975674629
0.0210842918604612
0.0215023644268512
0.0218571871519088
0.0221336968243122
0.0223155841231346
0.022391190752387
0.022356217727065
0.0222137924283742
0.0219725929200649
0.0216437596827745
0.0212373454123735
0.0207600519061088
0.0202164873480796
0.0196103788912296
0.0189437828958034
0.0182165801525115
0.0174217075109481
0.0165334306657314
0.0154972970485687
0.0142296841368079
0.0126268416643142
0.0105812149122357
0.0080030160024762
0.0048412419855594
0.0010975804179906
-0.0031681591644883
-0.0078412806615233
-0.012764848768711
-0.0177589524537324
-0.0226419698446989
-0.0272492170333862
-0.0314450934529304
-0.0351293347775936
-0.038238525390625
-0.0407405011355876
-0.0426249131560325
-0.0438978523015975
-0.0445816256105899
-0.0447152778506279
-0.0443506985902786
-0.0435447357594966
-0.0423547141253948
-0.040838174521923
-0.0390504822134971
-0.0370410420000553
-0.0348526388406753
-0.0325220040977001
-0.0300791095942258
-0.0275479275733232
-0.0249490551650524
-0.0223013330250978
-0.0196224506944417
-0.0169283840805292
-0.0142322108149528
-0.0115455407649278
-0.0088803619146347
-0.0062472154386341
-0.0036539202556014
-0.0011082189157605
0.0013798074796795
0.0037985756061971
0.0061382031999528
0.0083927791565656
0.0105588929727673
0.0126326046884059
0.0146078309044241
0.0164771750569343
0.0182350650429725
0.0198790151625871
0.0214064139872789
0.0228117667138576
0.0240879282355308
0.0252283960580825
0.0262283291667699
0.0270861648023128
0.0278069227933883
0.0284035988152027
0.0288928709924221
0.0292879790067672
0.0295948050916194
0.0298121664673089
0.0299331042915582
0.0299451407045125
0.0298283100128173
0.0295494385063648
0.0290540046989917
0.0282617509365081
0.0270732231438159
0.0253869071602821
0.0231198817491531
0.0202271323651075
0.0167159773409366
0.012651776894927
0.0081541696563363
0.0033846490550786
-0.0014721509069204
-0.0062305345200002
-0.0107252104207873
-0.0148248365148901
-0.0184362642467021
-0.0215046070516109
-0.0240088161081075
-0.0259514711797237
-0.02734868042171
-0.0282247383147478
-0.0286103449761867
-0.0285429898649454
-0.0280676856637001
-0.0272358395159244
-0.0261021442711353
-0.0247207954525947
-0.0231434870511293
-0.0214190259575843
-0.0195924378931522
-0.0177026242017745
-0.0157784204930067
-0.0138358622789382
-0.0118795158341526
-0.0099063785746693
-0.0079111205413937
-0.0058917598798871
-0.0038515767082571
-0.0017961198464035
0.0002689538523554
0.0023364210501313
0.0043956320732831
0.0064324638806283
0.0084296083077788
0.0103648463264107
0.0122105749323964
0.0139388758689165
0.0155286593362689
0.0169701967388391
0.0182655490934848
0.0194248054176569
0.0204609632492065
0.0213858783245086
0.0222075320780277
0.0229294151067733
0.0235519148409366
0.0240737088024616
0.0244922116398811
0.0248045623302459
0.0250098314136266
0.0251096598803997
0.0251067765057086
0.0250043515115976
0.0248058661818504
0.0245147179812192
0.024135272949934
0.0236726067960262
0.0231252424418926
0.0224716588854789
0.0216583292931318
0.0205977018922567
0.0191792771220207
0.0172892212867736
0.014832193031907
0.011752407066524
0.0080505972728133
0.0037908582016825
-0.0009059514850378
-0.0058778426609933
-0.0109404567629098
-0.0159065909683704
-0.0206038579344749
-0.0248871445655822
-0.0286455303430557
-0.0318050161004066
-0.034326285123825
-0.0361981876194477
-0.0374326147139072
-0.0380625799298286
-0.0381387956440448
-0.0377237647771835
-0.0368874818086624
-0.0357060171663761
-0.0342591814696788
-0.0326235778629779
-0.0308637488633394
-0.0290266778320074
-0.0271407626569271
-0.0252171512693166
-0.0232517383992671
-0.021229300647974
-0.0191317033022642
-0.016946792602539
-0.0146728167310357
-0.0123179862275719
-0.0098987752571702
-0.0074384021572768
-0.0049641826190054
-0.0025055934675037
-9.476253762841225e-05
0.0022338670678436
0.004447516053915
0.0065211132168769
0.0084414584562182
0.010207382030785
0.0118269585072994
0.0133136995136737
0.0146834403276443
0.0159524790942668
0.0171354562044143
0.0182424150407314
0.0192772224545478
0.0202391874045133
0.0211256779730319
0.0219313949346542
0.0226456448435783
0.0232529956847429
0.0237373821437358
0.0240869019180536
0.0242977328598499
0.0243750885128974
0.0243308413773775
0.0241805985569953
0.0239417571574449
0.0236305017024278
0.0232539866119623
0.0227964799851179
0.0222046803683042
0.0213828515261411
0.0202048849314451
0.0185391195118427
0.0162767395377159
0.0133568439632654
0.0097819063812494
0.0056210439652204
0.001004287507385
-0.0038913870230317
-0.008863877505064
-0.0137094426900148
-0.0182419121265411
-0.0223064124584198
-0.0257878731936216
-0.028615204617381
-0.0307617932558059
-0.0322395302355289
-0.0330870673060417
-0.0333606526255607
-0.0331302024424076
-0.0324749574065208
-0.0314773209393024
-0.0302166435867548
-0.02876284904778
-0.0271719060838222
-0.0254839565604925
-0.0237232316285371
-0.0219010803848505
-0.0200207941234111
-0.0180814415216445
-0.0160819571465253
-0.0140243992209434
-0.0119134876877069
-0.0097557231783866
-0.0075616268441081
-0.0053476975299417
-0.0031343810260295
-0.0009424835443496
0.0012079840525984
0.003297362010926
0.0053070746362209
0.0072214156389236
0.0090292580425739
0.0107253585010766
0.0123087521642446
0.0137781342491507
0.0151304565370082
0.0163644738495349
0.0174845177680253
0.0185010246932506
0.0194261018186807
0.0202677678316831
0.0210295896977186
0.0217130091041326
0.0223139896988868
0.0228135026991367
0.0231670383363962
0.0232989024370908
0.0231066457927227
0.0224757269024848
0.0213003642857074
