bvp
0.0179823283106088
0.0195082519203424
0.0209413580596447
0.0222814343869686
0.0235281977802515
0.0246787201613187
0.0257262736558914
0.026662677526474
0.0274812467396259
0.0281787477433681
0.0287564322352409
0.0292192548513412
0.0295739397406578
0.0298265404999256
0.0299801994115114
0.0300344247370958
0.0299852862954139
0.0298267565667629
0.029554646462202
0.0291703306138515
0.0286799222230911
0.0280896686017513
0.0273995697498321
0.0265942905098199
0.0256327707320451
0.024441922083497
0.0229190122336149
0.0209435932338237
0.0183974206447601
0.015189753845334
0.0112819299101829
0.0067020081914961
0.0015458343550562
-0.0040319012477993
-0.0098348073661327
-0.01564821600914
-0.0212627872824668
-0.0264943018555641
-0.0311980359256267
-0.0352748334407806
-0.0386689528822898
-0.0413623303174972
-0.0433666706085205
-0.0447125770151615
-0.0454416498541832
-0.0456062778830528
-0.0452704280614852
-0.0445050336420536
-0.043381355702877
-0.0419667847454547
-0.040321584790945
-0.0384944751858711
-0.036519382148981
-0.0344149358570575
-0.0321862623095512
-0.0298300832509994
-0.0273419339209795
-0.0247208513319492
-0.0219696797430515
-0.019094843417406
-0.0161093696951866
-0.0130362268537282
-0.0099077951163053
-0.0067623648792505
-0.0036404309794306
-0.0005821995437145
0.0023757377639412
0.0052057253196835
0.0078918104991316
0.0104266814887523
0.0128066968172788
0.0150303840637207
0.0171006340533494
0.0190266966819763
0.0208229627460241
0.0225058980286121
0.0240913722664117
0.0255905613303184
0.0270044989883899
0.0283225048333406
0.0295269154012203
0.0306005254387855
0.0315316654741764
0.0323147661983966
0.0329490974545478
0.0334383286535739
0.0337892472743988
0.0340092256665229
0.0341039896011352
0.0340764708817005
0.0339288786053657
0.0336675010621547
0.0333038158714771
0.0328481681644916
0.0322997421026229
0.0316357724368572
0.0307997912168502
0.0296941082924604
0.0281840339303016
0.0261151622980833
0.0233404580503702
0.0197508819401264
0.0153015758842229
0.0100289126858115
0.0040551470592617
-0.0024228645488619
-0.0091577302664518
-0.0158798526972532
-0.0223269890993833
-0.0282745398581028
-0.0335578843951225
-0.0380779653787612
-0.0417935103178024
-0.0447081513702869
-0.046856191009283
-0.0482883378863334
-0.0490604229271411
-0.0492279306054115
-0.0488453172147274
-0.0479681007564067
-0.0466568917036056
-0.0449795238673687
-0.0430067330598831
-0.0408027619123458
-0.0384177453815937
-0.0358875542879104
-0.033238660544157
-0.0304903425276279
-0.0276534724980592
-0.0247310139238834
-0.0217219740152359
-0.0186271388083696
-0.0154541302472352
-0.0122188897803425
-0.0089432746171951
-0.0056519592180848
-0.0023719612509012
0.000865913927555
0.0040272157639265
0.0070779607631266
0.0099908644333481
0.0127476770430803
0.0153364138677716
0.017748650163412
0.0199798829853534
0.0220319479703903
0.0239142645150423
0.0256413258612155
0.0272292345762252
0.0286947172135114
0.0300535559654235
0.0313164368271827
0.032486904412508
0.0335632041096687
0.0345408841967582
0.0354135520756244
0.0361706614494323
0.0367944538593292
0.0372612066566944
0.0375477112829685
0.0376377962529659
0.0375242456793785
0.0372076891362667
0.0366956740617752
0.0359966717660427
0.0351032614707946
0.0339708589017391
0.0325055569410324
0.0305704586207866
0.0280092507600784
0.0246794857084751
0.0204895548522472
0.0154297016561031
0.0095836650580167
0.0031178351491689
-0.0037424117326736
-0.0107391402125358
-0.017608031630516
-0.0241036899387836
-0.0300206765532493
-0.035207062959671
-0.0395683497190475
-0.0430614575743675
-0.0456841699779033
-0.0474662408232688
-0.0484625212848186
-0.0487457923591136
-0.0483988747000694
-0.0475076586008071
-0.0461577400565147
-0.0444340109825134
-0.0424178652465343
-0.0401807837188243
-0.0377795696258544
-0.0352554656565189
-0.0326336175203323
-0.0299216546118259
-0.0271118376404047
-0.0241892524063587
-0.0211411826312541
-0.0179628524929285
-0.0146599039435386
-0.0112476190552115
-0.0077467509545385
-0.0041795065626502
-0.0005704904906451
0.0030487421900033
0.0066378731280565
0.0101495953276753
0.0135330660268664
0.016739597544074
0.0197277050465345
0.0224645603448152
0.0249255001544952
0.0270939078181982
0.0289627499878406
0.0305353552103042
0.0318225249648094
0.0328403003513813
0.0336116999387741
0.0341667793691158
0.0345370769500732
0.0347495079040527
0.034825000911951
0.0347810983657836
0.0346344448626041
0.0343997776508331
0.0340861193835735
0.0336955264210701
0.0332263894379138
0.0326763838529586
0.0320392958819866
0.0312928706407547
0.0303804576396942
0.0291968211531639
0.0275903828442096
0.0253833625465631
0.0224005617201328
0.0185023583471775
0.0136207677423954
0.007787100970745
0.0011381320655345
-0.0060979695990681
-0.0136278215795755
-0.0211277641355991
-0.0282822996377944
-0.0348178520798683
-0.0405267998576164
-0.0452773049473762
-0.0490079447627067
-0.051715150475502
-0.0534420497715473
-0.0542684942483902
-0.0542992129921913
-0.0536516979336738
-0.052445538341999
-0.0507928840816021
-0.048791691660881
-0.0465219877660274
-0.0440432727336883
-0.041393581777811
-0.03859119489789
-0.0356388464570045
-0.0325288288295269
-0.0292478520423173
-0.0257832668721675
-0.0221306812018156
-0.0182995703071355
-0.0143141262233257
-0.0102104414254426
-0.0060337851755321
-0.0018380554392933
0.0023148139007389
0.006359533406794
0.0102353198453783
0.0138913905248045
0.0172883030027151
0.0203983876854181
0.0232076160609722
0.0257174298167228
0.0279425326734781
0.0299042165279388
0.0316257886588573
0.0331336520612239
0.0344571657478809
0.0356226041913032
0.0366481617093086
0.0375457927584648
0.0383233539760112
0.0389811322093009
0.0395081974565982
0.0398851968348026
0.0400916114449501
0.0401120521128177
0.039938561618328
0.039569791406393
0.0390103720128536
0.0382698401808738
0.0373552180826664
0.0362537764012813
0.0349116884171962
0.0332211554050445
0.0310260914266109
0.0281487610191106
0.02443110011518
0.0197774358093738
0.0141861531883478
0.0077636465430259
0.0007175598293542
-0.0066683292388916
-0.0140694212168455
-0.0211586728692054
-0.0276437699794769
-0.0332962572574615
-0.037966214120388
-0.0415829494595527
-0.0441474467515945
-0.0457213073968887
-0.0464120507240295
-0.0463546104729175
-0.0456943660974502
-0.0445740669965744
-0.0431216321885585
-0.0414414852857589
-0.0396122969686985
-0.0376866981387138
-0.0356915444135665
-0.0336319655179977
-0.0314969569444656
-0.029263712465763
-0.0269034225493669
-0.0243880711495876
-0.0216961186379194
-0.0188200399279594
-0.0157724283635616
-0.0125836879014968
-0.0092964116483926
-0.0059615094214677
-0.0026328861713409
0.0006388994515873
0.0038112527690827
0.0068518589250743
0.0097381481900811
0.0124553069472312
0.0149954371154308
0.017357088625431
0.0195422768592834
0.0215526260435581
0.0233897734433412
0.0250572133809328
0.0265578962862491
0.0278921499848365
0.0290593113750219
0.0300589613616466
0.0308905988931655
0.0315532349050045
0.0320458933711051
0.0323695689439773
0.0325285233557224
0.0325299501419067
0.0323838628828525
0.0321016609668731
0.0316879414021968
0.031122725456953
0.0303394272923469
0.0292108878493309
0.0275548566132783
0.0251624304801225
0.0218428559601306
0.0174699015915393
0.0120155531913042
0.0055654142051935
-0.0016839653253555
-0.0094450218603014
-0.0173735003918409
-0.0251103304326534
-0.0323226936161518
-0.0387377887964248
-0.044163778424263
-0.0484926328063011
-0.0516884885728359
-0.0537744089961051
-0.0548226237297058
-0.0549424327909946
-0.0542634353041648
-0.0529199615120887
-0.0510421991348266
-0.0487519763410091
-0.0461582578718662
-0.0433520190417766
-0.040402565151453
-0.0373564399778842
-0.0342391580343246
-0.0310600474476814
-0.0278177838772535
-0.0245015192776918
-0.0210909508168697
-0.0175642259418964
-0.0139104528352618
-0.0101380199193954
-0.0062771663069725
-0.0023756697773933
0.0015121707692742
0.0053357034921646
0.009053012356162
0.0126355336979031
0.0160734429955482
0.0193758010864257
0.0225613061338663
0.0256415046751499
0.0286033786833286
0.031400479376316
0.0339557565748691
0.0361697301268577
0.0379284583032131
0.0391128398478031
0.0396107845008373
0.0393296927213668
0.0382051989436149
0.0362064614892005
0.0333428159356117
0.0296713002026081
0.0252966433763504
0.0203574039041996
0.0150002092123031
0.0093518979847431
0.0035040471702814
-0.0024823159910738
-0.0085668377578258
-0.0147372037172317
-0.021022655069828
-0.0274831186980009
-0.034170776605606
-0.0410822555422782
-0.0481151044368743
-0.0550381988286972
-0.0614909753203392
-0.0670233145356178
-0.0711671411991119
-0.0735176429152488
-0.0738014876842498
-0.071916714310646
-0.0679472684860229
-0.0621505193412303
-0.054908387362957
-0.0466590672731399
-0.0378349460661411
-0.0288119055330753
-0.0198737159371376
-0.0111992768943309
-0.0028730817139148
0.0050869770348072
0.012691892683506
0.0199441909790039
0.0268166474997997
0.033257357776165
0.0392118319869041
0.0446437075734138
0.0495458059012889
0.0539425872266292
0.0578855983912944
0.0614432543516159
0.0646881833672523
0.0676857605576515
0.0704865157604217
0.0731240510940551
0.0756174549460411
0.0779744461178779
0.0801920592784881
0.0822540074586868
0.0841268450021743
0.0857577919960022
0.0870770215988159
0.0880072116851806
0.0884775966405868
0.0884353518486023
0.0878514200448989
0.0867222100496292
0.0850665494799614
0.0829125046730041
0.080271229147911
0.0771084129810333
0.0733311548829078
0.0688018277287483
0.0633784681558609
0.056964986026287
0.0495465509593486
0.0411981865763664
0.0320718064904212
0.022375501692295
0.0123565327376127
0.0022880770266056
-0.0075494386255741
-0.0168944597244262
-0.0255262851715087
-0.0332740806043148
-0.0400169193744659
-0.0456816144287586
-0.0502402335405349
-0.0537074953317642
-0.0561386756598949
-0.05762729793787
-0.0582996420562267
-0.0583033710718154
-0.0577913224697113
-0.0569041520357131
-0.055756002664566
-0.0544262826442718
-0.0529593750834465
-0.051372792571783
-0.0496680065989494
-0.0478366315364837
-0.0458646975457668
-0.0437400192022323
-0.0414597354829311
-0.0390356220304966
-0.0364976748824119
-0.0338937304913997
-0.031284213066101
-0.0287366323173046
-0.0263308696448802
-0.0241776723414659
-0.0224271863698959
-0.0212478321045637
-0.0207888334989547
-0.0211452599614858
-0.0223273895680904
-0.0242346562445163
-0.0266456250101327
-0.0292359665036201
-0.0316204130649566
-0.0334038101136684
-0.0342317000031471
-0.0338360629975795
-0.0320736765861511
-0.028956988826394
-0.0246727596968412
-0.0195782408118248
-0.0141687523573637
-0.0090156467631459
-0.0046817958354949
-0.0016360394656658
-0.0001892894506454
-0.0004614051431417
-0.0023790542036294
-0.0057014152407646
-0.0100680254399776
-0.0150625919923186
-0.0202794261276721
-0.0253710933029651
-0.0300665218383073
-0.0341667085886001
-0.0375292636454105
-0.0400494039058685
-0.0416442453861236
-0.0422449745237827
-0.0417979881167411
-0.0402756668627262
-0.0376940593123436
-0.0341264829039573
-0.0297039821743965
-0.024604981765151
-0.019038088619709
-0.0132202440872788
-0.0073558986186981
-0.0016205562278628
0.0038520405068993
0.0089783817529678
0.0137267978861927
0.018110491335392
0.0221739411354064
0.0259777214378118
0.0295845083892345
0.0330457761883735
0.0363910272717475
0.0396228954195976
0.0427180044353008
0.0456314273178577
0.0483037903904914
0.0506725534796714
0.0526858791708946
0.0543110482394695
0.055535040795803
0.0563636347651481
0.0568203590810298
0.056941695511341
0.0567706264555454
0.0563522987067699
0.0557300634682178
0.0549399740993976
0.0540075190365314
0.0529476441442966
0.0517650879919528
0.0504565872251987
0.0490160919725894
0.0474389977753162
0.0457195229828357
0.0438343845307827
0.0417155437171459
0.0392304249107837
0.0361862927675247
0.0323592349886894
0.027538513764739
0.0215771086513996
0.0144361220300197
0.0062058884650468
-0.0029015410691499
-0.0125789456069469
-0.0224620327353477
-0.0321741290390491
-0.0413692444562912
-0.0497647039592266
-0.0571558773517608
-0.0634134262800216
-0.0684713423252105
-0.0723099112510681
-0.0749368295073509
-0.0763750523328781
-0.0766612887382507
-0.075849249958992
-0.0740136131644249
-0.0712557882070541
-0.0677070021629333
-0.0635214298963546
-0.0588624402880668
-0.053889662027359
-0.0487483069300651
-0.0435590967535972
-0.0384106561541557
-0.0333576239645481
-0.0284258797764778
-0.0236220359802246
-0.0189420022070407
-0.0143766403198242
-0.0099145006388425
-0.0055432487279176
-0.0012535201385617
0.00295104784891
0.0070397360250353
0.0109491134062409
0.0145954322069883
0.0179002210497856
0.0208163894712924
0.0233421679586172
0.0255177244544029
0.0274098478257656
0.0290933847427368
0.0306337960064411
0.0320736765861511
0.0334295742213726
0.0347000621259212
0.0358770526945591
0.0369530841708183
0.0379222184419631
0.0387778431177139
0.0395123660564422
0.0401134304702281
0.0405459105968475
0.0407245308160781
0.0404980555176734
0.039662342518568
0.0380011871457099
0.03533685952425
0.0315711833536624
0.0267105400562286
0.0208742339164018
0.0142861949279904
0.0072517856024205
0.0001194775104522
-0.0067677395418286
-0.0131149347871541
-0.0186992827802896
-0.0233751647174358
-0.0270653199404478
-0.0297461953014135
-0.031434491276741
-0.0321760922670364
-0.0320387929677963
-0.0311123840510845
-0.0295115914195776
-0.0273712743073701
-0.0248336140066385
-0.022033954039216
-0.0190864205360412
-0.0160713978111743
-0.0130324009805917
-0.0099836848676204
-0.0069227395579218
-0.0038431580178439
-0.0007436946034431
0.0023689330555498
0.0054804109968245
0.0085700936615467
0.0116143217310309
0.0145893367007374
0.0174691881984472
0.0202208030968904
0.0228030085563659
0.0251714549958705
0.0272855311632156
0.0291139408946037
0.0306383110582828
0.0318544991314411
0.0327713750302791
0.0334078483283519
0.0337893478572368
0.0339447520673275
0.0339050181210041
0.0337031371891498
0.0333723947405815
0.0329421572387218
0.0324314944446086
0.0318359173834323
0.0311053171753883
0.0301237814128398
0.0287058427929878
0.0266160443425178
0.0236104130744934
0.0194905120879411
0.0141532160341739
0.0076198149472475
3.965385258197784e-05
-0.0083266999572515
-0.0171401873230934
-0.0260273534804582
-0.0346245281398296
-0.0426102355122566
-0.049724131822586
-0.0557771995663642
-0.0606543831527233
-0.0643063262104988
-0.0667304396629333
-0.0679511353373527
-0.0680112615227699
-0.0669742822647094
-0.0649284645915031
-0.0619894005358219
-0.0582987964153289
-0.0540161021053791
-0.0493050664663314
-0.044321272522211
-0.03920179605484
-0.0340570174157619
-0.0289671029895544
-0.0239837430417537
-0.0191361252218484
-0.0144386496394872
-0.0098964935168623
-0.0055082784965634
-0.0012700743973255
0.0028179243672639
0.006748226005584
0.0105082476511597
0.0140821766108274
0.0174510199576616
0.0205943174660205
0.0234943628311157
0.0261408537626266
0.0285332612693309
0.0306791253387928
0.0325906313955783
0.0342827290296554
0.0357732661068439
0.0370870977640152
0.0382594130933284
0.0393256917595863
0.040303498506546
0.0411856174468994
0.0419465117156505
0.0425499342381954
0.042954035103321
0.0431173145771026
0.0430060997605323
0.0426007509231567
0.0419000051915645
0.0409227088093757
0.0396999754011631
0.0382539294660091
0.0365701653063297
0.0345760099589824
0.0321346148848533
0.0290599130094051
0.0251525174826383
0.0202489253133535
0.0142675396054983
0.007237734273076
-0.0006927270442247
-0.0092722289264202
-0.0181785766035318
-0.0270630121231079
-0.0355917587876319
-0.0434755533933639
-0.0504878684878349
-0.0564726144075393
-0.0613390132784843
-0.065046839416027
-0.0675914138555526
-0.0689946934580802
-0.0693009942770004
-0.0685749799013137
-0.0669014900922775
-0.064386174082756
-0.0611569881439209
-0.0573635585606098
-0.0531676150858402
-0.0487243831157684
-0.0441633574664592
-0.0395754352211952
-0.035008680075407
-0.0304734148085117
-0.025954870507121
-0.0214270185679197
-0.0168624483048915
-0.0122394170612096
-0.0075485641136765
-0.0027991458773612
0.001976465806365
0.0067238202318549
0.011375144124031
0.0158607084304094
0.0201169680804014
0.0240905415266752
0.0277404468506574
0.0310404412448406
0.033980444073677
0.0365656800568103
0.0388132482767105
0.0407474711537361
0.0423969812691211
0.0437931679189205
0.0449659638106823
0.0459376610815525
0.0467200204730033
0.0473172888159751
0.0477320663630962
0.0479668453335762
0.0480202101171016
0.0478866882622242
0.0475631020963192
0.0470515079796314
0.0463547296822071
0.0454741157591342
0.044413536787033
0.0431798174977302
0.041770227253437
0.0401488207280635
0.0382249690592289
0.0358504019677639
0.0328420475125312
0.0290228426456451
0.0242644324898719
0.0185201056301593
0.0118436627089977
0.0043917223811149
-0.0035911304876208
-0.0118006067350506
-0.0199078433215618
-0.0275955032557249
-0.0345892161130905
-0.0406786873936653
-0.0457275360822677
-0.0496738217771053
-0.0525212064385414
-0.0543230324983596
-0.0551668778061866
-0.0551655888557434
-0.0544517375528812
-0.0531681030988693
-0.0514524281024932
-0.049422837793827
-0.0471698567271232
-0.0447540022432804
-0.0422055199742317
-0.0395276732742786
-0.03670659288764
-0.0337239652872085
-0.0305673107504844
-0.0272382888942956
-0.023756792768836
-0.0201566275209188
-0.0164772495627403
-0.0127576887607574
-0.0090325232595205
-0.005331443157047
-0.0016846624203026
0.0018706563860177
0.0052902782335877
0.0085303168743848
0.0115564344450831
0.0143502000719308
0.0169117376208305
0.0192571058869361
0.0214113891124725
0.0234003625810146
0.0252425782382488
0.0269453730434179
0.0285062380135059
0.0299158841371536
0.0311570223420858
0.0321952514350414
0.0329648591578006
0.0333560518920421
0.0332124829292297
0.032348558306694
0.0305872373282909
0.0278049111366271
0.0239657536149024
0.0191384088248014
0.0134942438453435
0.0072855558246374
0.0008106724126264
-0.0056222192943096
-0.011727787554264
-0.0172694716602563
-0.0220732148736715
-0.026028387248516
-0.0290798004716634
-0.0312156416475772
-0.0324553586542606
-0.0328400768339633
-0.0324278958141803
-0.0312943086028099
-0.0295346193015575
-0.0272629726678133
-0.024604495614767
-0.0216834619641304
-0.0186138525605201
-0.0154937179759144
-0.0123991928994655
-0.0093776220455765
-0.0064450660720467
-0.0035910857841372
-0.0007885703817009
0.0019951863214373
0.0047889659181237
0.007610585540533
0.0104629024863243
0.013333530165255
0.0161974988877773
0.0190202593803405
0.0217590853571891
0.0243640728294849
0.0267814584076404
0.0289601776748895
0.030859537422657
0.032455064356327
0.0337412022054195
0.0347304865717887
0.0354487001895904
0.0359274744987487
0.0361980721354484
0.0362879298627376
0.0362201780080795
0.0360161252319812
0.0356970019638538
0.0352822989225387
0.0347880125045776
0.0342250503599643
0.0335917398333549
0.0328576155006885
0.0319440551102161
0.0307117756456136
0.0289673320949077
0.0264953337609767
0.0231071561574935
0.0186865851283073
0.0132191712036728
0.0068021090701222
-0.0003653094172477
-0.0080074407160282
-0.0158063657581806
-0.0234380960464477
-0.0306078288704156
-0.0370793454349041
-0.0426924377679824
-0.0473633632063865
-0.051068864762783
-0.0538233369588851
-0.0556600205600261
-0.0566193386912345
-0.0567437633872032
-0.0560795441269874
-0.0546826533973217
-0.0526237338781356
-0.0499900989234447
-0.0468832477927207
-0.0434106960892677
-0.0396762378513813
-0.0357746444642543
-0.0317914634943008
-0.0278021115809679
-0.0238651297986507
-0.0200142469257116
-0.0162565819919109
-0.0125784110277891
-0.0089561082422733
-0.0053693307563662
-0.0018123965710401
0.0017009521834552
0.0051410440355539
0.0084718558937311
0.011661141179502
0.0146846156567335
0.0175252929329872
0.0201721992343664
0.0226175170391798
0.0248529333621263
0.0268685445189476
0.0286543294787406
0.0302027240395545
0.0315116345882415
0.0325868502259254
0.0334422476589679
0.0340971685945987
0.0345726795494556
0.0348895862698555
0.0350678898394107
0.0351259224116802
0.0350799597799778
0.034944113343954
0.0347285345196723
0.0344349145889282
0.0340481810271739
0.0335237868130207
0.0327730141580104
0.0316544324159622
0.029982915148139
0.0275605916976928
0.0242207311093807
0.0198693461716175
0.0145121375098824
0.0082604307681322
0.0013184752315282
-0.0060411989688873
-0.0135101554915308
-0.0207793544977903
-0.0275711491703987
-0.0336646139621734
-0.0389097891747951
-0.043227270245552
-0.0465976595878601
-0.0490467771887779
-0.0506279990077018
-0.0514048524200916
-0.0514412298798561
-0.0508022084832191
-0.0495589040219783
-0.0477897748351097
-0.0455782748758792
-0.0430102422833442
-0.0401711501181125
-0.0371410027146339
-0.0339873805642128
-0.030760632827878
-0.0274932868778705
-0.0242018289864063
-0.0208887495100498
-0.0175452921539545
-0.0141572905704379
-0.0107140438631176
-0.0072170188650488
-0.0036852583289146
-0.0001548584550619
0.0033277622424066
0.0067141810432076
0.0099587403237819
0.0130209475755691
0.0158700458705425
0.0184906236827373
0.0208850894123315
0.023073561489582
0.0250917058438062
0.0269852951169013
0.0288054160773754
0.030605599284172
0.0324338413774967
0.0343179404735565
0.0362511537969112
0.0381848812103271
0.0400328673422336
0.041686575859785
0.0430345460772514
0.0439795665442943
0.0444513857364654
0.0444130077958107
0.0438607074320316
0.0428207516670227
0.0413447096943855
0.0395021885633468
0.0373667925596237
0.0349920466542243
0.0323849096894264
0.029491739347577
0.0262048635631799
0.0223904363811016
0.0179318562150001
0.0127709992229938
0.0069301910698413
0.0005145855247974
-0.0062971832230687
-0.0132731422781944
-0.0201610308140516
-0.0267264880239963
-0.0327818766236305
-0.0381994657218456
-0.0429098159074783
-0.0468860045075416
-0.0501207634806633
-0.0526093542575836
-0.0543436035513877
-0.0553135648369789
-0.0555142275989055
-0.0549564249813556
-0.0536780357360839
-0.0517483875155448
-0.0492625571787357
-0.0463311821222305
-0.0430725328624248
-0.0396056547760963
-0.0360407792031765
-0.0324678868055343
-0.0289485100656747
-0.0255157351493835
-0.0221809688955545
-0.0189403165131807
-0.0157773625105619
-0.0126657634973526
-0.0095751555636525
-0.0064791897311806
-0.0033620726317167
-0.0002205343917012
0.0029373914003372
0.0060929325409233
0.0092167295515537
0.0122702596709132
0.0152088981121778
0.0179868824779987
0.0205633379518985
0.0229071248322725
0.0249991696327924
0.0268330182880163
0.0284139662981033
0.0297566764056682
0.0308816656470298
0.0318111442029476
0.0325655862689018
0.0331625789403915
0.0336175411939621
0.0339438654482364
0.0341502055525779
0.0342374220490455
0.0342005565762519
0.0340350791811943
0.0337408892810344
0.033322338014841
0.0327846594154834
0.0321217216551303
0.0312955267727375
0.0302206464111804
0.0287653394043445
0.0267709661275148
0.0240845121443271
0.0205957703292369
0.0162704531103372
0.0111678019165992
0.0054341470822691
-0.000719841569662
-0.0070454836823046
-0.0132822934538126
-0.0191842596977949
-0.0245460793375968
-0.0292240045964717
-0.0331407487392425
-0.0362722985446453
-0.0386281087994575
-0.0402366891503334
-0.041138581931591
-0.0413834080100059
-0.0410283990204334
-0.0401371642947196
-0.0387800000607967
-0.0370354950428009
-0.0349889285862445
-0.0327265933156013
-0.0303289610892534
-0.0278629995882511
-0.025374237447977
-0.0228810012340545
-0.0203745886683464
-0.0178292989730834
-0.0152183808386325
-0.0125279268249869
-0.0097670089453458
-0.0069763204082846
-0.0042365789413452
-0.001668095588684
0.0005916794762015
0.0024278275668621
0.0037860516458749
0.0046950015239417
0.0052668927237391
0.0056779701262712
0.0061350059695541
0.0068361735902726
0.0079360082745552
0.0095211174339056
0.0116009907796978
0.0141153745353221
0.0169519279152154
0.0199678558856248
0.0230139289051294
0.0259567536413669
0.0286929793655872
0.0311526209115982
0.0332949087023735
0.0351032391190528
0.0365812331438064
0.0377452373504638
0.0386126674711704
0.0391950979828834
0.0395002290606498
0.0395355783402919
0.039303857833147
0.0387853682041168
0.0379180870950222
0.0365952290594577
0.0346865132451057
0.0320724733173847
0.0286771468818187
0.0244895294308662
0.0195728428661823
0.0140629615634679
0.0081541016697883
0.0020736334845423
-0.0039469562470912
-0.0096976365894079
-0.0150086684152483
-0.0197641309350729
-0.0239085406064987
-0.0274410545825958
-0.0303966999053955
-0.0328226573765277
-0.0347588434815406
-0.0362263992428779
-0.0372280143201351
-0.0377619676291942
-0.0378388948738575
-0.0374879501760005
-0.0367503874003887
-0.035666961222887
-0.0342705324292182
-0.0325887687504291
-0.0306480526924133
-0.0284729562699794
-0.0260843466967344
-0.0234972145408391
-0.0207192171365022
-0.0177522972226142
-0.0145980045199394
-0.0112661886960268
-0.0077846199274063
-0.0042057139798998
-0.0006068989168852
0.0029164145234972
0.0062624472193419
0.0093373116105794
0.0120710898190736
0.0144292563199996
0.0164130814373493
0.0180526133626699
0.019397834315896
0.0205077715218067
0.0214391816407442
0.0222401153296232
0.0229483619332313
0.0235898923128843
0.0241763312369585
0.0247040707617998
0.0251561664044857
0.0255061350762844
0.0257229097187519
0.0257771629840135
0.0256471335887908
0.0253217909485101
0.0248019155114889
0.0240968316793441
0.0232126992195844
0.0221350714564323
0.0208145938813686
0.0191629379987716
0.017064182087779
0.0144040277227759
0.0111039904877543
0.0071413516998291
0.0025542434304952
-0.0025589568540453
-0.008044509217143
-0.013704614713788
-0.0193160660564899
-0.0246544927358627
-0.029519323259592
-0.0337533019483089
-0.0372517555952072
-0.039963100105524
-0.0418841540813446
-0.0430499650537967
-0.0435195714235305
-0.0433630608022213
-0.0426551327109336
-0.041477408260107
-0.0399223305284976
-0.0380877070128917
-0.0360626354813575
-0.0339166820049285
-0.0316994115710258
-0.0294462945312261
-0.0271841771900653
-0.0249346438795328
-0.0227152537554502
-0.020537469536066
-0.0184029880911111
-0.0163016058504581
-0.0142113287001848
-0.0120994467288255
-0.0099255507811903
-0.0076495362445712
-0.0052424604073166
-0.0026951264590024
-2.1683983504772183e-05
0.0027429601177573
0.0055505642667412
0.0083475485444068
0.0110801830887794
0.0136974342167377
0.0161541439592838
0.0184153448790311
0.0204599648714065
0.0222836323082447
0.02390050701797
0.0253402348607778
0.0266387034207582
0.0278276018798351
0.028926970437169
0.0299401581287384
0.0308506116271018
0.0316247679293155
0.0322225242853164
0.0326054953038692
0.0327333025634288
0.0325527191162109
0.0319912917912006
0.0309595149010419
0.0293618962168693
0.0271187610924243
0.0241929441690444
0.0206087678670883
0.0164573825895786
0.011889586225152
0.0070992074906826
0.0023015863262116
-0.0022899575997143
-0.0064879758283495
-0.0101504903286695
-0.0131904017180204
-0.0155728831887245
-0.0173054076731205
-0.0184269417077302
-0.0189988277852535
-0.0190968476235866
-0.0188038051128387
-0.0182025097310543
-0.0173711758106946
-0.0163815934211015
-0.0152975497767329
-0.0141724487766623
-0.0130454767495393
-0.0119376331567764
-0.0108513552695512
-0.0097728930413723
-0.008675686083734
-0.0075268037617206
-0.0062949806451797
-0.0049560349434614
-0.0034973314031958
-0.0019252421334385
-0.0002728514373302
0.0013984823599457
0.0030050971545279
0.0044519514776766
0.0056455447338521
0.0065064481459558
0.0069818878546357
0.0070576439611613
0.0067641381174325
0.0061730360612273
0.0053851930424571
0.0045143840834498
0.0036719241179525
0.002954801544547
0.0024370793253183
0.0021638777107
0.0021495800465345
0.0023799980990588
0.0028147082775831
0.0033898712135851
0.0040257568471133
0.0046397414989769
0.0051597896963357
0.0055302181281149
0.0057067181915044
0.0056469114497303
0.0053039346821606
0.0046274475753307
0.0035739238373935
0.0021238178014755
0.0002980343997478
-0.0018346421420574
-0.0041608409956097
-0.0065340809524059
-0.0087914196774363
-0.01077226921916
-0.0123399775475263
-0.013402996584773
-0.0139248538762331
-0.01391760725528
-0.0134253315627574
-0.0125077404081821
-0.0112259965389966
-0.0096309045329689
-0.0077619049698114
-0.005658596754074
-0.0033721448853611
-0.0009676590561866
0.0014802142977714
0.0038956739008426
0.0062119271606206
0.0083761848509311
0.0103449346497654
0.0120784873142838
0.0135470693930983
0.014745152555406
0.0157012585550546
0.0164769738912582
0.017156895250082
0.0178343132138252
0.018598536029458
0.019524922594428
0.0206623654812574
0.0220217425376176
0.0235749445855617
0.025262776762247
0.0270048808306455
0.0287089236080646
0.0302797257900238
0.0316294282674789
0.0326858796179294
0.0333967097103595
0.0337309576570987
0.0336806699633598
0.0332623347640037
0.0325153693556785
0.0314953252673149
0.0302636139094829
0.0288778655230999
0.027385851368308
0.0258223712444305
0.0242036618292331
0.0225155018270015
0.0207003522664308
0.0186547692865133
0.0162452030926942
0.0133394952863454
0.0098419822752475
0.0057203210890293
0.0010183416306972
-0.0041464995592832
-0.0095998607575893
-0.0151361413300037
-0.0205461326986551
-0.0256425645202398
-0.0302792321890592
-0.034359723329544
-0.0378364846110343
-0.0407023392617702
-0.0429800301790237
-0.0447166673839092
-0.045980017632246
-0.0468502156436443
-0.0474080853164196
-0.0477232784032821
-0.0478457808494567
-0.0478045269846916
-0.0476098507642746
-0.0472542196512222
-0.0467134341597557
-0.045952133834362
-0.0449333190917968
-0.0436300635337829
-0.0420342870056629
-0.0401564389467239
-0.0380190722644329
-0.0356521233916282
-0.0330902263522148
-0.03036754950881
-0.0275120586156845
-0.0245454348623752
-0.0214878357946872
-0.0183626059442758
-0.015199365094304
-0.0120332799851894
-0.008900404907763
-0.005834118463099
-0.0028648234438151
-1.974951010197401e-05
0.0026799845509231
0.0052234372124075
0.0076081044971942
0.0098257372155785
0.0118397213518619
0.0135686993598937
0.0148894488811492
0.0156588833779096
0.0157440640032291
0.0150513434782624
0.0135499630123376
0.011284933425486
0.0083761606365442
0.0050044143572449
0.0013880198821425
-0.002243067137897
-0.0056691421195864
-0.0086966780945658
-0.0111714648082852
-0.0129897939041256
-0.0141037376597523
-0.0145163526758551
-0.01426796708256
-0.0134222721680998
-0.0120602529495954
-0.0102794338017702
-0.0081901047378778
-0.0059064999222755
-0.0035364069044589
-0.0011721365153789
0.0011151880025863
0.0032782983034849
0.0052963532507419
0.0071781985461711
0.0089609017595648
0.0106972474604845
0.0124370846897363
0.0142162293195724
0.0160565935075283
0.0179680027067661
0.019946563988924
0.0219740234315395
0.0240210760384798
0.0260523799806833
0.0280304420739412
0.0299178548157215
0.0316791273653507
0.0332828052341938
0.0347042381763458
0.0359286293387413
0.0369507782161235
0.0377694033086299
0.0383821204304695
0.038786381483078
0.0389819890260696
0.0389705300331115
0.0387524776160717
0.0383212603628635
0.0376503840088844
0.0366762951016426
0.0352910198271274
0.0333575010299682
0.0307441130280494
0.0273614674806594
0.0231892671436071
0.0182902328670024
0.0128060895949602
0.006933843716979
0.0008957999525591
-0.0050841211341321
-0.0107991518452763
-0.0160756632685661
-0.0207827370613813
-0.0248324647545814
-0.0281747337430715
-0.0307929851114749
-0.0326997339725494
-0.0339266397058963
-0.0345132388174533
-0.0345026291906833
-0.0339432656764984
-0.0328914038836956
-0.0314120128750801
-0.0295782331377267
-0.0274699237197637
-0.0251704175025224
-0.0227596368640661
-0.0203051399439573
-0.0178563278168439
-0.0154438083991408
-0.0130806760862469
-0.010764623992145
-0.0084820687770843
-0.0062126326374709
-0.0039329975843429
-0.0016221748664975
0.0007324372418224
0.0031317137181758
0.005564197897911
0.008005628362298
0.0104193016886711
0.0127602601423859
0.0149829220026731
0.0170476958155632
0.0189238581806421
0.0205913726240396
0.0220430921763181
0.0232833046466112
0.0243222750723361
0.0251726023852825
0.0258489660918712
0.0263669658452272
0.0267395991832017
0.0269766803830862
0.0270898360759019
0.0270931478589773
0.026989247649908
0.0267476122826337
0.0262902416288852
0.0254928339272737
0.0242023468017578
0.0222671777009964
0.0195704251527786
0.0160570424050092
0.0117508098483085
0.0067575396969914
0.0012518046423792
-0.0045475754886865
-0.0104041304439306
-0.0160885285586118
-0.0214007012546062
-0.0261861756443977
-0.0303426422178745
-0.0338161662220954
-0.0365911126136779
-0.0386778078973293
-0.040099624544382
-0.0408830419182777
-0.0410551726818084
-0.0406493730843067
-0.0397131666541099
-0.038310207426548
-0.0365156382322311
-0.034409686923027
-0.0320702381432056
-0.0295642502605915
-0.0269411876797676
-0.0242313481867313
-0.0214484930038452
-0.0185940489172935
-0.0156628657132387
-0.0126504283398389
-0.0095573756843805
-0.0063925418071448
-0.0031808763742446
2.979760756716132e-05
0.0031765140593051
0.0061998735181987
0.0090565057471394
0.011718725785613
0.0141698317602276
0.0164018999785184
0.0184147860854864
0.0202144347131252
0.0218115635216236
0.0232219267636537
0.0244674030691385
0.0255755707621574
0.0265771448612213
0.0275029316544532
0.0283796731382608
0.0292243268340826
0.0300411935895681
0.0308226309716701
0.0315483212471008
0.0321843102574348
0.0326874405145645
0.033012930303812
0.033116728067398
0.0329473428428173
0.0324300825595855
0.0314560048282146
0.0298873502761125
0.0275797899812459
0.0244141928851604
0.0203288085758686
0.0153420530259609
0.0095585845410823
0.0031585749238729
-0.0036242213100194
-0.0105304755270481
-0.0173041298985481
-0.0237151104956865
-0.0295735113322734
-0.034738790243864
-0.0391247980296611
-0.0426967367529869
-0.0454597771167755
-0.0474457331001758
-0.0487038530409336
-0.0492961034178733
-0.0492945089936256
-0.0487785935401916
-0.0478316321969032
-0.0465347692370414
-0.0449598543345928
-0.0431645959615707
-0.0411929711699485
-0.0390769876539707
-0.0368348695337772
-0.0344703271985054
-0.0319794677197933
-0.0293611697852611
-0.0266224071383476
-0.0237780939787626
-0.0208497121930122
-0.0178626663982868
-0.0148412305861711
-0.0118048498407006
-0.008768898434937
-0.0057477666996419
-0.0027579539455473
0.0001799655146896
0.0030423218850046
0.0058061988092958
0.0084530087187886
0.010968429967761
0.0133391749113798
0.0155513640493154
0.0175929777324199
0.019457034766674
0.0211425982415676
0.0226537398993968
0.0239948593080043
0.0251583084464073
0.026105735450983
0.0267555899918079
0.0269894003868103
0.0266756899654865
0.0257014315575361
0.0240018013864755
0.0215805601328611
0.0185137949883937
0.0149354729801416
0.0110148899257183
0.0069369804114103
0.002886145375669
-0.0009674034081399
-0.0044772257097065
-0.0075269117951393
-0.0100333504378795
-0.011945585720241
-0.0132407154887914
-0.0139207020401954
-0.0140113169327378
-0.0135610913857817
-0.0126377707347273
-0.0113208927214145
-0.0096941972151398
-0.0078423088416457
-0.0058470452204346
-0.0037794383242726
-0.0016932282596826
0.000376277603209
0.0024099899455904
0.0044018505141139
0.0063554672524333
0.0082802446559071
0.0101875131949782
0.0120874093845486
0.0139855071902275
0.0158803910017013
0.0177652332931756
0.0196308922022581
0.0214652679860591
0.0232501588761806
0.0249596927314996
0.0265613608062267
0.0280200131237506
0.0293042473495006
0.0303914733231067
0.0312691554427146
0.031934730708599
0.0323960222303867
0.0326696969568729
0.0327765084803104
0.032736025750637
0.0325639955699443
0.0322722718119621
0.0318701341748237
0.0313668400049209
0.0307711828500032
0.030083967372775
0.0292865335941314
0.0283285435289144
0.0271193236112594
0.025533054023981
0.0234314166009426
0.0206938683986663
0.017245402559638
0.0130765298381447
0.0082497550174593
0.0028910208493471
-0.0028271889314055
-0.0087050264701247
-0.0145355043932795
-0.0201255585998296
-0.0253165736794471
-0.0299992747604846
-0.0341155417263507
-0.0376460328698158
-0.0405908450484275
-0.042953286319971
-0.0447334796190261
-0.0459305047988891
-0.0465471446514129
-0.046593889594078
-0.0460938364267349
-0.0450888313353061
-0.0436399914324283
-0.0418186150491237
-0.0396944805979728
-0.0373300351202487
-0.0347805544734001
-0.0320948585867881
-0.0293133184313774
-0.0264639984816312
-0.0235602874308824
-0.0206028670072555
-0.0175861492753028
-0.0145075023174285
-0.0113752894103527
-0.0082123698666691
-0.0050552133470773
-0.0019493636209517
0.0010574065381661
0.0039199464954435
0.0065976614132523
0.0090576615184545
0.0112784458324313
0.0132504971697926
0.0149748716503381
0.0164616145193576
0.0177277419716119
0.0187955144792795
0.0196924619376659
0.0204511098563671
0.0211052596569061
0.0216839462518692
0.0222060419619083
0.0226783566176891
0.023097425699234
0.0234531629830598
0.0237347297370433
0.0239366143941879
0.0240575037896633
0.0240879207849502
0.0239922404289245
0.0236976407468318
0.0230976119637489
0.022066157311201
0.0204780399799346
0.0182322934269905
0.0152736362069845
0.0116069968789815
0.0073012877255678
0.0024805311113595
-0.0026937313377857
-0.0080408994108438
-0.0133752143010497
-0.0185175575315952
-0.0233102291822433
-0.0276309885084629
-0.0313979983329772
-0.0345639884471893
-0.0371043644845485
-0.0390065535902977
-0.0402655750513076
-0.0408851020038127
-0.0408809334039688
-0.0402844585478305
-0.0391448251903057
-0.0375279337167739
-0.0355113744735717
-0.0331783704459667
-0.0306123066693544
-0.027889896184206
-0.0250742845237255
-0.0222105830907821
-0.0193247701972723
-0.0164274014532566
-0.0135206896811723
-0.0106053771451115
-0.0076845344156026
-0.0047644739970564
-0.0018560588359832
0.0010235160589218
0.0038514966145157
0.0066032451577484
0.0092551987618207
0.0117852222174406
0.014173493720591
0.0164050459861755
0.0184704735875129
0.0203633196651935
0.0220773927867412
