bvp
0.0055428124032914
0.006910091266036
0.0080657210201025
0.0089481174945831
0.0095326351001858
0.0098286215215921
0.0098737850785255
0.0097274547442793
0.0094610648229718
0.0091468524187803
0.0088485646992921
0.0086142560467123
0.0084707643836736
0.0084222983568906
0.008454505354166
0.0085411788895726
0.0086505562067031
0.0087519623339176
0.0088211428374052
0.0088398661464452
0.0087921377271413
0.0086634997278451
0.0084436535835266
0.0081274816766381
0.0077126501128077
0.0071970000863075
0.0065799355506896
0.0058668432757258
0.0050709154456853
0.0042113969102501
0.0033112922683358
0.0023943008854985
0.0014796424657106
0.0005771368741989
-0.0003146212548017
-0.0012079123407602
-0.0021240822970867
-0.0030904533341526
-0.0041370783001184
-0.0052925525233149
-0.0065780449658632
-0.0080003254115581
-0.0095467297360301
-0.0111863063648343
-0.0128772919997572
-0.0145792588591575
-0.0162689872086048
-0.0179550368338823
-0.0196851063519716
-0.0215436797589063
-0.0236378610134124
-0.0260729528963565
-0.0289246942847967
-0.0322152040898799
-0.0358994677662849
-0.0398659855127334
-0.0439480952918529
-0.0479422770440578
-0.0516327880322933
-0.0548190027475357
-0.0573388636112213
-0.0590844452381134
-0.0600070767104625
-0.0601116418838501
-0.0594458505511283
-0.0580902285873889
-0.0561488308012485
-0.0537383146584034
-0.0509751848876476
-0.0479646511375904
-0.0447941347956657
-0.041530966758728
-0.0382221117615699
-0.0348939448595047
-0.0315534248948097
-0.0281939078122377
-0.0248029343783855
-0.0213674772530794
-0.0178774893283844
-0.0143292471766471
-0.010726973414421
-0.007082100957632
-0.0034120231866836
0.0002602860331535
0.0039066672325134
0.0074952058494091
0.010993342846632
0.0143723972141742
0.0176109708845615
0.0206956956535577
0.0236208420246839
0.0263868030160665
0.0289965327829122
0.0314521566033363
0.0337538719177246
0.0359008461236953
0.0378929302096366
0.0397310927510261
0.0414162650704383
0.0429490432143211
0.0443310476839542
0.045566588640213
0.0466632209718227
0.0476310364902019
0.0484812334179878
0.0492228269577026
0.0498568899929523
0.0503702983260154
0.0507303513586521
0.0508814342319965
0.050748273730278
0.0502487756311893
0.0493120141327381
0.0478950887918472
0.0459959208965301
0.0436597466468811
0.0409775041043758
0.0380763560533523
0.0351037271320819
0.0322081595659256
0.029522007331252
0.0271486286073923
0.0251549705862998
0.0235704537481069
0.0223907753825187
0.0215841569006443
0.0210982635617256
0.0208666920661926
0.0208151824772357
0.020868107676506
0.020955266430974
0.0210181809961795
0.0210148561745882
0.0209216065704822
0.0207321960479021
0.0204570777714252
0.0201231371611356
0.0197721328586339
0.0194559935480356
0.0192276164889335
0.0191311314702034
0.0191976185888052
0.0194452572613954
0.019880011677742
0.0204966645687818
0.0212797280400991
0.0222034696489572
0.0232325140386819
0.0243228003382682
0.0254228189587593
0.0264765340834856
0.0274265743792057
0.0282165817916393
0.0287947542965412
0.029118675738573
0.0291582159698009
0.0288952477276325
0.0283238030970096
0.0274536423385143
0.0263137631118297
0.0249500460922718
0.0234170276671648
0.0217662267386913
0.0200317874550819
0.0182151533663272
0.0162738487124443
0.0141208991408348
0.0116378478705883
0.0086965896189212
0.0051839351654052
0.0010254606604576
-0.0037957243621349
-0.0092281140387058
-0.0151494964957237
-0.0213758833706378
-0.0276821739971637
-0.033829241991043
-0.0395910330116748
-0.044777974486351
-0.0492535829544067
-0.0529405996203422
-0.0558170713484287
-0.0579075887799263
-0.0592734776437282
-0.0600020103156566
-0.0601943247020244
-0.059954147785902
-0.0593804270029068
-0.0585634484887123
-0.0575821921229362
-0.0565033555030822
-0.0553818568587303
-0.0542600452899932
-0.0531645566225051
-0.0521036610007286
-0.0510682165622711
-0.0500355809926986
-0.0489743426442146
-0.0478490963578224
-0.0466255992650985
-0.0452766492962837
-0.0437857918441295
-0.0421467348933219
-0.0403632521629333
-0.0384523831307888
-0.036445640027523
-0.0343845002353191
-0.0323137901723384
-0.0302763171494007
-0.0283063948154449
-0.026424054056406
-0.0246351994574069
-0.022935539484024
-0.021313801407814
-0.0197544638067483
-0.0182402394711971
-0.0167533941566944
-0.0152772003784775
-0.0137988831847906
-0.0123129813000559
-0.0108230216428637
-0.0093398978933691
-0.007877510972321
-0.0064477678388357
-0.0050564529374241
-0.003702187910676
-0.0023815799504518
-0.0011017220094799
0.0001042317599058
0.0011667581275105
0.0019797831773757
0.0024110786616802
0.00232251919806
0.0015955669805407
0.0001537846401333
-0.0020223916508257
-0.0048875920474529
-0.008328903466463
-0.0121712274849414
-0.0161930322647094
-0.0201507192105054
-0.0238068178296089
-0.0269561950117349
-0.0294456463307142
-0.0311848856508731
-0.0321481451392173
-0.0323666632175445
-0.031913224607706
-0.0308836940675973
-0.0293827690184116
-0.0275153331458568
-0.0253811012953519
-0.0230724122375249
-0.0206736642867326
-0.0182592067867517
-0.0158885046839714
-0.0136020481586456
-0.0114206820726394
-0.009346105158329
-0.0073626190423965
-0.0054422728717327
-0.0035507753491401
-0.0016503892838954
0.0002978555858135
0.0023284181952476
0.0044653229415416
0.0067208930850028
0.0090960524976253
0.0115783028304576
0.014139536768198
0.016737762838602
0.0193237699568271
0.0218494497239589
0.0242743380367755
0.0265694446861743
0.028718426823616
0.0307168439030647
0.0325702093541622
0.0342913269996643
0.0358979515731334
0.0374109968543052
0.0388531312346458
0.0402465052902698
0.0416062697768211
0.0429329201579093
0.0442117676138877
0.0454201847314834
0.046536237001419
0.0475444793701171
0.0484376922249794
0.0492152571678161
0.0498783849179744
0.0504225865006446
0.050828780978918
0.0510543584823608
0.0510288700461387
0.0506587550044059
0.0498393848538398
0.0484720766544342
0.0464849136769771
0.0438541434705257
0.0406192764639854
0.0368846990168094
0.0328074768185615
0.0285774059593677
0.0243953373283147
0.0204521920531988
0.0169093981385231
0.0138839818537235
0.0114420745521783
0.0096003152430057
0.0083328690379858
0.0075833164155483
0.0072789508849382
0.007342068478465
0.0076953545212745
0.0082642119377851
0.0089790318161249
0.0097774844616651
0.0106066893786191
0.0114250071346759
0.0122027862817049
0.0129221379756927
0.0135764880105853
0.0141703281551599
0.0147183034569025
0.0152424871921539
0.0157680697739124
0.0163180418312549
0.016908161342144
0.0175448842346668
0.0182254407554864
0.0189377721399068
0.019661571830511
0.0203702207654714
0.0210330784320831
0.0216193739324808
0.0221024844795465
0.0224632825702428
0.0226918160915374
0.0227860882878303
0.0227496940642595
0.0225900616496801
0.0223172344267368
0.0219452921301126
0.021495908498764
0.0209988318383693
0.0204866118729114
0.01998639293015
0.0195128004997968
0.0190606862306594
0.0185959618538618
0.0180491190403699
0.017316423356533
0.0162694901227951
0.0147708002477884
0.0126927737146615
0.009938571602106
0.0064613334834575
0.0022783689200878
-0.0025219283998012
-0.0077829472720623
-0.0132942367345094
-0.0188156887888908
-0.0241072159260511
-0.0289578530937433
-0.033205896615982
-0.0367461144924163
-0.0395282432436943
-0.0415516458451747
-0.0428565293550491
-0.0435116700828075
-0.0436015911400318
-0.0432171784341335
-0.0424508899450302
-0.0413941331207752
-0.0401336327195167
-0.0387473814189434
-0.037302941083908
-0.0358570143580436
-0.0344535335898399
-0.0331205278635025
-0.0318679213523864
-0.0306874774396419
-0.0295556597411632
-0.0284406803548336
-0.0273113064467906
-0.0261415708810091
-0.024911880493164
-0.0236115232110023
-0.0222415551543235
-0.0208151340484619
-0.0193567145615816
-0.0178997032344341
-0.016480466350913
-0.0151327215135097
-0.0138861946761608
-0.0127662196755409
-0.0117918848991394
-0.0109749138355255
-0.0103200152516365
-0.0098249167203903
-0.0094789005815982
-0.0092611536383628
-0.009141206741333
-0.0090829096734523
-0.0090513750910758
-0.0090203024446964
-0.008976761251688
-0.008921168744564
-0.0088615529239177
-0.0088057741522789
-0.0087570659816265
-0.0087130814790725
-0.0086695440113544
-0.0086317136883735
-0.008628848940134
-0.0087227188050746
-0.0090070590376853
-0.0095980931073427
-0.0106172747910022
-0.0121702048927545
-0.0143246669322252
-0.0170912127941846
-0.0204129703342914
-0.0241658836603164
-0.0281665660440921
-0.0321915484964847
-0.0360072962939739
-0.0393989607691764
-0.0421914458274841
-0.0442626625299453
-0.0455471500754356
-0.0460310503840446
-0.0457426607608795
-0.0447425171732902
-0.0431145168840885
-0.0409575253725051
-0.038377545773983
-0.0354794636368751
-0.0323588140308856
-0.0290971044450998
-0.0257618837058544
-0.0224097929894924
-0.0190900918096303
-0.0158442873507738
-0.012701035477221
-0.0096730329096317
-0.006760565098375
-0.0039575970731675
-0.0012557553127408
0.0013536093756556
0.0038793510757386
0.0063318950124084
0.0087226079776883
0.0110601242631673
0.013346467167139
0.0155766122043132
0.0177415665239095
0.019830172881484
0.0218287091702222
0.0237219277769327
0.0254951827228069
0.027136281132698
0.0286368411034345
0.0299916975200176
0.0311971232295036
0.032249990850687
0.0331479273736476
0.0338906720280647
0.0344831347465515
0.0349380820989608
0.0352750122547149
0.0355153642594814
0.0356782712042331
0.0357788279652595
0.0358267612755298
0.0358259379863739
0.0357768386602401
0.0356804691255092
0.0355410240590572
0.0353675037622451
0.0351729728281497
0.0349664464592933
0.0347382426261901
0.0344471335411071
0.0340148322284221
0.0333292111754417
0.0322565138339996
0.0306612141430377
0.0284310206770896
0.0255003795027732
0.0218655243515968
0.0175918787717819
0.0128152258694171
0.0077324672602117
0.0025806888006627
-0.0023913718760013
-0.0069531826302409
-0.0109168551862239
-0.0141528006643056
-0.0165969245135784
-0.0182484406977891
-0.0191583968698978
-0.019414335489273
-0.0191248580813407
-0.018405333161354
-0.0173686314374208
-0.016120009124279
-0.0147514538839459
-0.0133367776870727
-0.0119303436949849
-0.0105679556727409
-0.0092678731307387
-0.0080320630222558
-0.0068490719422698
-0.0057000489905476
-0.0045659244060516
-0.0034302826970815
-0.0022782301530241
-0.0010967440903186
0.0001231404021382
0.0013847798109054
0.0026843203231692
0.004008918069303
0.0053364378400146
0.006636643782258
0.0078744944185018
0.0090167066082358
0.0100386273115873
0.0109269591048359
0.0116774979978799
0.0122917704284191
0.0127758961170911
0.0131399827077984
0.0133974133059382
0.0135649591684341
0.0136620588600635
0.0137093747034668
0.0137272514402866
0.013731975108385
0.0137313306331634
0.0137236453592777
0.0137009769678115
0.0136531684547662
0.0135689973831176
0.0134360939264297
0.0132428277283906
0.0129800699651241
0.0126422485336661
0.0122310547158122
0.0117600671947002
0.0112548694014549
0.0107475705444812
0.0102660991251468
0.0098178116604685
0.0093739181756973
0.0088645834475755
0.0081860423088073
0.0072149378247559
0.0058262981474399
0.0039144689217209
0.0014143753796815
-0.001684405375272
-0.0053317197598516
-0.0094143403694033
-0.0137611543759703
-0.0181619953364133
-0.0223952624946832
-0.0262550972402095
-0.0295731984078884
-0.032234102487564
-0.0341818332672119
-0.0354152172803878
-0.0359748229384422
-0.035928763449192
-0.0353618487715721
-0.0343683995306491
-0.0330458283424377
-0.0314864814281463
-0.0297700650990009
-0.0279597919434309
-0.026101840659976
-0.0242266524583101
-0.0223508607596158
-0.0204788353294134
-0.0186055824160575
-0.0167227573692798
-0.0148237003013491
-0.012904655188322
-0.0109659675508737
-0.0090139275416731
-0.0070591294206678
-0.005112518556416
-0.0031836302950978
-0.0012808935716748
0.0005882997065782
0.0024177688173949
0.0042008720338344
0.0059268400073051
0.0075789103284478
0.0091371852904558
0.0105833364650607
0.0119027383625507
0.0130846910178661
0.01412302441895
0.0150168780237436
0.0157700665295124
0.0163880959153175
0.0168755091726779
0.0172360111027956
0.0174733884632587
0.0175911448895931
0.0175913386046886
0.0174734257161617
0.0172334518283605
0.0168653428554534
0.0163648948073387
0.0157328322529792
0.0149737484753131
0.0140921063721179
0.0130900740623474
0.0119705442339181
0.0107422247529029
0.0094226524233818
0.0080370036885142
0.0066100331023335
0.0051517486572265
0.0036439769901335
0.0020369896665215
0.0002583139576017
-0.0017718917224556
-0.0041227494366467
-0.006833616644144
-0.0099001275375485
-0.0132708232849836
-0.0168517790734767
-0.0205142386257648
-0.024105604737997
-0.0274653993546962
-0.0304435864090919
-0.0329175218939781
-0.0348046086728572
-0.0360677316784858
-0.0367120653390884
-0.0367747470736503
-0.0363132208585739
-0.0353967510163784
-0.0340995080769062
-0.0324941501021385
-0.0306463614106178
-0.0286116413772106
-0.026436299085617
-0.0241601280868053
-0.0218170136213302
-0.019433869048953
-0.0170296728610992
-0.0146153215318918
-0.012194700539112
-0.009766150265932
-0.0073231607675552
-0.0048560835421085
-0.0023567490279674
0.0001767352223396
0.0027379542589187
0.0053126122802495
0.0078813750296831
0.010423133149743
0.0129147414118051
0.0153294708579778
0.0176404863595962
0.0198274478316307
0.0218788906931877
0.0237903911620378
0.0255628637969493
0.0272019486874341
0.0287180729210376
0.0301261488348245
0.0314431861042976
0.0326843447983264
0.0338599570095539
0.0349749848246574
0.0360298492014408
0.0370204821228981
0.0379383787512779
0.0387730933725833
0.0395158268511295
0.0401608049869537
0.0407060645520687
0.0411556996405124
0.0415195971727371
0.0418086647987365
0.0420294851064682
0.0421788282692432
0.0422349572181701
0.0421476997435092
0.0418357476592063
0.0411970391869545
0.0401270054280757
0.0385348722338676
0.0363568849861621
0.0335713922977447
0.030212864279747
0.0263767838478088
0.0222148038446903
0.017921719700098
0.0137134622782468
0.0098007610067725
0.0063654305413365
0.0035427974071353
0.0014128637267276
-2.0605511963367465e-07
-0.0007231516065075
-0.0008245517965406
-0.0004046293906867
0.0004128376021981
0.0014873594045639
0.0026702862232923
0.0038180686533451
0.0048081800341606
0.0055505940690636
0.0059925653040409
0.0061193145811557
0.0059517379850149
0.005539821460843
0.0049520321190357
0.0042640212923288
0.0035480670630931
0.0028639100492
0.0022527556866407
0.0017345026135444
0.0013074167072772
0.0009501073509454
0.0006261505186557
0.0002915505319833
-9.546801447868349e-05
-0.0005657784640789
-0.0011375471949577
-0.001820120960474
-0.0026164725422859
-0.0035226754844188
-0.0045277774333953
-0.0056156106293201
-0.0067671537399291
-0.0079617537558078
-0.0091784559190273
-0.010398507118225
-0.0116075240075588
-0.0127967856824398
-0.0139630027115345
-0.0151056386530399
-0.0162239670753479
-0.0173154603689908
-0.0183739624917507
-0.0193889699876308
-0.0203475952148437
-0.0212362576276063
-0.0220409967005252
-0.0227486714720726
-0.0233496390283107
-0.0238423608243465
-0.0242425482720136
-0.0245966054499149
-0.0249932333827018
-0.0255647171288728
-0.0264721643179655
-0.0278781671077013
-0.0299179106950759
-0.0326750054955482
-0.0361624099314212
-0.0403106436133384
-0.0449668243527412
-0.049907024949789
-0.0548617020249366
-0.0595470406115055
-0.0636955201625824
-0.0670843794941902
-0.0695574581623077
-0.0710340142250061
-0.0715059638023376
-0.071028396487236
-0.0697043687105178
-0.0676651000976562
-0.0650492757558822
-0.0619864761829376
-0.0585874319076538
-0.0549401864409446
-0.0511118173599243
-0.0471548773348331
-0.0431132763624191
-0.0390238463878631
-0.0349169448018074
-0.0308180153369903
-0.0267473291605711
-0.0227179192006587
-0.0187345799058675
-0.0147957084700465
-0.0108962962403893
-0.0070296255871653
-0.00318871345371
0.0006304290145635
0.0044239768758416
0.0081773465499281
0.0118668265640735
0.0154632292687892
0.0189353972673416
0.0222540125250816
0.0253942385315895
0.0283361636102199
0.0310651753097772
0.0335728377103805
0.0358555316925048
0.0379115380346775
0.0397409498691558
0.041347861289978
0.0427412874996662
0.0439353063702583
0.0449495464563369
0.0458064079284668
0.0465240031480789
0.0471124798059463
0.047576755285263
0.0479198098182678
0.0481436029076576
0.0482484474778175
0.0482331588864326
0.0480978153645992
0.0478459820151329
0.047484315931797
0.047021597623825
0.0464637167751789
0.0457989647984504
0.0449806600809097
0.0439185537397861
0.0424816980957984
0.040513090789318
0.0378559455275535
0.0343857780098915
0.0300406888127326
0.024843081831932
0.0189071279019117
0.0124322334304451
0.0056855380535125
-0.001026920042932
-0.0073970444500446
-0.0131493564695119
-0.0180669240653514
-0.0220089517533779
-0.0249188058078289
-0.0268180780112743
-0.02778797224164
-0.0279463622719049
-0.0274272747337818
-0.0263655297458171
-0.02488724142313
-0.0231042988598346
-0.0211114324629306
-0.0189855359494686
-0.0167853347957134
-0.0145529201254248
-0.0123184751719236
-0.0101040620356798
-0.0079238172620534
-0.0057824645191431
-0.0036749020218849
-0.0015879906713962
0.0004951786249876
0.0025883009657263
0.0046959342435002
0.0068120770156383
0.008921037428081
0.0109984464943408
0.0130130313336849
0.014930535107851
0.0167195610702037
0.0183560289442539
0.0198241621255874
0.0211150553077459
0.0222250651568174
0.023156065493822
0.0239161495119333
0.0245175492018461
0.024973776191473
0.0252993255853652
0.0255093090236186
0.0256164632737636
0.0256280042231082
0.0255454517900943
0.0253676120191812
0.025094274431467
0.0247275307774543
0.0242693070322275
0.0237180534750223
0.0230690389871597
0.0223176106810569
0.0214616488665342
0.0205033645033836
0.0194528568536043
0.0183317400515079
0.0171715319156646
0.0160035863518714
0.0148419411852955
0.0136633031070232
0.0123917730525136
0.0108966017141938
0.0090058874338865
0.0065331012010574
0.0033111423254013
-0.0007720217108726
-0.0057433731853961
-0.0115275010466575
-0.0179457906633615
-0.0247326344251632
-0.0315661504864692
-0.0381072722375392
-0.0440394133329391
-0.0491036400198936
-0.0531240552663803
-0.056016482412815
-0.0577790886163711
-0.058471530675888
-0.058193102478981
-0.0570675507187843
-0.0552344731986522
-0.0528410524129867
-0.0500306189060211
-0.0469320565462112
-0.0436544269323349
-0.0402865707874298
-0.0368996262550354
-0.0335494950413703
-0.0302760954946279
-0.0271003656089305
-0.0240240059792995
-0.0210337284952402
-0.0181063525378704
-0.0152131905779242
-0.0123254545032978
-0.0094199795275926
-0.0064842170104384
-0.0035211227368563
-0.0005512060597538
0.0023917581420391
0.0052682026289403
0.008038917556405
0.0106693524867296
0.0131321772933006
0.015408769249916
0.0174894053488969
0.019371174275875
0.0210556276142597
0.0225475952029228
0.0238547921180725
0.0249880161136388
0.0259603783488273
0.0267837680876255
0.0274651609361171
0.0280070658773183
0.0284104403108358
0.0286759994924068
0.0288046486675739
0.028799744322896
0.0286700092256069
0.0284296125173568
0.0280951634049415
0.0276824757456779
0.0272059421986341
0.0266806129366159
0.0261235125362873
0.025550615042448
0.024967536330223
0.0243529267609119
0.0236389804631471
0.0227007120847702
0.0213639568537473
0.0194336809217929
0.0167344808578491
0.0131500111892819
0.0086518544703722
0.0033135199919342
-0.0026926482096314
-0.0091140903532505
-0.0156466029584407
-0.0219686366617679
-0.0277776569128036
-0.0328218266367912
-0.0369225442409515
-0.0399865470826625
-0.0420039668679237
-0.0430321581661701
-0.0431740619242191
-0.0425585955381393
-0.0413227826356887
-0.0395962931215763
-0.0374943055212497
-0.0351191349327564
-0.0325631350278854
-0.0299074277281761
-0.0272171236574649
-0.0245371274650096
-0.0218914095312356
-0.0192846376448869
-0.0167054720222949
-0.0141333388164639
-0.0115479938685894
-0.0089371493086218
-0.0062989625148475
-0.0036405092105269
-0.0009757690131664
0.0016747624613344
0.0042855036444962
0.0068303844891488
0.0092862909659743
0.0116320336237549
0.0138462511822581
0.0159080401062965
0.0177997834980487
0.0195094421505928
0.021030455827713
0.022360686212778
0.0235021859407424
0.0244603585451841
0.0252426080405712
0.0258586816489696
0.0263212416321039
0.0266446620225906
0.0268439501523971
0.0269348081201314
0.0269325971603393
0.026849890127778
0.0266944002360105
0.0264684166759252
0.0261712670326232
0.0258036889135837
0.0253698099404573
0.0248753037303686
0.024324644356966
0.0237221457064151
0.0230750627815723
0.022389467805624
0.0216562915593385
0.0208344236016273
0.0198376160115003
0.0185316372662782
0.016747448593378
0.0143084162846207
0.0110645024105906
0.0069274678826332
0.0018996493890881
-0.0039113545790314
-0.0102955792099237
-0.0169624239206314
-0.0235771313309669
-0.0298021771013736
-0.035335823893547
-0.0399426519870758
-0.0434723570942878
-0.0458657816052436
-0.0471480749547481
-0.0474101491272449
-0.0467843413352966
-0.0454225055873394
-0.0434797815978527
-0.0411028265953063
-0.0384236499667167
-0.0355572514235973
-0.0325981229543685
-0.0296178329735994
-0.0266668759286403
-0.0237770918756723
-0.0209624543786048
-0.0182204861193895
-0.0155363790690898
-0.0128897856920957
-0.010261470451951
-0.0076367887668311
-0.0050073666498064
-0.0023731924593448
0.0002562343142926
0.0028636376373469
0.0054280404001474
0.0079291965812444
0.0103497141972184
0.0126722436398267
0.0148742720484733
0.0169282872229814
0.0188084207475185
0.0204957239329814
0.0219782441854476
0.0232495125383138
0.0243082270026206
0.0251581519842147
0.0258073136210441
0.0262678489089012
0.0265560857951641
0.026691036298871
0.0266932118684053
0.0265849418938159
0.0263887476176023
0.0261227376759052
0.0257967710494995
0.0254120714962482
0.0249644126743078
0.0244496576488018
0.0238688886165618
0.023230405524373
0.0225494299083948
0.0218471121042966
0.0211465712636709
0.0204614959657192
0.019776664674282
0.019029326736927
0.0181031636893749
0.0168371591717004
0.0150460293516516
0.0125492317602038
0.0092048980295658
0.004943773150444
-0.0002049589529633
-0.006103993859142
-0.0125169828534126
-0.019133361056447
-0.0256039947271347
-0.0315826572477817
-0.0367663130164146
-0.0409269034862518
-0.0439297668635845
-0.0457365550100803
-0.0463932789862155
-0.0460075885057449
-0.0447246357798576
-0.0427088923752307
-0.0401317849755287
-0.0371623113751411
-0.0339585058391094
-0.0306594464927911
-0.0273777991533279
-0.0241935849189758
-0.0211530700325965
-0.0182746704667806
-0.0155567619949579
-0.0129825817421078
-0.0105245951563119
-0.0081517342478036
-0.0058360961265861
-0.0035556596703827
-0.0012959521263837
0.0009478987194597
0.0031709265895187
0.0053590014576911
0.0074892491102218
0.0095318239182233
0.0114530343562364
0.0132186170667409
0.0147971101105213
0.0161634888499975
0.017301570624113
0.0182025469839572
0.0188626181334257
0.0192854311317205
0.019485980272293
0.019490148872137
0.0193305872380733
0.0190400369465351
0.0186439082026481
0.0181567184627056
0.0175840966403484
0.0169279742985963
0.0161902774125337
0.0153731107711792
0.0144786583259701
0.013510962948203
0.012477702461183
0.0113911256194114
0.0102700358256697
0.0091418214142322
0.0080407187342643
0.007000864483416
0.0060445182025432
0.0051653841510415
0.004310434218496
0.0033701506908982
0.0021862566936761
0.0005771017167717
-0.0016255669761449
-0.0045369993895292
-0.0081882551312446
-0.0125119611620903
-0.017345467582345
-0.0224492512643337
-0.0275378189980983
-0.0323171019554138
-0.0365201979875564
-0.0399350076913833
-0.0424221456050872
-0.0439224354922771
-0.0444527640938758
-0.0440915897488594
-0.0429569743573665
-0.0411840006709098
-0.0389100387692451
-0.036266952753067
-0.0333746671676635
-0.0303361341357231
-0.0272354315966367
-0.0241370964795351
-0.0210840553045272
-0.0180960930883884
-0.0151730384677648
-0.012300357222557
-0.0094532128423452
-0.0066016763448715
-0.0037192218005657
-0.0007904209196567
0.0021859370172023
0.0051982887089252
0.0082263275980949
0.0112449899315834
0.014225723221898
0.0171355977654457
0.0199383255094289
0.0225987546145916
0.0250872820615768
0.0273822732269763
0.0294717997312545
0.0313541740179061
0.0330363139510154
0.0345306098461151
0.0358517356216907
0.0370150730013847
0.0380357205867767
0.0389257743954658
0.0396921709179878
0.0403387807309627
0.0408712550997734
0.0413003042340278
0.0416414178907871
0.0419112592935562
0.0421225689351558
0.0422806665301322
0.0423821695148944
0.0424125716090202
0.0423396117985248
0.0421038679778575
0.041612796485424
0.0407453626394271
0.0393701903522014
0.0373720899224281
0.0346783846616745
0.0312804356217384
0.0272470824420452
0.0227243807166814
0.0179192554205656
0.0130717260763049
0.0084228888154029
0.0041859960183501
0.0005257236771285
-0.0024537914432585
-0.0047116843052208
-0.0062642470002174
-0.0071740606799721
-0.0075372578576207
-0.0074699632823467
-0.0070963152684271
-0.0065389955416321
-0.0059105372056365
-0.0053058001212775
-0.0047976234927773
-0.0044350293464958
-0.0042418828234076
-0.0042159729637205
-0.004330747295171
-0.0045401044189929
-0.0047844229266047
-0.0049984105862677
-0.0051221544854342
-0.0051125981844961
-0.0049500348977744
-0.004637218080461
-0.0041941790841519
-0.003652493469417
-0.0030501587316393
-0.0024274280294775
-0.0018225191161036
-0.0012670764699578
-0.0007840748876333
-0.0003879722207784
-8.44169408082962e-05
0.0001302063465118
0.0002677049487829
0.000345155596733
0.0003805551677942
0.0003892686218023
0.0003833808004856
0.0003725066781044
0.000364676117897
0.0003676488995552
0.0003896057605743
0.0004382859915494
0.0005176160484552
0.0006185360252857
0.000703390687704
0.000690683722496
0.0004502404481172
-0.0001859385520219
-0.0013988688588142
-0.0033491961658
-0.0061432141810655
-0.0098052062094211
-0.0142602305859327
-0.0193329025059938
-0.0247646532952785
-0.030243782326579
-0.0354423224925994
-0.0400561615824699
-0.0438416004180908
-0.0466399267315864
-0.0483849234879016
-0.0490943267941474
-0.0488514564931392
-0.0477833896875381
-0.0460390709340572
-0.0437705516815185
-0.041121132671833
-0.0382201932370662
-0.0351808406412601
-0.0320997759699821
-0.0290586948394775
-0.0261226054280996
-0.023334015160799
-0.0207079593092203
-0.018231526017189
-0.0158683806657791
-0.0135672315955162
-0.011272526346147
-0.0089364685118198
-0.006528275553137
-0.0040356367826461
-0.0014628488570451
0.0011676372960209
0.0038140881806612
0.0064198873005807
0.0089211855083704
0.0112548302859067
0.0133656132966279
0.0152120441198349
0.0167709160596132
0.0180397685617208
0.0190352424979209
0.0197882056236267
0.0203380268067121
0.0207261219620704
0.0209897942841053
0.0211600475013256
0.0212628003209829
0.0213179644197225
0.021337179467082
0.0213265474885702
0.0212933681905269
0.0212484523653984
0.0211980771273374
0.0211270693689584
0.0209805369377136
0.0206532329320907
0.0199924707412719
0.0188155602663755
0.0169391669332981
0.0142156900838017
0.0105691980570554
0.0060225250199437
0.000708233565092
-0.0051414621993899
-0.0112233515828847
-0.0172017458826303
-0.0227492190897464
-0.0275821164250373
-0.0314868539571762
-0.0343380086123943
-0.036103218793869
-0.0368301346898078
-0.0366229265928268
-0.0356174148619174
-0.0339575558900833
-0.0317779183387756
-0.0291968844830989
-0.0263166241347789
-0.0232247039675712
-0.0199991688132286
-0.0167163666337728
-0.0134535506367683
-0.0102837728336453
-0.0072684586048126
-0.0044505214318633
-0.0018485179170966
0.0005453061312437
0.0027614103164523
0.0048457458615303
0.0068515511229634
0.0088315224274992
0.0108301537111401
0.0128760067746043
0.0149758420884609
0.0171132832765579
0.0192511454224586
0.0213348418474197
0.0232982337474823
0.0250736810266971
0.0266039576381444
0.0278519410640001
0.0288045760244131
0.0294701159000396
0.0298717375844717
0.0300425589084625
0.030022744089365
0.0298547521233558
0.0295767784118652
0.0292185973376035
0.028801018372178
0.0283376518636941
0.0278363395482301
0.02729925327003
0.0267252344638109
0.0261133406311273
0.0254602152854204
0.0247489158064126
0.0239346213638782
0.0229338686913251
0.0216225795447826
0.0198478605598211
0.0174538195133209
0.0143138226121664
0.0103609664365649
0.0056118685752153
0.0001781862229108
-0.0057386578992009
-0.011869141831994
-0.0179091226309537
-0.0235576163977384
-0.0285522788763046
-0.0326977521181106
-0.0358807817101478
-0.0380697362124919
-0.0393013693392276
-0.0396598353981971
-0.039255067706108
-0.0382050573825836
-0.036623291671276
-0.0346124842762947
-0.0322632826864719
-0.0296550709754228
-0.0268590059131383
-0.0239430703222751
-0.0209747031331062
-0.0180182717740535
-0.0151308560743927
-0.0123597923666238
-0.0097397938370704
-0.0072882222011685
-0.0050018625333905
-0.0028583751991391
-0.0008231311803683
0.0011409438448026
0.003064515069127
0.0049666045233607
0.006854245904833
0.0087248953059315
0.0105672134086489
0.0123594077304005
0.0140689080581069
0.0156567599624395
0.0170838441699743
0.0183148961514234
0.0193229131400585
0.0200953297317028
0.0206361897289752
0.0209620650857687
0.0210969392210245
0.0210691709071397
0.0209093950688838
0.0206481497734785
0.0203123055398464
0.0199221447110176
0.0194910187274217
0.0190249215811491
0.0185216907411813
0.0179734788835048
0.0173730198293924
0.016720063984394
0.0160238221287727
0.0152994878590106
0.0145585099235177
0.0137944407761096
0.0129686594009399
0.0120012294501066
0.0107724536210298
0.0091383326798677
0.0069574676454067
0.0041220877319574
0.0005850661545991
-0.0036231707781553
-0.0083904117345809
-0.0135292671620845
-0.0187943801283836
-0.0239119231700897
-0.0286160260438919
-0.0326820313930511
-0.0359493903815746
-0.0383313000202178
-0.0398118495941162
-0.040434144437313
-0.0402834564447402
-0.0394687950611114
-0.038105621933937
-0.0363025218248367
-0.0341546647250652
-0.0317445583641529
-0.0291462633758783
-0.0264280252158641
-0.0236524753272533
-0.0208754409104585
-0.0181441083550453
-0.0154953626915812
-0.0129534378647804
-0.0105275260284543
-0.0082125999033451
-0.0059936600737273
-0.0038506465498358
-0.001761803869158
0.0002946867025457
0.0023380436468869
0.0043787537142634
0.0064119817689061
0.0084161534905433
0.0103573519736528
0.0121957259252667
0.0138911865651607
0.015408263541758
0.0167202353477478
0.0178122539073228
0.0186836700886487
0.0193478167057037
0.0198276061564683
0.0201507303863763
0.0203477907925844
0.0204498544335365
0.0204829797148704
0.0204632561653852
0.0203946828842163
0.0202703922986984
0.0200785249471664
0.0198097601532936
0.0194606967270374
0.0190325081348419
0.0185291748493909
0.0179586131125688
0.017336381599307
0.0166865903884172
0.0160337965935468
0.0153874829411506
0.014726735651493
0.0139915728941559
0.013084964826703
0.0118858199566602
0.0102679459378123
0.0081218564882874
0.0053793564438819
0.0020354641601443
-0.0018400764092803
-0.0061038844287395
-0.0105532584711909
-0.0149521687999367
-0.019061904400587
-0.0226713772863149
-0.0256231930106878
-0.0278274752199649
-0.0292609557509422
-0.0299565307796001
-0.0299863908439874
-0.0294427424669265
-0.0284245647490024
-0.0270320363342762
-0.0253620594739913
-0.0235022660344839
-0.0215266644954681
-0.0194948483258485
-0.0174526702612638
-0.015432191081345
-0.0134520549327135
-0.011520130559802
-0.0096376445144414
-0.0078022028319537
-0.0060087433084845
-0.0042502516880631
-0.0025197574868798
-0.0008127270266413
0.0008708680979907
0.0025255200453102
0.0041419751942157
0.0057100243866443
0.0072186021134257
0.008654867298901
0.0100063420832157
0.0112641127780079
0.0124220801517367
0.0134736765176057
0.0144116394221782
0.0152318626642227
0.0159362144768238
0.0165302641689777
0.0170193407684564
0.0174074135720729
0.0176969580352306
0.0178885422646999
0.0179824419319629
0.0179801117628812
0.0178831815719604
0.0176932085305452
0.017413567751646
0.0170510224997997
0.0166155081242322
0.0161200016736984
0.0155820241197943
0.0150242559611797
0.0144721241667866
0.0139475408941507
0.0134591255336999
0.0129934139549732
0.0125089678913354
0.0119322100654244
0.0111586702987551
0.0100642498582601
0.0085263978689908
0.006450408603996
0.0037935944274067
0.0005816640332341
-0.00308658182621
-0.0070482757873833
-0.0110976602882146
-0.0150142451748251
-0.018591271713376
-0.0216583535075187
-0.0240947119891643
-0.0258351154625415
-0.0268716048449277
-0.0272488184273242
-0.0270507223904132
-0.026381341740489
-0.0253465939313173
-0.0240441914647817
-0.0225597284734249
-0.0209630765020847
-0.0193062722682952
-0.0176256019622087
-0.0159456562250852
-0.0142829017713665
-0.0126478821039199
-0.0110456496477127
-0.0094749880954623
-0.0079280519858002
-0.0063941003754734
-0.0048667974770069
-0.0033476166427135
-0.0018431865610182
-0.0003613606095314
0.0010913657024502
0.0025106435641646
0.0038933930918574
0.005235812626779
0.0065310630016028
0.0077687865123152
0.008936752565205
0.0100215738639235
0.0110085811465978
0.0118843149393796
0.0126398019492626
0.0132698034867644
0.0137702766805887
0.0141390701755881
0.0143793113529682
0.0145017020404338
0.0145233701914548
0.014465108513832
0.0143490526825189
0.0141955092549324
0.014019938185811
0.013832326978445
0.0136379338800907
0.0134382294490933
0.0132319573312997
0.0130171226337552
0.01279385574162
0.012564105913043
0.0123261678963899
0.0120681254193186
0.0117620853707194
0.011358680203557
0.0107856858521699
0.0099541051313281
0.00877002812922
0.0071505298838019
0.0050421021878719
0.0024372769985347
-0.000615176744759
-0.0040086912922561
-0.007586152292788
-0.0111557431519031
-0.0145148374140262
-0.0174778252840042
-0.0199004039168357
-0.0216953847557306
-0.0228383615612983
-0.0233614593744277
-0.0233363471925258
-0.0228544771671295
-0.0220130030065774
-0.0209068730473518
-0.019622053951025
-0.018229242414236
-0.0167830120772123
-0.0153257641941308
-0.0138895362615585
-0.0124933877959847
-0.0111411418765783
-0.0098254010081291
-0.0085368975996971
-0.0072700139135122
-0.0060207112692296
-0.0047842459753155
-0.0035558021627366
-0.0023301765322685
-0.0011020256206393
0.0001317299902439
0.0013709822669625
0.0026130871847271
0.0038530458696186
0.0050831725820899
0.0062919203191995
0.0074643716216087
0.0085866311565041
0.0096482187509536
0.0106387138366699
0.0115450443699955
0.0123533336445689
0.0130518153309822
0.0136324856430292
0.0140921249985694
0.0144329760223627
0.0146634727716445
0.0147988256067037
0.0148593373596668
0.0148665038868784
0.0148399798199534
0.0147951617836952
0.0147403515875339
0.0146775916218757
0.014607498422265
0.0145320324227213
0.0144530339166522
0.0143667440861463
0.0142553746700286
0.0140812564641237
0.0137851946055889
0.0132855679839849
0.0124815991148352
0.0112673174589872
0.0095533141866326
0.0072882859967648
0.0044748550280928
0.0011765586677938
-0.0024834694340825
-0.0063319886103272
-0.0101655917242169
-0.0137772960588335
-0.0169824939221143
-0.0196406543254852
-0.0216679144650697
-0.0230367816984653
-0.0237678419798612
-0.0239190440624952
-0.0235730949789285
-0.0228257235139608
-0.0217773430049419
-0.0205246713012456
-0.0191518869251012
-0.0177260488271713
-0.0162968542426824
-0.0148969870060682
-0.0135432360693812
-0.0122399050742387
-0.010982122272253
-0.0097578223794698
-0.0085506550967693
-0.0073432656936347
-0.0061185089871287
-0.0048605147749185
-0.0035586170852184
-0.0022118994966149
-0.0008308049291372
0.0005644625052809
0.001948204357177
0.0032944595441222
0.004581082612276
0.0057924911379814
0.0069194436073303
0.0079552643001079
0.0088936928659677
0.0097311530262231
0.0104697328060865
0.0111175300553441
0.0116863064467906
0.0121896564960479
0.0126434117555618
0.0130639877170324
0.0134642180055379
0.0138520970940589
0.0142329661175608
0.0146118123084306
0.0149937197566032
0.0153818959370255
0.0157744456082582
0.0161627866327762
0.0165341682732105
0.0168756619095802
0.0171734802424907
0.0174067970365285
0.0175390876829624
0.0175091158598661
0.0172269791364669
0.0165808945894241
0.0154542317613959
0.0137481978163123
0.0114045068621635
0.008423451334238
0.0048741670325398
0.0008936519734561
-0.0033272427972406
-0.0075675044208765
-0.0116032324731349
-0.0152341751381754
-0.0183055642992258
-0.0207207594066858
-0.022442664951086
-0.023486603051424
-0.0239097774028778
-0.023800104856491
-0.0232634171843528
-0.0224091783165931
-0.021338852122426
-0.0201392713934183
-0.0188784338533878
-0.0176036395132541
-0.0163444429636001
-0.0151174571365118
-0.0139286387711763
-0.0127739580348134
-0.0116406176239252
-0.010509068146348
-0.0093557797372341
-0.0081565901637077
-0.0068894452415406
-0.0055365306325256
-0.0040872017852962
-0.0025402205064892
-0.0009042797610163
0.0008008060976862
0.0025434573180973
0.0042832479812204
0.0059760534204542
0.0075792074203491
0.0090555036440491
0.0103754522278904
0.0115196537226438
0.0124811772257089
0.0132645266130566
0.0138825662434101
0.0143544562160968
0.0147025380283594
0.0149476174265146
0.0151064582169055
0.0151938199996948
0.0152270011603832
0.0152279082685709
0.015220352448523
0.0152254020795226
0.0152581185102462
0.0153271257877349
0.0154358781874179
0.0155803002417087
0.0157393813133239
0.0158641207963228
0.0158719476312398
0.0156485214829444
0.0150573290884494
0.0139581905677914
0.0122336875647306
0.0098162610083818
0.0067077139392495
0.0029892055317759
-0.0011806013062596
-0.0055827372707426
-0.0099659813567996
-0.0140780135989189
-0.0176953617483377
-0.0206479467451572
-0.0228341519832611
-0.0242241695523262
-0.0248521119356155
-0.0248009264469146
-0.0241849198937416
-0.0231333412230014
-0.0217764768749475
-0.0202344469726085
-0.0186103209853172
-0.01698749512434
-0.0154275670647621
-0.0139677450060844
-0.01262111030519
-0.0113800754770636
-0.0102213025093078
-0.0091116093099117
