bvp
0.0378170870244503
0.0350469462573528
0.0313340723514556
0.0267991460859775
0.0216399803757667
0.0161096192896366
0.010484411381185
0.0050315102562308
-1.6197562217712402e-05
-0.0044765211641788
-0.0082258721813559
-0.0111984591931104
-0.0133782308548688
-0.0147874411195516
-0.0154771460220217
-0.0155224595218896
-0.015017282217741
-0.0140634533017873
-0.0127605106681585
-0.0112014841288328
-0.0094700856134295
-0.0076369773596525
-0.0057580899447202
-0.0038735382258892
-0.0020053992047905
-0.0001583364792168
0.0016752667725086
0.0035092956386506
0.00535903358832
0.0072363959625363
0.0091437008231878
0.0110680740326642
0.0129820238798856
0.0148495584726333
0.0166321191936731
0.0182924885302782
0.0197975039482116
0.0211207326501607
0.0222453884780406
0.0231655444949865
0.0238845534622669
0.024411492049694
0.0247581005096435
0.0249375328421592
0.0249631777405738
0.0248479917645454
0.0246040485799312
0.0242406241595745
0.0237639471888542
0.0231786854565143
0.022487299516797
0.0216893516480922
0.0207828767597675
0.0197630990296602
0.0186131875962018
0.0172881074249744
0.0157017707824707
0.0137291736900806
0.0112254098057746
0.0080547779798507
0.0041226018220186
-0.0005968622863292
-0.0060450192540884
-0.0120816640555858
-0.0185016840696334
-0.0250596422702074
-0.0314991474151611
-0.037580706179142
-0.043101854622364
-0.0479087233543396
-0.0518991947174072
-0.0550190955400466
-0.0572551302611827
-0.0586261972784996
-0.0591741725802421
-0.0589575916528701
-0.0580486766993999
-0.0565302856266498
-0.0544917359948158
-0.0520246997475624
-0.0492190867662429
-0.0461589470505714
-0.0429197773337364
-0.039566546678543
-0.0361504480242729
-0.0327062979340553
-0.0292540099471807
-0.0258036702871322
-0.0223614331334829
-0.0189331024885177
-0.0155242281034588
-0.0121403187513351
-0.0087893530726432
-0.0054843528196215
-0.0022448210511356
0.0009032250382006
0.0039301007054746
0.0068074134178459
0.0095120994374156
0.0120276939123868
0.0143435355275869
0.0164538603276014
0.0183576699346303
0.0200591962784528
0.0215683858841657
0.0228993874043226
0.024066861718893
0.0250831544399261
0.0259585194289684
0.0267037656158208
0.0273306183516979
0.0278465989977121
0.0282498821616172
0.0285286791622638
0.0286631509661674
0.0286244601011276
0.0283659603446722
0.027811786159873
0.026855532079935
0.0253745950758457
0.0232546925544738
0.0204161703586578
0.0168377310037612
0.0125721609219908
0.0077474331483244
0.0025533605366945
-0.002782879397273
-0.0080283787101507
-0.0129740862175822
-0.017453258857131
-0.0213474072515964
-0.0245839729905128
-0.0271290224045515
-0.0289783664047718
-0.0301509052515029
-0.0306829828768968
-0.0306222457438707
-0.0300235599279403
-0.0289484430104494
-0.0274665132164955
-0.0256548039615154
-0.0235916581004858
-0.021349262446165
-0.0189894847571849
-0.0165612511336803
-0.0140991685912013
-0.011625338345766
-0.0091533446684479
-0.0066928537562489
-0.0042525269091129
-0.0018396652303636
0.0005401656962931
0.002880512503907
0.0051715970039367
0.0074009508825838
0.0095549263060092
0.0116194328293204
0.0135804312303662
0.015423210337758
0.0171313881874084
0.0186885949224233
0.0200809389352798
0.0212988778948783
0.0223400704562664
0.0232106167823076
0.023922637104988
0.0244908407330513
0.0249304696917533
0.025255849584937
0.025477759540081
0.0256010442972183
0.0256251618266105
0.0255478154867887
0.0253692548722028
0.0250929463654756
0.0247221514582633
0.0242579784244298
0.0237011332064867
0.0230538826435804
0.022320644930005
0.0215074084699153
0.0206185709685087
0.0196495205163955
0.0185756850987672
0.0173427611589431
0.0158651731908321
0.0140374628826975
0.0117553127929568
0.0089375162497162
0.0055455602705478
0.0015996024012565
-0.002815930172801
-0.0075605763122439
-0.0124553572386503
-0.01730402931571
-0.0219152197241783
-0.0261225029826164
-0.029798112809658
-0.0328580141067504
-0.035259261727333
-0.036992534995079
-0.0380747020244598
-0.0385447219014167
-0.0384611450135707
-0.0378969386219978
-0.036931037902832
-0.0356423892080783
-0.0341078229248523
-0.0323975645005703
-0.030568677932024
-0.028662197291851
-0.0267042256891727
-0.0247077941894531
-0.0226741060614585
-0.0205953419208526
-0.0184615794569253
-0.0162689052522182
-0.0140227191150188
-0.0117353368550539
-0.0094227520748972
-0.0071028121747076
-0.0047928811982274
-0.0025086388923227
-0.0002665219362825
0.0019131941953673
0.0040060114115476
0.005986439064145
0.0078340601176023
0.0095380898565053
0.0110968817025423
0.012514280155301
0.0137969404458999
0.0149538125842809
0.015995068475604
0.0169295873492956
0.0177635923027992
0.0185015555471181
0.0191489364951849
0.0197144150733947
0.0202089250087738
0.0206431187689304
0.0210251584649086
0.0213585048913955
0.0216409135609865
0.0218656733632087
0.0220228843390941
0.0221000611782073
0.0220811683684587
0.0219398792833089
0.0216298028826713
0.0210806541144847
0.0202032569795846
0.0189034584909677
0.0171036124229431
0.0147626604884862
0.0118868155404925
0.008531630039215
0.0047989590093493
0.0008295527659356
-0.0032110754400491
-0.0071532470174133
-0.0108439475297927
-0.0141614377498626
-0.0170213542878627
-0.0193761866539716
-0.0212106481194496
-0.0225338954478502
-0.0233717765659093
-0.0237630661576986
-0.0237585064023733
-0.0234196335077285
-0.0228153988718986
-0.0220148097723722
-0.0210782699286937
-0.0200515929609537
-0.0189629811793565
-0.0178232174366712
-0.016628548502922
-0.0153645854443311
-0.0140121467411518
-0.0125547004863619
-0.0109841935336589
-0.0093036815524101
-0.00752738956362
-0.005678794812411
-0.0037876283749938
-0.0018876851536333
-1.4466233551502228e-05
0.0018000463023781
0.0035319491289556
0.0051647895015776
0.0066869971342384
0.0080915810540318
0.009376848116517
0.0105459718033671
0.0116064362227916
0.012570071965456
0.013451874256134
0.0142666269093751
0.0150251267477869
0.0157330464571714
0.0163920633494853
0.0169994011521339
0.0175465829670429
0.0180208720266819
0.0184087753295898
0.0187000203877687
0.0188901610672473
0.0189798455685377
0.0189728122204542
0.0188753306865692
0.018696341663599
0.0184466484934091
0.0181364957243204
0.0177719220519065
0.0173501539975404
0.0168529748916625
0.0162387005984783
0.0154385883361101
0.0143640795722603
0.0129239782691001
0.0110436230897903
0.0086811510846018
0.0058404933661222
0.0025770920328795
-0.0010070684365928
-0.0047753495164215
-0.0085710035637021
-0.0122326938435435
-0.0156108010560274
-0.0185846704989671
-0.0210750065743923
-0.0230447631329298
-0.0244909599423408
-0.0254347641021013
-0.0259147509932518
-0.0259827729314565
-0.025699621066451
-0.0251309666782617
-0.0243437215685844
-0.0233992878347635
-0.0223451741039752
-0.0212119221687316
-0.0200158227235078
-0.0187624804675579
-0.0174501277506351
-0.0160734411329031
-0.0146264918148517
-0.0131038948893547
-0.0115026235580444
-0.0098269553855061
-0.0080926716327667
-0.0063247550278902
-0.0045509915798902
-0.0027977768331766
-0.0010887160897254
0.0005565346218645
0.0021230792626738
0.0036007729358971
0.0049832947552204
0.006266402080655
0.0074477843008935
0.0085292160511016
0.0095178680494427
0.0104253133758902
0.0112649630755186
0.0120476745069026
0.0127775743603706
0.013452410697937
0.0140674412250518
0.014619031921029
0.0151065420359373
0.0155314318835735
0.015894815325737
0.0161967817693948
0.0164371989667415
0.0166154466569423
0.0167297013103961
0.0167772360146045
0.0167538840323686
0.0166518930345773
0.0164565667510032
0.0161395352333784
0.0156511608511209
0.014920100569725
0.0138632766902446
0.012403248809278
0.0104872686788439
0.0081024775281548
0.0052849655039608
0.0021212231367826
-0.0012596681481227
-0.004701679572463
-0.0080419518053531
-0.0111313285306096
-0.0138505287468433
-0.0161185879260301
-0.0178928766399621
-0.0191645305603742
-0.0199536941945552
-0.0203031096607446
-0.0202692374587059
-0.0199143178761005
-0.0193003881722688
-0.0184838846325874
-0.0175121612846851
-0.0164235290139913
-0.0152480546385049
-0.0140073411166667
-0.0127154048532247
-0.0113812070339918
-0.0100111961364746
-0.0086106080561876
-0.0071837264113128
-0.005735092330724
-0.0042718201875686
-0.0028035105206072
-0.0013398574665188
0.0001100320369005
0.0015370012260973
0.0029320791363716
0.0042865402065217
0.0055910069495439
0.0068347384221851
0.0080053880810737
0.0090887704864144
0.0100699728354811
0.0109374038875103
0.0116889681667089
0.0123359812423586
0.0129001084715127
0.0134051330387592
0.0138694634661078
0.0143034290522336
0.0147118140012025
0.0150970248505473
0.0154589358717203
0.0157940201461315
0.0160956941545009
0.0163544304668903
0.0165588930249214
0.0166992098093032
0.0167704299092292
0.0167733430862426
0.0167120471596717
0.0165914539247751
0.0164140928536653
0.016172120347619
0.0158371180295944
0.0153547152876853
0.01464803237468
0.013630136847496
0.0122232865542173
0.0103787034749984
0.0080907605588436
0.0054045310243964
0.0024139680899679
-0.0007513747550547
-0.0039441399276256
-0.0070161293260753
-0.0098354341462254
-0.0122995059937238
-0.0143401306122541
-0.0159244909882545
-0.0170540027320384
-0.0177585706114768
-0.0180877111852169
-0.0181021243333816
-0.0178672336041927
-0.0174477323889732
-0.016902957111597
-0.0162841491401195
-0.0156325697898864
-0.0149769410490989
-0.0143315605819225
-0.0136960670351982
-0.0130555741488933
-0.0123827205970883
-0.0116466507315635
-0.0108258370310068
-0.0099133076146245
-0.008913155645132
-0.0078370766714215
-0.0067034224048256
-0.0055357124656438
-0.0043599000200629
-0.0032006760593503
-0.0020774682052433
-0.0010033214930444
1.2795906513929369e-05
0.0009643197990953
0.001847036415711
0.0026585762389004
0.0033982780296355
0.0040677115321159
0.0046705398708581
0.005212265998125
0.0056994240731
0.0061378665268421
0.0065319463610649
0.0068852170370519
0.0072010681033134
0.0074815056286752
0.0077258311212062
0.0079322066158056
0.0080998167395591
0.0082290694117546
0.0083213560283184
0.0083769252523779
0.0083879698067903
0.0083278510719537
0.0081404354423284
0.0077382968738675
0.0070172389969229
0.0058804643340408
0.0042592617683112
0.002127643674612
-0.0004871021956205
-0.0035018008202314
-0.0067863301374018
-0.0101815294474363
-0.0135194445028901
-0.0166414342820644
-0.0194141827523708
-0.021741185337305
-0.0235645584762096
-0.0248611457645893
-0.0256399512290954
-0.0259378645569086
-0.0258120372891426
-0.0253334715962409
-0.0245806276798248
-0.0236293002963066
-0.0225422009825706
-0.0213652104139328
-0.0201308950781822
-0.0188618879765272
-0.0175698194652795
-0.0162539519369602
-0.0149030219763517
-0.013498930260539
-0.0120216030627489
-0.0104556204751133
-0.0087961582466959
-0.0070505738258361
-0.0052359169349074
-0.0033759791404008
-0.0014989078044891
0.0003662509843707
0.0021926602348685
0.0039564203470945
0.0056369109079241
0.0072179799899458
0.0086894324049353
0.0100484602153301
0.0112997163087129
0.0124535588547587
0.0135219609364867
0.0145127214491367
0.0154260406270623
0.0162564739584922
0.0169982016086578
0.017648747190833
0.0182096511125564
0.0186864137649536
0.0190880764275789
0.0194250606000423
0.0197057612240314
0.0199340619146823
0.0201085358858108
0.020219849422574
0.0202434938400983
0.020132377743721
0.0198158510029315
0.019206391647458
0.0182124581187963
0.0167552679777145
0.0147862611338496
0.0123027730733156
0.0093580801039934
0.0060593606904149
0.0025533614680171
-0.0009925812482833
-0.0044100433588027
-0.007548744790256
-0.0102909682318568
-0.0125579042360186
-0.0143095981329679
-0.0155405541881918
-0.0162722393870353
-0.0165456049144268
-0.0164161063730716
-0.015949597582221
-0.0152177428826689
-0.0142926936969161
-0.0132402665913105
-0.0121144698932766
-0.0109560508280992
-0.0097929555922746
-0.0086404746398329
-0.0075007649138569
-0.0063640642911195
-0.0052136983722448
-0.0040308469906449
-0.0027957474812865
-0.0014904160052537
-0.0001071337610483
0.0013441983610391
0.002838029526174
0.0043414682149887
0.0058218082413077
0.0072504673153162
0.0086043393239378
0.0098671875894069
0.011031188070774
0.0120963007211685
0.0130683500319719
0.0139577826485037
0.0147773874923586
0.015538178384304
0.0162468403577804
0.0169061180204153
0.0175151750445365
0.0180692039430141
0.0185602791607379
0.0189783610403537
0.0193088334053754
0.0195257067680358
0.019584521651268
0.0194194130599498
0.0189465768635272
0.0180768184363842
0.0167357213795185
0.0148842632770538
0.0125337708741426
0.0097512174397706
0.0066538834944367
0.0033950032666325
0.0001424280926585
-0.002944563049823
-0.0057331388816237
-0.0081254700198769
-0.0100590530782938
-0.0115034151822328
-0.0124576473608613
-0.0129482327029109
-0.0130231641232967
-0.0127432821318507
-0.0121754091233015
-0.0113879656419157
-0.0104474537074565
-0.0094148311764001
-0.0083417389541864
-0.0072672455571591
-0.0062164235860109
-0.0052018514834344
-0.0042261639609932
-0.0032843954395502
-0.0023679148871451
-0.0014690174721181
-0.0005827229470014
0.0002938648685812
0.0011620218865573
0.0020213529933243
0.0028693978674709
0.003701439127326
0.0045111165381968
0.0052908710204064
0.0060330657288432
0.0067322142422199
0.0073843812569975
0.0079837720841169
0.0085219191387295
0.0089901564642786
0.0093821762129664
0.0096937082707881
0.0099162440747022
0.0100260879844427
0.0099753346294164
0.009689912199974
0.0090772714465856
0.0080445613712072
0.0065216952934861
0.0044808890670537
0.0019492367282509
-0.0009884499013423
-0.0042004222050309
-0.0075285863131284
-0.0108093656599521
-0.0138903949409723
-0.0166430845856666
-0.0189699381589889
-0.0208062715828418
-0.0221187081187963
-0.0229017622768878
-0.0231731720268726
-0.0229705180972814
-0.0223485231399536
-0.0213748384267091
-0.0201249178498983
-0.0186748951673507
-0.0170930847525596
-0.0154357831925153
-0.0137475524097681
-0.0120609691366553
-0.0103958006948232
-0.0087591353803873
-0.0071461992338299
-0.0055434484966099
-0.0039341659285128
-0.0023033865727484
-0.0006406106986105
0.0010581106180325
0.0027876545209437
0.0045324205420911
0.0062676891684532
0.0079633751884102
0.0095889456570148
0.0111166229471564
0.0125215658918023
0.0137832136824727
0.0148899564519524
0.0158423911780118
0.0166505109518766
0.0173282623291015
0.0178909078240394
0.0183520931750535
0.0187174808233976
0.0189783386886119
0.0191051550209522
0.0190398227423429
0.018692523241043
0.0179519075900316
0.0167072359472513
0.0148713514208793
0.0123992376029491
0.0093033462762832
0.0056599685922265
0.0016010990366339
-0.0027040247805416
-0.0070708761923015
-0.0113201467320322
-0.0152923632413148
-0.0188559219241142
-0.0219120550900697
-0.0243975669145584
-0.0262821409851312
-0.0275601353496313
-0.028242789208889
-0.028355548158288
-0.0279395170509815
-0.0270524658262729
-0.0257659889757633
-0.0241603385657072
-0.0223182924091815
-0.020317904651165
-0.0182252861559391
-0.0160889308899641
-0.0139381121844053
-0.0117859216406941
-0.0096341716125607
-0.0074791093356907
-0.0053179464302957
-0.0031528384424746
-0.000989835942164
0.0011629418004304
0.0032937107607722
0.0053851949051022
0.0074157319031655
0.0093615753576159
0.0112001979723572
0.0129144508391618
0.014494352042675
0.0159366074949502
0.017244167625904
0.0184232406318187
0.0194769483059644
0.0204029660671949
0.0211980696767568
0.0218627415597438
0.0224015247076749
0.0228218547999858
0.0231326092034578
0.0233416929841041
0.0234552770853042
0.0234784614294767
0.0234140660613775
0.0232609584927558
0.0230149254202842
0.0226723402738571
0.0222329962998628
0.0216983519494533
0.0210689511150121
0.0203454606235027
0.0195295624434947
0.018621452152729
0.0176153238862752
0.0164908897131681
0.0151999853551387
0.0136597445234656
0.0117645040154457
0.0094110555946826
0.006524508818984
0.0030796509236097
-0.0008865147829055
-0.0052761910483241
-0.0099437283352017
-0.0147153753787279
-0.0194119531661272
-0.023868279531598
-0.0279465317726135
-0.0315444581210613
-0.0345972776412963
-0.037072405219078
-0.0389607921242713
-0.040270309895277
-0.0410214662551879
-0.0412435680627822
-0.0409729145467281
-0.0402531772851944
-0.039134819060564
-0.0376734174787998
-0.0359273217618465
-0.0339536629617214
-0.0318059809505939
-0.0295341815799474
-0.0271819569170475
-0.0247820392251014
-0.0223542153835296
-0.019907359033823
-0.0174439419060945
-0.0149657567963004
-0.0124784810468554
-0.0099923331290483
-0.0075204004533588
-0.0050776172429323
-0.0026801982894539
-0.000344913220033
0.0019124975660815
0.004080350510776
0.0061523150652647
0.0081234537065029
0.0099852867424488
0.0117270536720752
0.0133418291807174
0.0148306880146265
0.0162004362791776
0.0174570381641387
0.0186020191758871
0.0196333788335323
0.0205466039478778
0.0213358364999294
0.0219967700541019
0.0225291009992361
0.0229374840855598
0.0232318453490734
0.0234260633587837
0.0235340222716331
0.0235658176243305
0.0235267635434865
0.0234174169600009
0.0232340488582849
0.0229721311479806
0.0226313099265098
0.0222164243459701
0.0217332709580659
0.0211819559335708
0.0205505788326263
0.0198088604956865
0.0189004391431808
0.0177410021424293
0.0162311773747205
0.0142799373716115
0.0118273515254259
0.0088610928505659
0.0054242182523012
0.0016115773469209
-0.0024430057965219
-0.0065846210345625
-0.0106572192162275
-0.0145211033523082
-0.0180637594312429
-0.0212038457393646
-0.0238913409411907
-0.0261042583733797
-0.0278402157127857
-0.0291062612086534
-0.0299130007624626
-0.0302743688225746
-0.0302107147872447
-0.0297524314373731
-0.0289406701922416
-0.0278227068483829
-0.0264452435076236
-0.0248530935496091
-0.0230932235717773
-0.0212158858776092
-0.0192700680345296
-0.0172966923564672
-0.0153227346017956
-0.0133595904335379
-0.011406903155148
-0.0094595365226268
-0.0075139929540455
-0.0055706915445625
-0.003632971085608
-0.0017068046145141
0.0001991079188883
0.002074799966067
0.0039105615578591
0.0056953877210617
0.0074138990603387
0.0090483399108052
0.010584533214569
0.012014496140182
0.0133355036377906
0.0145485047250986
0.0156563576310873
0.0166620500385761
0.0175673775374889
0.0183735415339469
0.0190834868699312
0.0197026450186967
0.0202371422201395
0.0206920057535171
0.0210701636970043
0.0213711317628622
0.0215912032872438
0.021726194769144
0.0217731148004531
0.0217296872287988
0.0215940624475479
0.0213655177503824
0.0210452321916818
0.0206361841410398
0.0201435107737779
0.0195751935243606
0.0189405158162117
0.0182464122772216
0.0174942426383495
0.0166770983487367
0.0157730504870414
0.0147350784391164
0.0134895201772451
0.0119494181126356
0.0100350528955459
0.0076928418129682
0.0049092192202806
0.0017183208838105
-0.0017974441871047
-0.0055161290802061
-0.0092943124473094
-0.0129884891211986
-0.0164719987660646
-0.0196442194283008
-0.022434277459979
-0.0248001758009195
-0.0267222579568624
-0.0281953774392604
-0.0292243473231792
-0.029822701588273
-0.0300141796469688
-0.0298338308930397
-0.0293259806931018
-0.02854117564857
-0.0275329127907753
-0.0263523161411285
-0.0250418987125158
-0.0236322078853845
-0.0221433937549591
-0.0205890983343124
-0.018978701904416
-0.0173177532851696
-0.0156082585453987
-0.0138505110517144
-0.012047535739839
-0.010208923369646
-0.008350889198482
-0.0064939046278595
-0.0046596201136708
-0.0028676441870629
-0.0011323979124426
0.0005381675437092
0.0021397506352514
0.0036676318850368
0.0051153772510588
0.0064759859815239
0.0077445586211979
0.0089219072833657
0.0100153163075447
0.0110328439623117
0.0119770988821983
0.0128474617376923
0.013646213337779
0.0143790375441312
0.0150505695492029
0.0156603995710611
0.0162023827433586
0.0166672058403491
0.0170473661273717
0.0173423774540424
0.0175591669976711
0.0177065543830394
0.0177894439548254
0.0178084373474121
0.0177643932402133
0.0176605563610792
0.0174994152039289
0.0172814894467592
0.017007902264595
0.0166798364371061
0.0162955615669488
0.0158509220927953
0.0153405293822288
0.0147539507597684
0.0140682961791753
0.013242095708847
0.0122144874185323
0.0109119256958365
0.0092623783275485
0.007214137353003
0.0047528743743896
0.001908847130835
-0.0012468420900404
-0.0046096546575427
-0.0080504324287176
-0.0114304460585117
-0.0146206375211477
-0.0175164453685283
-0.0200446154922246
-0.0221636407077312
-0.0238603558391332
-0.0251439437270164
-0.0260377712547779
-0.0265717841684818
-0.0267781503498554
-0.0266882330179214
-0.026329094544053
-0.0257245190441608
-0.0249017030000686
-0.0238940361887216
-0.0227375552058219
-0.0214673988521099
-0.0201143901795148
-0.0187009815126657
-0.0172403287142515
-0.0157383196055889
-0.0141955837607383
-0.0126104820519685
-0.0109833255410194
-0.0093174679204821
-0.0076167816296219
-0.0058845807798206
-0.0041257319971919
-0.0023502856492996
-0.0005759457126259
0.0011736182495951
0.0028729643672704
0.00449845707044
0.0060312878340482
0.0074595692567527
0.0087782414630055
0.0099877882748842
0.0110932337120175
0.0121031887829303
0.0130281932651996
0.0138790132477879
0.0146661810576915
0.0153996124863624
0.0160865653306245
0.0167284496128559
0.0173189211636781
0.0178459137678146
0.0182962641119956
0.0186597239226102
0.0189312063157558
0.0191112235188484
0.0192053504288196
0.0192223284393548
0.0191709846258163
0.0190587900578975
0.0188912488520145
0.0186699088662862
0.0183901172131299
0.0180372204631567
0.0175777599215507
0.016949625685811
0.016062781214714
0.0148157840594649
0.0131202973425388
0.0109233846887946
0.0082221208140254
0.0050686169415712
0.0015662646619603
-0.0021419518161565
-0.0058926264755427
-0.009524431079626
-0.0128970118239521
-0.015903091058135
-0.0184742771089077
-0.0205796658992767
-0.0222173016518354
-0.023404911160469
-0.0241749417036771
-0.0245708245784044
-0.0246422234922647
-0.0244395807385444
-0.0240079667419195
-0.0233833398669958
-0.0225931126624345
-0.0216582119464874
-0.0205955114215612
-0.0194199401885271
-0.0181442555040121
-0.0167788695544004
-0.015333354473114
-0.013816681690514
-0.0122359367087483
-0.0105962520465254
-0.0089035248383879
-0.007167843170464
-0.0054033659398555
-0.0036254897713661
-0.0018495041877031
-9.094923734664916e-05
0.0016347961500287
0.003313266672194
0.0049310512840747
0.0064770122990012
0.0079439701512455
0.0093281101435422
0.0106275640428066
0.01184365991503
0.0129827465862035
0.0140527011826634
0.0150564489886164
0.0159903764724731
0.0168469995260238
0.0176179446280002
0.0182977356016635
0.0188866388052701
0.0193896442651748
0.0198128893971443
0.0201601274311542
0.0204312019050121
0.0206242837011814
0.0207400247454643
0.0207835864275693
0.0207634326070547
0.0206875056028366
0.0205580033361911
0.0203684139996767
0.0201067253947258
0.0197632201015949
0.0193340927362442
0.0188148356974124
0.0181867312639951
0.0174040682613849
0.0163901913911104
0.0150462379679083
0.0132692847400903
0.0109751764684915
0.008120615966618
0.0047177080996334
0.0008387514390051
-0.0033879152033478
-0.0077927592210471
-0.0121878748759627
-0.0163895953446626
-0.0202385243028402
-0.0236163679510355
-0.0264540966600179
-0.0287285521626472
-0.0304503962397575
-0.0316505655646324
-0.0323720052838325
-0.0326660089194774
-0.0325887724757194
-0.0321965962648391
-0.0315404869616031
-0.0306616965681314
-0.0295908786356449
-0.0283519178628921
-0.0269661452621221
-0.0254525672644376
-0.023825965821743
-0.0220962092280387
-0.0202696770429611
-0.0183523148298263
-0.0163524709641933
-0.0142810121178627
-0.0121494466438889
-0.0099696964025497
-0.0077560786157846
-0.0055272430181503
-0.0033059557899832
-0.0011160252615809
0.0010213032364845
0.0030886055901646
0.0050722248852252
0.0069627757184207
0.0087552443146705
0.010448875837028
0.0120470225811004
0.0135546876117587
0.0149750923737883
0.0163086298853158
0.0175537876784801
0.0187085848301649
0.0197716280817985
0.0207417737692594
0.0216176435351371
0.0223994255065917
0.0230906121432781
0.0236952025443315
0.0242131501436233
0.0246385745704174
0.0249600633978843
0.0251632425934076
0.025236289948225
0.0251742824912071
0.0249798223376274
0.0246626958250999
0.0242382101714611
0.0237192567437887
0.0231031849980354
0.0223602037876844
0.0214273799210786
0.0202100053429603
0.0185919981449842
0.0164550244808197
0.0137028116732835
0.0102850832045078
0.0062158936634659
0.0015824614092707
-0.0034594540484249
-0.0087045039981603
-0.0139254089444875
-0.0189011264592409
-0.0234394874423742
-0.0273920446634292
-0.0306615084409713
-0.0332021452486515
-0.0350142084062099
-0.0361345447599887
-0.0366264358162879
-0.0365715026855468
-0.0360620766878128
-0.035191860049963
-0.0340472050011158
-0.0327011421322822
-0.0312100518494844
-0.0296132713556289
-0.027934081852436
-0.0261811632663011
-0.0243523493409156
-0.0224405452609062
-0.0204389430582523
-0.0183436125516891
-0.0161530748009681
-0.0138665586709976
-0.0114856008440256
-0.0090204998850822
-0.0064949253574013
-0.0039432160556316
-0.0014040702953934
0.0010848212987184
0.0034916447475552
0.0057941591367125
0.0079796789214015
0.0100425435230135
0.0119818281382322
0.0138003155589103
0.0155043238773942
0.0171028152108192
0.018605537712574
0.0200217422097921
0.0213587917387485
0.0226192250847816
0.023797757923603
0.0248811990022659
0.0258534364402294
0.0267028696835041
0.0274262614548206
0.0280265249311923
0.0285053551197052
0.028852067887783
0.0290306508541107
0.028970243409276
0.0285661183297634
0.0276929587125778
0.0262273102998733
0.0240755416452884
0.021201143041253
0.0176408737897872
0.0135044138878583
0.0089623145759105
0.0042262603528797
-0.0004764795303344
-0.0049286652356386
-0.0089439451694488
-0.0123809035867452
-0.0151485055685043
-0.0172052085399627
-0.0185569413006305
-0.0192523915320634
-0.0193718373775482
-0.0190143566578626
-0.0182878095656633
-0.0172984953969717
-0.0161400735378265
-0.0148859368637204
-0.0135853718966245
-0.0122626600787043
-0.0109200626611709
-0.0095428377389907
-0.0081059969961643
-0.0065842736512422
-0.004961309954524
-0.0032333587296307
-0.0014091962948441
0.0004899068735539
0.002430731896311
0.0043721566908061
0.0062719406560063
0.0080916648730635
0.0097973626106977
0.0113596869632601
0.0127562386915087
0.0139729399234056
0.0150045957416296
0.0158566683530807
0.0165454596281051
0.01709446310997
0.0175292249768972
0.0178747214376926
0.0181543044745922
0.0183843318372964
0.0185621585696935
0.0186507068574428
0.0185675621032714
0.0181877128779888
0.0173597633838653
0.0159300900995731
0.0137735288590192
0.0108252074569463
0.0071026124060153
0.0027115577831864
-0.0021643391810357
-0.0072878408245742
-0.0124007118865847
-0.0172562543302774
-0.021643903106451
-0.0254042353481054
-0.0284343156963586
-0.0306831151247024
-0.0321415401995182
-0.032833281904459
-0.0328098684549331
-0.0321484878659248
-0.0309470742940902
-0.0293143801391124
-0.0273586846888065
-0.0251794699579477
-0.0228622183203697
-0.0204739179462194
-0.0180600509047508
-0.0156454313546419
-0.0132392924278974
-0.0108419060707092
-0.0084480112418532
-0.0060478346422314
-0.0036297040060162
-0.0011845196131616
0.0012883960735052
0.0037765118759125
0.0062551144510507
0.0086926808580756
0.0110544320195913
0.0133046833798289
0.0154119757935404
0.017353631556034
0.0191162563860416
0.0206943769007921
0.0220881626009941
0.0233000852167606
0.0243325643241405
0.0251891613006591
0.0258776862174272
0.0264109950512647
0.0268046706914901
0.0270726848393678
0.02722143009305
0.0272410325706005
0.0270931459963321
0.0266991332173347
0.0259353481233119
0.024642426520586
0.022651107981801
0.0198173504322767
0.0160563290119171
0.0113678975030779
0.0058477595448493
-0.0003198385238647
-0.0068848570808768
-0.0135616473853588
-0.0200629048049449
-0.0261329710483551
-0.0315709337592124
-0.0362393483519554
-0.0400604978203773
-0.0430035479366779
-0.0450692251324653
-0.0462787337601184
-0.0466687120497226
-0.0462898463010787
-0.0452055744826793
-0.0434900596737861
-0.0412265062332153
-0.038505770266056
-0.0354244075715541
-0.0320804938673973
-0.028567487373948
-0.0249675381928682
-0.0213450230658054
-0.0177428182214498
-0.0141827575862407
-0.0106700556352734
-0.0072017265483736
-0.0037749817129224
-0.0003908346407115
0.0029454843606799
0.0062234071083366
0.0094249807298183
0.0125253684818744
0.0154972486197948
0.0183159131556749
0.0209616236388683
0.0234175976365804
0.0256674960255622
0.0276979692280292
0.0295027792453765
0.0310831554234027
0.0324457064270973
0.0336003527045249
0.0345594882965087
0.0353376232087612
0.0359489731490612
0.0364043377339839
0.0367103740572929
0.0368701666593551
0.0368837341666221
0.0367503464221954
0.0364726893603801
0.036058522760868
0.0355165787041187
0.0348498374223709
0.0340502858161926
0.0330921486020088
0.0319182984530925
0.0304252356290817
0.0284619275480508
0.0258513651788234
0.0224279444664716
0.0180768128484487
0.0127651300281286
0.0065578259527683
-0.0003861561417579
-0.0078308898955583
-0.0154873812571167
-0.0230465270578861
-0.0302182286977767
-0.0367640852928161
-0.0425139777362346
-0.0473648011684417
-0.0512673333287239
-0.0542110241949558
-0.0562122426927089
-0.0573060885071754
-0.0575415454804897
-0.0569792240858078
-0.0556895583868026
-0.0537516847252845
-0.0512539930641651
-0.048293150961399
-0.0449688695371151
-0.0413780361413955
-0.0376110523939132
-0.0337468311190605
-0.029846541583538
-0.0259516723453998
-0.0220864657312631
-0.0182617604732513
-0.0144801344722509
-0.0107412347570061
-0.0070450701750814
-0.0033944202587008
0.0002013768535107
0.0037247007712721
0.007152535021305
0.010459597222507
0.0136205088347196
0.016611898317933
0.019411539658904
0.0219964478164911
0.0243449211120605
0.0264415219426155
0.0282814688980579
0.0298729166388511
0.0312347933650016
0.032389897853136
0.0333588123321533
0.034157320857048
0.0347957238554954
0.0352801382541656
0.0356150567531585
0.0358055606484413
0.0358583927154541
0.0357806012034416
0.0355754569172859
0.0352366864681243
0.0347409881651401
0.0340388342738151
0.0330456830561161
0.0316397473216056
0.0296740680932998
0.0270029157400131
0.0235135294497013
0.0191544163972139
0.0139544177800416
0.0080294236540794
0.0015750396996736
-0.0051567377522587
-0.0118909152224659
-0.0183608438819646
-0.0243334490805864
-0.0296291690319776
-0.0341309122741222
-0.0377779155969619
-0.0405518934130668
-0.0424643978476524
-0.0435480326414108
-0.043852187693119
-0.0434416085481643
-0.0423937253654003
-0.0407947115600109
-0.0387367121875286
-0.036315094679594
-0.0336226485669612
-0.0307419132441282
-0.0277408380061388
-0.0246727429330348
-0.0215772707015275
-0.0184822808951139
-0.0154061280190944
-0.0123587260022759
-0.0093435235321521
-0.0063610142096877
-0.0034121121279895
-0.000501473841723
0.0023604040034115
0.0051574534736573
0.007869235239923
0.0104723684489727
0.0129438638687133
0.0152662908658385
0.0174287557601928
0.0194217190146446
0.0212332401424646
0.0228501465171575
0.0242615174502134
0.0254621151834726
0.0264536514878273
0.0272441245615482
0.0278467908501625
0.0282788798213005
0.0285594034940004
0.0287054907530546
0.028729798272252
0.0286417547613382
0.0284508392214775
0.0281686000525951
0.027807617560029
0.0273770913481712
0.02687812410295
0.0263021364808082
0.0256303921341896
0.0248314402997493
0.0238552838563919
0.0226252563297748
0.0210344046354293
0.0189550593495368
0.0162624586373567
0.0128651615232229
0.0087320860475301
0.0039075184613466
-0.0014876592904329
-0.0072665223851799
-0.0131988460198044
-0.0190428551286458
-0.024575250223279
-0.029611948877573
-0.0340192839503288
-0.0377152673900127
-0.0406617298722267
-0.0428536050021648
-0.0443092212080955
-0.0450613610446453
-0.0451523214578628
-0.0446340814232826
-0.0435684397816658
-0.0420250929892063
-0.040079265832901
-0.0378085635602474
-0.0352896712720394
-0.0325956493616104
-0.0297922305762767
-0.0269330851733684
-0.0240563731640577
-0.021184965968132
-0.0183295141905546
-0.0154915545135736
-0.0126678068190813
-0.0098565053194761
-0.0070619112811982
-0.0042950483039021
-0.0015722066164016
0.0010872355196624
0.0036626090295612
0.0061340248212218
0.0084842313081026
0.0106974998489022
0.0127580221742391
0.0146515760570764
0.0163685325533151
0.0179065056145191
0.019271969795227
0.0204786323010921
0.021542340517044
0.022476864978671
0.0232930146157741
0.0239983592182397
0.0245974212884902
0.0250932872295379
0.0254887416958808
0.0257857851684093
0.0259831976145505
0.0260746181011199
0.0260504726320505
0.0259016193449497
0.0256219170987606
0.0252098497003316
0.024669487029314
0.024010207504034
0.02324228733778
0.0223643667995929
0.021346827968955
0.0201230831444263
0.0185947567224502
0.0166477095335721
0.0141767170280218
0.0111140040680766
0.0074496669694781
0.0032389406114816
-0.0013999436050653
-0.0062976670451462
-0.0112561527639627
-0.0160742811858654
-0.020569410175085
-0.0245926268398761
-0.0280376262962818
-0.0308424439281225
-0.032984223216772
-0.0344700738787651
-0.0353288240730762
-0.0356052555143833
-0.035355158150196
-0.0346406213939189
-0.0335268601775169
-0.0320813730359077
-0.0303730946034193
-0.0284690856933593
-0.0264293048530817
-0.0243011321872472
-0.0221156496554613
-0.0198881160467863
-0.0176222026348114
-0.0153158530592918
-0.0129679208621382
-0.0105824125930666
-0.0081684943288564
-0.0057392683811485
-0.0033106780610978
-0.0009002457372844
0.0014732419513165
0.0037887734360992
0.0060218228027224
0.0081453267484903
0.0101354420185089
0.0119778020307421
0.0136674791574478
0.0152047835290431
0.016592726111412
0.0178367681801319
0.0189455784857273
0.0199307948350906
0.0208047963678836
0.0215792022645473
0.0222649071365594
0.0228704325854778
0.0233972445130348
0.0238364674150943
0.0241721775382757
0.0243886988610029
0.0244762003421783
0.0244330279529094
0.0242652371525764
0.0239848550409078
0.0236079469323158
0.0231518372893333
0.0226305779069662
0.0220468137413263
0.0213810019195079
0.0205834992229938
0.0195749681442976
0.0182569064199924
0.0165280792862176
0.0143023617565631
0.0115276090800762
0.0082023553550243
0.004384831059724
0.0001910529099404
-0.0042184563353657
-0.0086597753688693
-0.012949576601386
-0.0169266536831855
-0.0204657036811113
-0.0234827399253845
-0.0259333718568086
-0.0278055611997842
-0.0291113406419754
-0.0298794936388731
-0.0301498863846063
-0.0299715138971805
-0.0294027999043464
-0.0285102911293506
-0.0273630134761333
-0.0260238386690616
-0.024543484672904
-0.0229597818106412
-0.0212994683533906
-0.0195803642272949
-0.0178132336586713
-0.016003193333745
-0.0141521729528903
-0.0122615452855825
-0.010331742465496
-0.0083618536591529
-0.0063542840071022
-0.0043204328976571
-0.0022805267944931
-0.0002595991827547
0.0017155539244413
0.0036188485100865
0.0054282369092106
0.0071289464831352
0.0087142875418066
0.0101836528629064
0.0115400673821568
0.012788351625204
0.0139337945729494
0.0149814952164888
0.0159364230930805
0.0168033018708229
0.0175851322710514
0.018282076343894
0.0188925117254257
0.0194141585379838
0.0198438130319118
0.0201767943799495
0.0204072222113609
0.0205299239605665
0.0205428153276443
0.020447663962841
0.0202500596642494
0.0199608281254768
0.0195963159203529
0.0191719662398099
0.0186902023851871
0.0181292537599802
0.0174362640827894
0.0165263228118419
0.0152925895527005
0.013628588989377
0.0114533174782991
0.00873096100986
0.005483966320753
0.0017961668781936
-0.0021972560789436
-0.0063279131427407
-0.0104141496121883
-0.0142828095704317
-0.0177899412810802
-0.0208330769091844
-0.0233534835278987
-0.025331076234579
-0.0267751105129718
-0.0277151279151439
-0.0281950458884239
-0.0282684788107872
-0.0279923900961875
-0.0274210106581449
-0.0266026258468627
-0.0255785956978797
-0.0243839044123888
-0.0230480376631021
-0.0215949676930904
-0.0200436431914567
-0.0184097364544868
-0.0167059041559696
-0.0149395447224378
-0.0131122414022684
-0.0112242428585886
-0.0092807225883007
-0.007294182665646
-0.0052823959849774
-0.0032663764432072
-0.0012702690437436
0.0006805965676903
0.0025637531653046
0.0043616937473416
0.0060625160112977
0.0076606133952736
0.009156254120171
0.0105541255325078
0.0118613773956894
0.0130848670378327
0.0142280897125601
0.0152893438935279
0.0162619240581989
0.0171352494508028
0.0178974848240613
0.0185407511889934
0.0190648082643747
0.0194758176803588
0.0197831038385629
0.0199961736798286
0.0201215650886297
0.020159937441349
0.0201021842658519
0.0199227854609489
0.0195728670805692
0.0189788676798343
0.0180520247668027
0.0167060997337102
0.0148764513432979
0.0125375827774405
0.0097145624458789
0.0064831622876226
0.0029610958881676
-0.0007055712630972
-0.0043593626469373
-0.0078495759516954
-0.0110482955351471
-0.0138602778315544
-0.016225729137659
-0.0181178748607635
-0.0195369124412536
-0.0205018911510705
-0.0210426412522792
-0.0211956892162561
-0.0210044793784618
-0.020517524331808
-0.0197835657745599
-0.0188484620302915
-0.0177534446120262
-0.0165333822369575
-0.0152165982872247
-0.0138254128396511
-0.0123762674629688
-0.0108806658536195
-0.009345986880362
-0.0077757569961249
-0.0061717145144939
-0.0045360131189227
-0.0028709759935736
-0.0011803535744547
0.0005263900384306
0.002232504542917
0.0039161257445812
0.0055528893135488
0.0071183200925588
0.0085896253585815
0.0099475672468543
0.0111797675490379
0.0122842313721776
0.0132704004645347
0.0141547545790672
0.0149530991911888
0.0156769268214702
0.0163355600088834
0.0169382691383361
0.0174910798668861
0.0179902203381061
0.0184203553944826
0.018760547041893
0.01899154484272
0.0191003885120153
0.0190833415836095
0.0189449284225702
0.0186933577060699
0.0183382742106914
0.0178916789591312
0.0173679366707801
0.0167816802859306
0.0161454193294048
0.0154671715572476
0.0147451031953096
0.0139571735635399
0.0130500271916389
