bvp
-0.0332115665078163
-0.0389092154800891
-0.0427297241985797
-0.0445068031549453
-0.0442546531558036
-0.0421592257916927
-0.0385476797819137
-0.0338387489318847
-0.0284850392490625
-0.0229186750948429
-0.0175108239054679
-0.0125478655099868
-0.0082184141501784
-0.0046105263754725
-0.0017206352204084
0.0005308324471116
0.0022804168984293
0.00369877461344
0.004966084845364
0.0062498888000845
0.0076886429451406
0.0093800760805606
0.0113737471401691
0.0136726712808012
0.0162444543093442
0.0190311819314956
0.0219517201185226
0.0249034985899925
0.0277668051421642
0.0304003693163394
0.0326217263936996
0.0341877304017543
0.0347974002361297
0.0341263897716999
0.0318870209157466
0.0278972648084163
0.0221404340118169
0.0147992596030235
0.006252777762711
-0.0029605529271066
-0.0122031681239604
-0.0208172649145126
-0.0282087996602058
-0.0339133329689502
-0.0376329757273197
-0.0392477512359619
-0.0388069525361061
-0.0365070067346096
-0.0326621383428573
-0.0276694521307945
-0.021967202425003
-0.0159903895109891
-0.0101314336061477
-0.0047097727656364
4.8533082008361816e-05
0.0040206937119364
0.0071865823119878
0.0096151698380708
0.0114392712712287
0.0128275612369179
0.0139601249247789
0.0150080313906073
0.0161165166646242
0.0173932835459709
0.0189048647880554
0.0206784047186374
0.0227050203830003
0.024945106357336
0.0273324288427829
0.0297750495374202
0.0321542769670486
0.0343171656131744
0.0360613577067852
0.0371235683560371
0.0371871292591095
0.0359193533658981
0.033036358654499
0.0283749215304851
0.0219486132264137
0.0139767788350582
0.0048795649781823
-0.0047634323127567
-0.0142839811742305
-0.0230114292353391
-0.0303556900471448
-0.0358709506690502
-0.0392928756773471
-0.0405490063130855
-0.0397464074194431
-0.0371439047157764
-0.0331158675253391
-0.0281094536185264
-0.0225939750671386
-0.0170079693198204
-0.0117161534726619
-0.0069822706282138
-0.0029586586169898
0.0003075143322348
0.0028583612293004
0.0048085530288517
0.0063252411782741
0.0075990515761077
0.0088129434734582
0.0101205306127667
0.0116361808031797
0.0134304389357566
0.0155249526724219
0.0178892649710178
0.0204472821205854
0.0230949129909276
0.0257188081741333
0.0282086636871099
0.0304648634046316
0.0323966555297374
0.033900398761034
0.0348255932331085
0.034955158829689
0.0340173691511154
0.0317269340157508
0.0278477743268013
0.0222658570855855
0.0150472586974501
0.0064590256661176
-0.0030484739691019
-0.0128889922052621
-0.0224094707518816
-0.0309686660766601
-0.0380123369395732
-0.0431337431073188
-0.0461076349020004
-0.0468952544033527
-0.045629970729351
-0.0425906144082546
-0.0381640568375587
-0.032799869775772
-0.0269610695540905
-0.0210769996047019
-0.0155076561495661
-0.010524452663958
-0.006302221212536
-0.0029161660932004
-0.0003469418734312
0.0015035970136523
0.0027921511791646
0.0037121730856597
0.0044689434580504
0.0052533457055687
0.0062193339690566
0.0074710305780172
0.0090602962300181
0.0109902471303939
0.0132236890494823
0.0156959183514118
0.0183238107711076
0.0210073050111532
0.0236290469765663
0.0260494872927665
0.0280914232134819
0.0295242108404636
0.0300656799226999
0.0294105466455221
0.0272813979536294
0.0234911888837814
0.0180012863129377
0.0109575111418962
0.0026941858232021
-0.0062936563044786
-0.0154029037803411
-0.023990910500288
-0.0314541682600975
-0.0373048111796379
-0.0412237159907817
-0.0430795550346374
-0.0429204031825065
-0.0409484356641769
-0.0374841541051864
-0.0329248942434787
-0.0277026630938053
-0.0222440510988235
-0.0169343799352645
-0.0120879169553518
-0.00792539678514
-0.0045622587203979
-0.002009735442698
-0.0001885686069726
0.0010451264679431
0.0018687490373849
0.0024667531251907
0.0030112313106656
0.0036479961127042
0.0044870069250464
0.0055963955819606
0.0070001315325498
0.0086801527068018
0.0105835292488336
0.0126324240118265
0.0147327687591314
0.0167788751423358
0.0186502635478973
0.0201971344649791
0.021222785115242
0.021480256691575
0.0206934548914432
0.0186026990413665
0.0150252562016248
0.0099137686192989
0.0033941287547349
-0.0042279353365302
-0.0124912429600954
-0.0208301227539777
-0.0286456197500228
-0.0353823900222778
-0.0405925512313842
-0.0439768061041832
-0.0454040169715881
-0.0449111685156822
-0.0426829904317855
-0.0390180312097072
-0.0342933535575866
-0.0289276670664548
-0.0233376082032918
-0.0178948752582073
-0.0128956940025091
-0.0085442643612623
-0.0049455901607871
-0.0021063690073788
5.329679697751999e-05
0.001677994383499
0.0029490285087376
0.0040548555552959
0.0051663229241967
0.0064216125756502
0.0079192565754055
0.0097122536972165
0.0118013620376586
0.0141367558389902
0.0166315473616123
0.0191792007535696
0.0216711461544036
0.0240101050585508
0.0261059701442718
0.0278498604893684
0.0290830247104167
0.0295856967568397
0.0290969144552946
0.0273588150739669
0.0241749454289674
0.0194711871445179
0.0133438613265752
0.0060763764195144
-0.0018871447537094
-0.010001428425312
-0.0176910292357206
-0.0244182888418436
-0.0297427251935005
-0.0333660133183002
-0.0351530686020851
-0.0351275317370891
-0.033451359719038
-0.0303954668343067
-0.026303257793188
-0.0215517506003379
-0.0165148824453353
-0.0115297520533204
-0.006866592913866
-0.0027117412537336
0.0008303495123982
0.0037277762312442
0.0060142027214169
0.0077796662226319
0.0091556776314973
0.0102951657027006
0.0113484309986233
0.0124425068497657
0.0136708496138453
0.0150897428393363
0.0167177058756351
0.0185395199805498
0.0205133073031902
0.022579962387681
0.0246754810214042
0.0267375186085701
0.0286973342299461
0.0304601676762104
0.0318821109831333
0.032754722982645
0.0328122414648532
0.0317678600549697
0.0293705500662326
0.0254661981016397
0.020048588514328
0.0132888378575444
0.0055336193181574
-0.0027305893599987
-0.0109387701377272
-0.0185186117887496
-0.0249577518552541
-0.0298601314425468
-0.0329856872558593
-0.0342655442655086
-0.0337917134165763
-0.0317868143320083
-0.0285628326237201
-0.0244809389114379
-0.0199171379208564
-0.0152304600924253
-0.0107326954603195
-0.0066634933464229
-0.0031755636446177
-0.0003320490941405
0.0018851580098271
0.0035601714625954
0.0048250574618577
0.0058372654020786
0.0067516369745135
0.0076962253078818
0.0087607959285378
0.0099970735609531
0.0114252418279647
0.0130416173487901
0.0148240001872181
0.016733843833208
0.0187182873487472
0.0207155384123325
0.022661542519927
0.0244920067489147
0.0261338520795106
0.0274841953068971
0.0283868387341499
0.028623903170228
0.0279334895312786
0.0260532330721616
0.0227797832340002
0.0180288664996624
0.011880550533533
0.004595591686666
-0.0034040128812193
-0.0115855187177658
-0.0193742252886295
-0.0262254923582077
-0.0316882953047752
-0.0354513302445411
-0.0373653396964073
-0.0374425165355205
-0.0358385480940341
-0.0328251644968986
-0.0287589486688375
-0.0240440778434276
-0.0190889816731214
-0.0142644196748733
-0.0098702423274517
-0.0061137597076594
-0.0031014767009764
-0.0008440111996605
0.000731632579118
0.0017650326481088
0.0024371361359953
0.0029408170375972
0.003456141334027
0.0041330959647893
0.005080641247332
0.0063592949882149
0.0079762293025851
0.009887296706438
0.0120077850297093
0.0142292827367782
0.0164394937455654
0.0185391679406166
0.0204508565366268
0.0221152864396572
0.0234698951244354
0.0244144592434167
0.0247863121330738
0.0243648868054151
0.0229045916348695
0.0201866626739501
0.016080554574728
0.0105960275977849
0.0039062015712261
-0.0036597214639186
-0.0116455564275383
-0.0195169635117054
-0.0267260000109672
-0.0327782295644283
-0.0372888594865798
-0.0400192439556121
-0.040891658514738
-0.0399861820042133
-0.0375218763947486
-0.0338233672082424
-0.0292789340019226
-0.0242960676550865
-0.0192579943686723
-0.0144896134734153
-0.010240071453154
-0.0066753081046044
-0.0038709021173417
-0.0018102447502315
-0.0003967033699154
0.0005242126062512
0.0011403246317058
0.0016474567819386
0.0022253149654716
0.0030186988878995
0.0041248030029237
0.00558766676113
0.007401050068438
0.0095165371894836
0.0118560586124658
0.0143269384279847
0.0168307311832904
0.0192654132843017
0.0215258449316024
0.0234953984618186
0.0250254124402999
0.0259182713925838
0.0259317867457866
0.0248093418776989
0.0223290063440799
0.0183603502810001
0.0129160182550549
0.0061826789751648
-0.0014803220983594
-0.0095744216814637
-0.0175193641334772
-0.0247269608080387
-0.0306794792413711
-0.0349937230348587
-0.0374566614627838
-0.0380310527980327
-0.0368373468518257
-0.034121137112379
-0.0302141327410936
-0.0254945233464241
-0.020350219681859
-0.0151458866894245
-0.0101952636614441
-0.0057398825883865
-0.0019342023879289
0.0011604214087128
0.0035705780610442
0.0053939977660775
0.0067737493664026
0.0078714154660701
0.0088458070531487
0.0098371272906661
0.0109562361612916
0.0122803431004285
0.0138522963970899
0.0156799480319023
0.0177372600883245
0.0199697278439998
0.0223035849630832
0.024657517671585
0.0269540101289749
0.0291245691478252
0.0311024077236652
0.0327954143285751
0.0340471155941486
0.034617330878973
0.0342054404318332
0.0325064584612846
0.0292776599526405
0.0244010556489229
0.0179309714585542
0.010115728713572
0.0013852731790393
-0.0076959915459156
-0.0165005642920732
-0.0244171321392059
-0.030923593789339
-0.0356400907039642
-0.0383542589843273
-0.0390263572335243
-0.0377828851342201
-0.0348940417170524
-0.0307337641716003
-0.0257325060665607
-0.020331198349595
-0.0149397831410169
-0.0099034011363983
-0.0054778093472123
-0.0018157633021473
0.0010335827246308
0.0031143948435783
0.00454683881253
0.0055031757801771
0.0061796088702976
0.0067728227004408
0.0074619869701564
0.0083882641047239
0.0096360053867101
0.0112270824611186
0.0131305065006017
0.0152805373072624
0.0175934918224811
0.0199779458343982
0.0223419070243835
0.0246010087430477
0.0266848877072334
0.0285371094942092
0.0301023460924625
0.0312962718307971
0.0319724157452583
0.0319114923477172
0.0308412965387105
0.0284797623753547
0.0245967786759138
0.0190856382250785
0.0120207723230123
0.0036794743500649
-0.0054791206493973
-0.0148689094930887
-0.0238482076674699
-0.0317947939038276
-0.0381777808070182
-0.0426154099404811
-0.0449081361293792
-0.045046217739582
-0.043195154517889
-0.0396619476377964
-0.0348518416285514
-0.0292263738811016
-0.0232608821243047
-0.0173978619277477
-0.0120041277259588
-0.007341556251049
-0.003553875721991
-0.000667652580887
0.0013933661393821
0.0027825199067592
0.0036997792776674
0.0043627475388348
0.0049820546992123
0.005742194596678
0.0067872432991862
0.0082109794020652
0.0100500080734491
0.0122805815190076
0.0148246046155691
0.0175657141953706
0.020369179546833
0.0231014993041753
0.0256481822580099
0.0279240850359201
0.0298704281449317
0.0314366780221462
0.0325477421283721
0.0330687649548053
0.0327909439802169
0.0314521640539169
0.0287896394729614
0.0246092732995748
0.0188481509685516
0.0116138327866792
0.0031979028135538
-0.0059390966780483
-0.0152156967669725
-0.0240021720528602
-0.0316993072628974
-0.0378074795007705
-0.0419767424464225
-0.044033259153366
-0.0439823567867279
-0.0419941879808902
-0.0383789017796516
-0.0335513688623905
-0.027982136234641
-0.0221412163227796
-0.0164517983794212
-0.011263377033174
-0.0068365577608346
-0.0033293361775577
-0.0007869246182963
0.0008560301503166
0.001757520600222
0.0021377236116677
0.0022429425735026
0.002313180360943
0.0025563093367964
0.0031264021527022
0.0041100983507931
0.0055280760861933
0.0073496089316904
0.0095077073201537
0.0119069563224911
0.0144300675019621
0.0169496852904558
0.0193426888436079
0.0214969534426927
0.0232976451516151
0.0245949961245059
0.0251794084906578
0.0247870869934558
0.0231360234320163
0.0199815090745687
0.0151794403791427
0.0087423771619796
0.0008722841739654
-0.0080385096371173
-0.0174371991306543
-0.0266712754964828
-0.0350747816264629
-0.0420578345656394
-0.0471755787730217
-0.0501650087535381
-0.0509520433843135
-0.0496399775147438
-0.046485498547554
-0.041862066835165
-0.0362142547965049
-0.0300107039511203
-0.0237016230821609
-0.0176827684044837
-0.0122660174965858
-0.007657490670681
-0.0039455536752939
-0.0011045671999454
0.000982510857284
0.0024915789254009
0.0036269943229854
0.0045970794744789
0.0055933357216417
0.0067725013941526
0.0082441363483667
0.0100657949224114
0.0122446371242403
0.0147438570857048
0.0174931138753891
0.0204008296132087
0.023365780711174
0.0262865535914897
0.0290642045438289
0.031585656106472
0.0336848460137844
0.0351092182099819
0.0355245061218738
0.034562274813652
0.0318946056067943
0.0273170694708824
0.0208186022937297
0.0126169919967651
0.0031499029137194
-0.0069723753258585
-0.0170393586158752
-0.0263269785791635
-0.0341857001185417
-0.040111381560564
-0.0437867678701877
-0.0450981333851814
-0.0441326722502708
-0.0411541797220706
-0.036559697240591
-0.0308276657015085
-0.0244655180722475
-0.0179608780890703
-0.0117399469017982
-0.0061361715197563
-0.0013710670173168
0.0024529490619897
0.0053481552749872
0.007427105680108
0.0088805938139557
0.0099496012553572
0.0108929509297013
0.0119505673646926
0.0133072268217802
0.0150708481669425
0.0172713510692119
0.0198715701699256
0.0227826051414012
0.0258834436535835
0.0290433540940284
0.0321406386792659
0.0350721552968025
0.0377496778964996
0.0400785617530345
0.0419201850891113
0.0430561155080795
0.0431835651397705
0.0419552624225616
0.0390469990670681
0.0342320352792739
0.0274538323283195
0.0188799165189266
0.0089118042960762
-0.0018530972301959
-0.012693528085947
-0.0228550527244806
-0.0316426046192646
-0.0384994037449359
-0.0430602952837944
-0.0451726652681827
-0.0448896698653698
-0.0424453318119049
-0.0382150001823902
-0.0326660014688968
-0.026309598237276
-0.019658263772726
-0.0131841301918029
-0.0072786482051014
-0.0022201165556907
0.0018441658467054
0.0048989104107022
0.0070454636588692
0.0084735825657844
0.0094272969290614
0.0101676136255264
0.0109357479959726
0.0119269881397485
0.0132787860929965
0.0150673342868685
0.0173090528696775
0.0199652947485446
0.0229477602988481
0.0261283069849014
0.0293570533394813
0.0324840135872364
0.035376101732254
0.0379188396036624
0.0399928577244281
0.0414325669407844
0.0419952012598514
0.0413662418723106
0.0392050966620445
0.0352171547710895
0.0292358715087175
0.0212961938232183
0.011673467233777
0.0008690101094543
-0.0104511156678199
-0.0215400978922843
-0.0316590331494808
-0.0401596091687679
-0.0465486459434032
-0.0505286082625389
-0.0520141087472438
-0.0511235669255256
-0.0481499098241329
-0.0435177646577358
-0.0377313010394573
-0.0313182771205902
-0.0247791595757007
-0.0185448843985795
-0.0129437167197465
-0.0081838844344019
-0.0043549486435949
-0.001439266372472
0.0006724166451022
0.0021595957223325
0.0032446612603962
0.0041629569604992
0.0051348423585295
0.0063435239717364
0.0079193888232111
0.009929371997714
0.0123735899105668
0.0151935452595353
0.0182886328548192
0.0215349644422531
0.0248040873557329
0.0279736761003732
0.0309199020266532
0.0334913097321987
0.0354756414890289
0.0365807116031646
0.0364493727684021
0.0347123593091964
0.03106589615345
0.0253530815243721
0.0176275484263896
0.0081821624189615
-0.0024658450856804
-0.0136296581476926
-0.0245356298983097
-0.034416951239109
-0.0426005423069
-0.0485784001648426
-0.0520577281713485
-0.0529803782701492
-0.0515085086226463
-0.0479855090379715
-0.0428848601877689
-0.0367533229291439
-0.0301520749926567
-0.0236025303602218
-0.0175418145954608
-0.0122893489897251
-0.0080283023416996
-0.0048046838492155
-0.0025403848849236
-0.0010559568181633
-0.0001020124182105
0.0006005992181599
0.0013172551989555
0.0022659399546682
0.003598263952881
0.00539081543684
0.0076475776731967
0.0103125683963298
0.0132877193391323
0.0164526998996734
0.0196813438087701
0.0228497274219989
0.0258333384990692
0.0284880064427852
0.0306173078715801
0.031948797404766
0.0321427546441555
0.0308373440057039
0.0277189463376998
0.022602193057537
0.0155009981244802
0.0066682007163763
-0.0034123631194233
-0.0140783851966261
-0.0245706439018249
-0.034128975123167
-0.0420857667922973
-0.0479379594326019
-0.0513882637023925
-0.0523578785359859
-0.0509756803512573
-0.047544702887535
-0.0424896031618118
-0.0363019444048404
-0.029496282339096
-0.0225699618458747
-0.0159617122262716
-0.0100156161934137
-0.0049555539153516
-0.0008739827317185
0.002261871472001
0.004587547853589
0.0063083190470933
0.0076637649908661
0.0088946130126714
0.0102143660187721
0.0117890741676092
0.0137266926467418
0.016074139624834
0.0188171453773975
0.0218824688345193
0.025149829685688
0.0284748785197734
0.0317141935229301
0.0347428582608699
0.0374553650617599
0.0397410728037357
0.0414420068264007
0.0423215739428997
0.0420671477913856
0.040331806987524
0.0368095487356185
0.0313219688832759
0.0238881930708885
0.01476167794317
0.0044215563684701
-0.0064847441390156
-0.0172278936952352
-0.0270879548043012
-0.0354365557432174
-0.0417988710105419
-0.0458884574472904
-0.0476168990135192
-0.0470840595662593
-0.0445523485541343
-0.040407869964838
-0.0351134613156318
-0.0291579477488994
-0.023007096722722
-0.0170620959252119
-0.0116278799250721
-0.0068972175940871
-0.0029543661512434
0.0002111132489517
0.0026889296714216
0.0046282224357128
0.006211475469172
0.0076273772865533
0.0090476432815194
0.0106098623946309
0.0124085200950503
0.014494139701128
0.0168753117322921
0.0195198412984609
0.0223579257726669
0.0252932123839855
0.0282208044081926
0.0310403350740671
0.0336563028395175
0.0359697267413139
0.0378602743148803
0.039157748222351
0.0396223366260528
0.0389560796320438
0.0368479266762733
0.0330422893166542
0.027413859963417
0.0200244355946779
0.0111455507576465
0.0012443400919437
-0.0090657072141766
-0.019100522622466
-0.0281907580792903
-0.0357614271342754
-0.0413950979709625
-0.0448678284883499
-0.0461520999670028
-0.0453939214348793
-0.0428769960999488
-0.0389811247587204
-0.0341387316584587
-0.0287932753562927
-0.0233593005686998
-0.0181858763098716
-0.013530901633203
-0.0095486203208565
-0.0062891668640077
-0.0037098592147231
-0.0016940240748226
-7.576961070299149e-05
0.0013290178030729
0.0026939520612359
0.0041624139994382
0.005835710093379
0.0077695120126008
0.0099769877269864
0.0124327894300222
0.0150767965242266
0.0178213734179735
0.0205638818442821
0.023201897740364
0.025646936148405
0.0278340894728899
0.0297236926853656
0.0312854275107383
0.0324579402804374
0.0330999642610549
0.0329688265919685
0.0317477583885192
0.0291135646402835
0.0248220637440681
0.0187878087162971
0.0111364629119634
0.0022152941673994
-0.0074395071715116
-0.0171700175851583
-0.0262841247022151
-0.034146748483181
-0.0402574576437473
-0.0442984849214553
-0.0461484380066394
-0.0458732917904853
-0.0437053143978118
-0.0400081574916839
-0.0352283231914043
-0.0298415347933769
-0.02430260181427
-0.0190062765032053
-0.0142608126625418
-0.0102704251185059
-0.0071275494992733
-0.0048183491453528
-0.0032412419095635
-0.002232551574707
-0.0015908535569906
-0.0010988255962729
-0.0005476363003253
0.000235759653151
0.0013650609180331
0.0028838012367486
0.0047713946551084
0.0069609628990292
0.0093591716140508
0.0118613438680768
0.0143618108704686
0.016763238236308
0.0189844816923141
0.020956901833415
0.0225992370396852
0.0237808339297771
0.0242983698844909
0.023885678499937
0.0222608782351017
0.0191949047148227
0.0145762339234352
0.0084561798721551
0.0010668821632862
-0.0071917232125997
-0.0157921835780143
-0.0241399109363555
-0.0316451266407966
-0.0377948284149169
-0.0422111079096794
-0.0446843728423118
-0.0451789274811744
-0.0438179969787597
-0.0408569984138011
-0.0366484746336936
-0.0316005013883113
-0.0261349789798259
-0.0206509437412023
-0.0154925994575023
-0.0109237320721149
-0.0071105044335126
-0.0041133244521915
-0.0018907249905169
-0.0003155170707032
0.0007985968841239
0.0016630643513053
0.0024831767659634
0.003436766564846
0.0046596215106546
0.0062348069623112
0.00818932056427
0.010499739088118
0.0131012052297592
0.0158950146287679
0.0187603421509265
0.0215734858065843
0.0242219008505344
0.0265988148748874
0.028579419478774
0.0299915876239538
0.0306015070527791
0.0301330722868442
0.028320187702775
0.0249730218201875
0.0200388710945844
0.013642031699419
0.0060918182134628
-0.0021425469312816
-0.0104875601828098
-0.0183428600430488
-0.025159602984786
-0.0305016282945871
-0.0340829715132713
-0.0357801765203475
-0.0356237590312957
-0.0337790139019489
-0.0305204316973686
-0.0261989776045084
-0.0212043486535549
-0.0159259885549545
-0.0107177440077066
-0.0058699464425444
-0.0015882216393947
0.0020175231620669
0.0049281110987067
0.0071977227926254
0.0089334221556782
0.0102756973356008
0.0113790594041347
0.0123931588605046
0.0134475035592913
0.0146421324461698
0.0160443298518657
0.0176888313144445
0.0195779390633106
0.0216813907027244
0.0239399969577789
0.026275523006916
0.0286043174564838
0.0308472625911235
0.032923437654972
0.0347230620682239
0.0360761694610118
0.036741267889738
0.0364262908697128
0.0348369292914867
0.0317390449345111
0.0270216092467308
0.0207440555095672
0.0131538677960634
0.0046701794490218
-0.0041632140055298
-0.0127455927431583
-0.0204929243773221
-0.0269031673669815
-0.0316040217876434
-0.0343828573822975
-0.0352014042437076
-0.0341896936297416
-0.0316154100000858
-0.0278384573757648
-0.0232648216187953
-0.0183058232069015
-0.013341411948204
-0.0086873164400458
-0.0045730844140052
-0.0011352021247148
0.0015811938792467
0.003615403547883
0.005074949003756
0.0061133541166782
0.006909149698913
0.0076431091874837
0.0084716929122805
0.0095067210495471
0.0108092799782752
0.0123947151005268
0.0142411747947335
0.0162975471466779
0.018490994349122
0.0207360461354255
0.0229454133659601
0.0250391792505979
0.026949156075716
0.0286140237003564
0.0299596861004829
0.0308695267885923
0.0311629530042409
0.0305986013263463
0.0289053004235029
0.0258372016251087
0.021243967115879
0.0151344435289502
0.0077090342529118
-0.0006491146050393
-0.0094188135117292
-0.0180089101195335
-0.0258327573537826
-0.0323755964636802
-0.037248358130455
-0.0402219593524932
-0.0412381812930107
-0.0403987690806388
-0.0379386506974697
-0.0341922082006931
-0.0295586232095956
-0.0244645308703184
-0.0193222165107727
-0.0144890751689672
-0.0102367177605628
-0.0067337919026613
-0.0040414873510599
-0.0021205651573836
-0.0008509249892085
-6.048171781003475e-05
0.0004467562539502
0.0008688995148986
0.0013859223108738
0.002140003722161
0.003224326763302
0.0046805525198578
0.0064982599578797
0.0086192023009061
0.0109509993344545
0.0133848721161484
0.0158113706856966
0.0181321315467357
0.0202635880559682
0.0221267584711313
0.0236205514520406
0.0245884768664836
0.0248036459088325
0.023990074172616
0.0218752641230821
0.0182590056210756
0.0130815543234348
0.0064664124511182
-0.0012801601551473
-0.0097046177834272
-0.0182588286697864
-0.0263611562550067
-0.033459972590208
-0.0390917807817459
-0.0429267212748527
-0.0447976477444171
-0.0447108633816242
-0.0428347736597061
-0.0394678860902786
-0.0349959395825862
-0.0298466477543115
-0.0244457181543111
-0.01917608641088
-0.0143463211134076
-0.0101758558303117
-0.006791612599045
-0.0042253914289176
-0.0024146144278347
-0.0012150853872299
-0.0004277005791664
0.0001671714708209
0.0007777293212711
0.0015773903578519
0.0026903138495981
0.0041847396641969
0.006073563825339
0.0083207627758383
0.0108545264229178
0.0135867651551961
0.0164264291524887
0.0192769467830657
0.0220274217426776
0.0245437584817409
0.02665226906538
0.0281206704676151
0.0286582261323928
0.0279491394758224
0.0257126428186893
0.0217712167650461
0.0161093026399612
0.0089063867926597
0.000534126535058
-0.0084787774831056
-0.0175042152404785
-0.0258872583508491
-0.0330264717340469
-0.0384484268724918
-0.0418563038110733
-0.0431438684463501
-0.0423844531178474
-0.0398049727082252
-0.0357471406459808
-0.0306210666894912
-0.0248610489070415
-0.0188881009817123
-0.0130791198462247
-0.0077413637191057
-0.0030913650989532
0.0007576998323202
0.0037978421896696
0.0061174994334578
0.0078774448484182
0.009274436160922
0.0105076469480991
0.0117554059252142
0.0131594697013497
0.0148151451721787
0.0167679041624069
0.0190162174403667
0.0215193033218383
0.0242078267037868
0.0269952155649662
0.0297887586057186
0.0324997380375862
0.0350479930639267
0.0373544171452522
0.0393177643418312
0.0407789126038551
0.041492011398077
0.0411313474178314
0.0393428355455398
0.0358245372772216
0.0304122976958751
0.0231456719338893
0.0142961535602808
0.0043513141572475
-0.0060421982780098
-0.0161646045744419
-0.0253163892775774
-0.0328982025384902
-0.0384677499532699
-0.0417721942067146
-0.0427567809820175
-0.0415547154843807
-0.0384621173143386
-0.0338959246873855
-0.0283395927399396
-0.0222890824079513
-0.0162051413208246
-0.0104749221354722
-0.005386047065258
-0.0011116527020931
0.0022934442386031
0.0048816502094268
0.0067870216444134
0.00819325260818
0.0093047581613063
0.0103249941021204
0.0114391641691327
0.0127955563366413
0.0144871827214956
0.0165435168892145
0.0189365372061729
0.0215949397534132
0.0244202390313148
0.0273029394447803
0.03013551607728
0.03282031416893
0.0352727323770523
0.0374109074473381
0.0391241088509559
0.0402360260486602
0.040490698069334
0.0395742841064929
0.0371689796447753
0.0330228433012962
0.02701779268682
0.0192247442901134
0.0099323559552431
-0.0003646400291472
-0.0110180061310529
-0.0213064458221197
-0.0305268168449401
-0.0380811914801597
-0.0435418374836444
-0.0466806292533874
-0.0474701486527919
-0.0460673682391643
-0.0427809543907642
-0.0380263477563858
-0.0322767570614814
-0.0260181706398725
-0.0197113081812858
-0.0137563357129693
-0.0084612416103482
-0.0040209386497735
-0.0005108318291604
0.0021051266230642
0.0039543705061078
0.0052287243306636
0.0061560319736599
0.0069713545963168
0.0078860996291041
0.0090618357062339
0.0105990841984748
0.0125391352921724
0.0148698212578892
0.0175306908786296
0.0204194821417331
0.0234062261879444
0.0263542402535676
0.0291381422430276
0.0316528901457786
0.0338113531470298
0.0355243571102619
0.0366643294692039
0.0370329692959785
0.036358293145895
0.034330990165472
0.0306722521781921
0.0252133402973413
0.0179637409746646
0.0091493315994739
-0.0007922202348709
-0.0112601239234209
-0.0215672403573989
-0.0310235545039176
-0.0390145555138587
-0.0450676977634429
-0.0488959699869155
-0.0504118353128433
-0.0497164130210876
-0.0470731630921363
-0.042871780693531
-0.0375834442675113
-0.0317096561193466
-0.0257319472730159
-0.020068384706974
-0.0150405950844287
-0.0108581148087978
-0.0076188179664313
-0.0053138909861445
-0.003835626412183
-0.0029974402859807
-0.0025677997618913
-0.002306442707777
-0.0019916696473956
-0.0014394083991646
-0.000518356449902
0.0008409870788455
0.0026465281844139
0.0048526776954531
0.0073735788464546
0.0100999884307384
0.0129173770546913
0.015717152506113
0.0183931849896907
0.0208239760249853
0.0228455048054456
0.0242278259247541
0.0246737413108348
0.0238481238484382
0.021436283364892
0.0172192342579364
0.011142324656248
0.003357795998454
-0.0057661356404423
-0.0156736150383949
-0.0256855003535747
-0.0350842662155628
-0.0431988760828971
-0.049480989575386
-0.0535666644573211
-0.0553062409162521
-0.0547567345201969
-0.0521523058414459
-0.0478631071746349
-0.0423442721366882
-0.0360823422670364
-0.0295476019382476
-0.0231555961072444
-0.0172390937805175
-0.0120311863720417
-0.007658855523914
-0.0041459240019321
-0.0014230082742869
0.0006570621626451
0.0022937508765608
0.0037029143422842
0.0050838002935051
0.0065992637537419
0.0083660520613193
0.0104491794481873
0.0128607936203479
0.0155676063150167
0.0185040850192308
0.0215843543410301
0.0247116386890411
0.0277869869023561
0.0307167265564203
0.033412504941225
0.0357745885848999
0.0376588068902492
0.0388446934521198
0.0390303321182727
0.0378690212965011
0.0350411795079708
0.0303391758352518
0.023738570511341
0.0154362078756093
0.0058475648984313
-0.0044347676448524
-0.0147122638300061
-0.0242666862905025
-0.0324466489255428
-0.0387412272393703
-0.0428269319236278
-0.0445820614695549
-0.0440760813653469
-0.0415457338094711
-0.0373620465397834
-0.0319861322641372
-0.025917150080204
-0.0196413211524486
-0.0135865714401006
-0.0080855246633291
-0.0033540436998009
0.0005111722275614
0.0035217548720538
0.0057788807898759
0.0074475593864917
0.0087277526035904
0.0098273940384387
0.0109397061169147
0.0122253950685262
0.0137975355610251
0.015710337087512
0.0179595109075307
0.0204947814345359
0.0232360884547233
0.0260880663990974
0.0289518348872661
0.0317338705062866
0.0343508794903755
0.0367277860641479
0.0387844778597354
0.0404073633253574
0.041413877159357
0.041535384953022
0.0404419638216495
0.037807960063219
0.0333928354084491
0.0271103419363498
0.0190738402307033
0.0096104629337787
-0.0007635941728949
-0.0114013021811842
-0.0215998943895101
-0.030681449919939
-0.0380695983767509
-0.0433488525450229
-0.0463002435863018
-0.0469120815396308
-0.045364249497652
-0.0419920310378074
-0.0372365191578865
-0.0315865725278854
-0.0255271606147289
-0.0195032581686973
-0.0138904396444559
-0.0089673772454261
-0.0048976144753396
-0.0017261407338082
0.0006099762395024
0.0022584504913538
0.0034202677197754
0.0043189297430217
0.0051739434711635
0.0061763571575284
0.0074699083343148
0.0091415550559759
0.0112206656485795
0.013686291873455
0.0164776761084795
0.0195020623505115
0.0226422511041164
0.0257681347429752
0.0287511255592107
0.0314773023128509
0.033849861472845
0.0357697047293186
0.037097904831171
0.037624143064022
0.0370676256716251
0.0351187847554683
0.0315096415579319
0.0260919854044914
0.0189026463776826
0.0101971654221415
0.0004382207989692
-0.0097597287967801
-0.0197124816477298
-0.0287536978721618
-0.0363100804388523
-0.0419541299343109
-0.0454343259334564
-0.0466846339404583
-0.0458157137036323
-0.0430919788777828
-0.038895308971405
-0.0336778573691844
-0.0279134977608919
-0.0220549870282411
-0.0164954587817192
-0.0115345390513539
-0.0073580560274422
-0.004037529695779
-0.0015442233998328
0.0002307769900653
0.0014546844176948
0.0023290913086384
0.0030634508002549
0.0038503638934344
0.0048479908145964
0.0061691356822848
0.0078743062913417
0.0099696340039372
0.0124121056869626
0.0151219824329018
0.0179995913058519
0.0209407526999712
0.0238422695547342
0.0265924483537673
0.0290504842996597
0.0310216043144464
0.0322400964796543
0.0323791913688182
0.0310961138457059
0.0281020253896713
0.0232372023165226
0.0165311507880687
0.0082305762916803
-0.0012140478938817
-0.0111973900347948
-0.0210298113524913
-0.0300194974988698
-0.0375535860657691
-0.043165273964405
-0.0465791299939155
-0.0477268882095813
-0.046733159571886
-0.0438813306391239
-0.039570178836584
-0.0342670828104019
-0.0284612607210874
-0.0226185396313667
-0.01713827252388
-0.012318979948759
-0.0083405990153551
-0.0052628112025558
-0.0030346354469656
-0.0015127145452424
-0.0004879748448729
0.0002790229627862
0.0010188174201175
0.001923001371324
0.0031312685459852
0.0047286935150623
0.0067447088658809
0.0091545162722468
0.0118879256770014
0.0148449447005987
0.0179121531546115
0.0209751110523939
0.023920401930809
0.0266200620681047
0.0289018768817186
0.0305247791111469
0.0311816297471523
0.0305353980511426
0.0282797664403915
0.0242111515253782
0.0182938408106565
0.0106992209330201
0.0018097234424203
-0.007813386619091
-0.017494274303317
-0.0265290327370166
-0.034276109188795
-0.0402295477688312
-0.0440645404160022
-0.0456562042236328
-0.0450731292366981
-0.0425478368997573
-0.0384329073131084
-0.0331557318568229
-0.0271786358207464
-0.0209609400480985
-0.0149191245436668
-0.0093895504251122
-0.0046019721776247
-0.0006689364090561
0.0024093389511108
0.0047279777936637
0.0064523057080805
0.0077898064628243
0.0089626600965857
0.0101805906742811
0.0116155184805393
0.0133838793262839
0.0155412964522838
0.0180855710059404
0.0209610573947429
0.0240674838423728
0.0272776745259761
0.0304588600993156
0.0334882885217666
0.0362523607909679
0.0386221520602703
0.0404155924916267
0.0413732007145881
0.0411714166402816
0.0394759997725486
0.0360168814659118
0.030663214623928
0.0234824661165475
0.0147670228034257
0.0050146272405982
-0.0051352796144783
-0.0149875953793525
-0.0238762963563203
-0.0312374029308557
-0.036665242165327
-0.0399431847035884
-0.0410441756248474
-0.0401090271770954
-0.0374144092202186
-0.0333354696631431
-0.0283033419400453
-0.0227611344307661
-0.0171238835901021
-0.0117443520575761
-0.0068867467343807
-0.0027144132182002
0.0007076878100633
0.0034034885466098
0.0054722111672163
0.0070675048045814
0.0083709433674812
0.0095662698149681
0.0108190346509218
0.0122626926749944
0.0139891952276229
0.0160416550934314
0.0184120181947946
0.0210473053157329
0.0238619726151227
0.0267536584287881
0.029618626460433
0.032358381897211
0.034871757030487
0.0370339602231979
0.0386695452034473
0.0395343154668808
0.0393236987292766
0.0377137884497642
0.0344275087118148
0.0293079130351543
0.0223772730678319
0.0138673679903149
0.0042116371914744
-0.0060012778267264
-0.0160986185073852
-0.0254023615270853
-0.0333047285676002
-0.0393352694809436
-0.0432115495204925
-0.0448582172393798
-0.0443915799260139
-0.0420836918056011
-0.038317073136568
-0.0335341691970825
-0.0281883459538221
-0.0227033123373985
-0.017441302537918
-0.0126787517219781
-0.0085907820612192
-0.0052469875663518
-0.0026190115604549
-0.0005974879022687
0.0009834691882133
0.0023149454500526
0.0035808929242193
0.0049350820481777
0.0064908075146377
0.0083172200247645
0.0104370983317494
0.0128281423822045
0.0154307652264833
0.0181596502661705
0.0209162514656782
0.0236018821597099
0.026127640157938
0.0284167807549238
0.0303953364491462
0.0319655984640121
0.032970942556858
0.0331766158342361
0.0322852656245231
0.0299892518669366
0.0260461345314979
0.0203544571995735
0.0130072403699159
0.0043088980019092
-0.0052464306354522
-0.0150312799960374
-0.0243668481707572
-0.0326118171215057
-0.0392386987805366
-0.0438862591981887
-0.0463843122124671
-0.0467515923082828
-0.0451708696782588
-0.0419526174664497
-0.0374989286065101
-0.0322660095989704
-0.0267190057784318
-0.0212848931550979
-0.0163133218884468
-0.0120502905920147
-0.0086262114346027
-0.0060557001270353
-0.0042488113977015
-0.0030361427925527
-0.0022022556513547
-0.0015190681442618
-0.000775865279138
0.0001973398029804
0.0015169642865657
0.0032409252598881
0.0053648827597498
0.0078232688829302
0.0105046834796667
0.0132774887606501
0.0160124376416206
0.018596313893795
0.0209351032972335
0.0229414347559213
0.0245044566690921
0.0254566930234432
0.0255626980215311
0.0245437528938055
0.0221323277801275
0.0181397795677185
0.0125208953395485
0.0054162256419658
-0.0028439033776521
-0.0117730339989066
-0.0207848697900772
-0.0292598754167556
-0.0366172231733799
-0.0423825085163116
-0.0462368875741958
-0.0480394512414932
-0.0478242263197898
-0.0457789003849029
-0.0422118306159973
-0.0375119484961032
-0.0321060232818126
-0.026416853070259
-0.0208243243396282
-0.0156350452452898
-0.011067135259509
-0.0072442856617271
-0.0041921269148588
-0.001844021724537
-6.145494990050793e-05
0.0013383133336901
0.0025544096715748
0.0037757502868771
0.0051582087762653
0.0068101808428764
0.0087886340916156
0.0111024547368288
0.0137174418196082
0.0165630597621202
0.0195450857281684
0.0225592572242021
0.0254973974078893
0.0282454323023557
0.03067022934556
0.0325945653021335
0.0337793417274951
0.0339344218373298
0.0327597446739673
0.0300058908760547
0.0255404580384492
0.0194035097956657
0.0118336183950304
0.0032545626163482
-0.0057715591974556
-0.014611049555242
-0.0226337797939777
-0.0292892679572105
-0.0341716893017292
-0.0370571762323379
-0.0379082597792148
-0.0368545278906822
-0.0341595076024532
-0.0301795899868011
-0.0253208801150321
-0.0199987068772315
-0.0146000906825065
-0.009451144374907
-0.0047947326675057
-0.0007806029170751
0.0025337971746921
0.0051758955232799
0.0072466842830181
0.0089010251685976
0.0103161819279193
0.0116600291803479
0.013071778230369
0.014652925543487
0.0164619423449039
0.0185131914913654
0.0207823328673839
0.0232159830629825
0.025741871446371
0.0282790195196867
0.0307468809187412
0.0330703929066658
0.0351791344583034
0.0369971320033073
0.0384185127913951
0.039274800568819
0.0393186993896961
0.038248773664236
0.0357727110385894
0.0316845700144767
0.0259303525090217
0.018646515905857
0.0101641127839684
0.0009773955680429
-0.0083171604201197
-0.0170977786183357
-0.0247917249798774
-0.0309351906180381
-0.0352154821157455
-0.0374916568398475
-0.0377918630838394
-0.0362950004637241
-0.0333053469657897
-0.0292173027992248
-0.0244659110903739
-0.0194733776152133
-0.0146074006333947
-0.0101554542779922
-0.0063101439736783
-0.0031641912646591
-0.0007162345573306
0.0011139648267999
0.0024631430860608
0.0034985716920346
0.0043930704705417
0.0053045484237372
0.0063634198158979
0.0076648378744721
0.0092595797032117
0.0111484229564666
0.0132865561172366
0.0155953634530305
0.017978036776185
0.0203348267823457
0.0225742682814598
0.0246225036680698
0.0264281742274761
0.0279512461274862
0.0291307121515274
0.0298452340066432
0.0298948064446449
0.029021967202425
0.026964645832777
0.0235176682472229
0.0185856521129608
0.0122224986553192
0.0046536028385162
-0.003730577416718
-0.0124148456379771
-0.0208229925483465
-0.0283900238573551
-0.0346302464604377
-0.039189375936985
-0.0418737158179283
-0.0426555201411247
-0.0416585430502891
-0.0391309894621372
-0.0354097187519073
-0.0308789238333702
-0.0259308367967605
-0.0209329463541507
-0.0162015315145254
-0.0119802756235003
-0.0084238154813647
-0.005590415559709
-0.0034477766603231
