bvp
-0.0165976285934448
-0.0108662564307451
-0.0055397544056177
-0.0008665286004543
0.0030160816386342
0.0060740429908037
0.0083588464185595
0.0099890958517789
0.011132831685245
0.0119874821975827
0.012754525989294
0.0136125236749649
0.0146970599889755
0.0160916019231081
0.0178263057023286
0.0198822934180498
0.0222003050148487
0.0246870759874582
0.0272094123065471
0.0295738540589809
0.031504388898611
0.0326410010457038
0.032578982412815
0.0309460517019033
0.0274900645017623
0.0221485346555709
0.0150846466422081
0.0066850562579929
-0.0024800496175885
-0.0117275863885879
-0.0203490052372217
-0.027698453515768
-0.0332664139568805
-0.0367274209856987
-0.0379580520093441
-0.0370298847556114
-0.0341866500675678
-0.0298094619065523
-0.0243689008057117
-0.0183681864291429
-0.0122881801798939
-0.0065421564504504
-0.0014424473047256
0.0028193481266498
0.0061754784546792
0.0086698029190301
0.0104349767789244
0.0116633614525198
0.0125759039074182
0.0133907943964004
0.0142950797453522
0.0154271917417645
0.0168705713003873
0.0186515171080827
0.0207417346537113
0.0230677276849746
0.0255187712609767
0.0279411785304546
0.0301185827702283
0.031756293028593
0.0324923023581504
0.0319413989782333
0.0297627300024032
0.0257365871220827
0.019831858575344
0.012243234552443
0.0033870823681354
-0.0061417045071721
-0.0156452786177396
-0.0244179405272007
-0.0318352878093719
-0.0374179780483245
-0.0408696979284286
-0.0420922264456748
-0.0411773696541786
-0.0383797101676464
-0.0340760797262191
-0.0287178941071033
-0.022782327607274
-0.0167253911495208
-0.0109407166019082
-0.0057296594604849
-0.0012837331742048
0.0023224707692861
0.0051240697503089
0.00724140368402
0.0088470168411731
0.0101346392184495
0.011293638497591
0.0124885905534029
0.0138442087918519
0.0154372090473771
0.0172950960695743
0.0194011814892292
0.0217020250856876
0.0241094324737787
0.0264880806207656
0.0286274272948503
0.0302223116159439
0.0308927930891513
0.030240025371313
0.027917169034481
0.0237029809504747
0.0175649560987949
0.0096965376287698
0.0005172835662961
-0.0093698557466268
-0.0192554797977209
-0.0284152030944824
-0.0361980944871902
-0.0420975238084793
-0.0457962267100811
-0.0471853725612163
-0.046357050538063
-0.0435717105865478
-0.0392102897167205
-0.0337249785661697
-0.0275955442339181
-0.0212867818772792
-0.0152071136981248
-0.0096753174439072
-0.0048986691981554
-0.0009669616119936
0.0021363759879022
0.0045136967673897
0.0063285119831562
0.0077775451354682
0.0090615004301071
0.0103587713092565
0.0118058137595653
0.0134879620745778
0.0154427858069539
0.0176675841212272
0.0201197229325771
0.0227098874747753
0.0252896342426538
0.027632163837552
0.0294204819947481
0.0302658937871456
0.0297638587653636
0.0275738611817359
0.0234996657818555
0.01754866912961
0.00995734333992
0.0011754399165511
-0.0081891873851418
-0.0174489170312881
-0.0259182564914226
-0.0329910144209861
-0.0382080599665641
-0.0413023605942726
-0.0422112829983234
-0.0410595759749412
-0.0381228998303413
-0.0337834283709526
-0.0284851230680942
-0.022687928751111
-0.0168224480003118
-0.0112524479627609
-0.0062492741271853
-0.0019793545361608
0.0014963839203119
0.0042143072932958
0.0062909862026572
0.0078965462744236
0.0092210723087191
0.0104428846389055
0.0117086833342909
0.0131240459159016
0.014747972600162
0.016593774780631
0.0186384748667478
0.0208330433815717
0.0231046564877033
0.0253474153578281
0.0274014174938201
0.0290295742452144
0.0299147590994834
0.0296967066824436
0.0280439089983701
0.024730660021305
0.0196921769529581
0.0130530185997486
0.0051315911114215
-0.0035826787352561
-0.0124825034290552
-0.0209189802408218
-0.0282834134995937
-0.0340765863656997
-0.0379568189382553
-0.0397659540176391
-0.0395318046212196
-0.0374481454491615
-0.0338399708271026
-0.0291190035641193
-0.0237326249480247
-0.0181173421442508
-0.0126643404364585
-0.0076914401724934
-0.003419769462198
3.750389441847801e-05
0.0026734401471912
0.004576307721436
0.0059072948060929
0.0068676741793751
0.0076648499816656
0.0084857530891895
0.009478585794568
0.0107400249689817
0.0123097291216254
0.0141769181936979
0.0162949077785015
0.0185897685587406
0.0209534708410501
0.0232251398265361
0.0251723937690258
0.0264904201030731
0.0268321894109249
0.0258644521236419
0.0233352929353714
0.0191391631960868
0.0133612332865595
0.0062868129462003
-0.001625639386475
-0.009800162166357
-0.0176165122538805
-0.0244866050779819
-0.0299189835786819
-0.0335668288171291
-0.0352602861821651
-0.0350159332156181
-0.0330193415284156
-0.0295886732637882
-0.0251286476850509
-0.0200801063328981
-0.0148699320852756
-0.009868144057691
-0.0053591174073517
-0.0015280358493328
0.0015424028970301
0.0038677197881042
0.0055476841516792
0.0067429840564727
0.0076469480991363
0.0084543535485863
0.0093303527683019
0.0103887971490621
0.011685749515891
0.0132252890616655
0.014972286298871
0.0168669465929269
0.0188350901007652
0.0207857228815555
0.0225905552506446
0.0240564905107021
0.0249169431626796
0.0248588994145393
0.0235801767557859
0.02085892111063
0.0166147649288177
0.0109443273395299
0.0041240118443965
-0.003418137319386
-0.0111550772562623
-0.0185267068445682
-0.0250062979757785
-0.0301572941243648
-0.0336741283535957
-0.0354047417640686
-0.0353541038930416
-0.0336699411273002
-0.0306151136755943
-0.026531659066677
-0.0218012854456901
-0.0168055184185504
-0.0118882693350315
-0.0073287622071802
-0.0033278614282608
-6.044283509254456e-07
0.0026256940327584
0.0046034236438572
0.0060485159046947
0.0071187079884111
0.007987942546606
0.0088211223483085
0.0097534451633691
0.0108767114579677
0.0122342826798558
0.0138235613703727
0.0156035320833325
0.0175072401762008
0.0194548014551401
0.0213520545512437
0.0230665728449821
0.0243998561054468
0.0250837076455354
0.0248100757598876
0.0232867263257503
0.0203032195568084
0.0157887898385524
0.009848884306848
0.0027720546349883
-0.0049969926476478
-0.0129128657281398
-0.020400296896696
-0.0269246958196163
-0.0320489034056663
-0.0354708507657051
-0.0370461158454418
-0.0367980785667896
-0.0349081866443157
-0.0316805467009544
-0.0274909492582082
-0.0227378718554973
-0.0178041364997625
-0.0130265280604362
-0.0086697293445467
-0.0049072750844061
-0.0018157812301069
0.0006155262235552
0.002465525874868
0.0038602848071604
0.0049556167796254
0.0059203398413956
0.0069138826802372
0.0080616809427738
0.009438743814826
0.0110653666779398
0.0129129374399781
0.0149172320961952
0.0169958025217056
0.0190638061612844
0.0210414566099643
0.0228467993438243
0.0243716817349195
0.0254530124366283
0.0258641708642244
0.0253409631550312
0.0236355569213628
0.0205812416970729
0.0161455944180488
0.0104544609785079
0.0037867063656449
-0.0034512300044298
-0.010767844505608
-0.0176448877900838
-0.0236004889011383
-0.0282433740794658
-0.031313095241785
-0.032701525837183
-0.0324486121535301
-0.030718620866537
-0.027770884335041
-0.0239289291203022
-0.0195454508066177
-0.0149640385061502
-0.0104872640222311
-0.0063601923175156
-0.0027619448956102
0.0002038118691416
0.0025139008648693
0.0042198807932436
0.0054323277436196
0.0062976819463074
0.0069742077030241
0.0076136621646583
0.0083463443443179
0.0092664640396833
0.0104231834411621
0.0118215223774313
0.0134293772280216
0.0151882544159889
0.0170252714306116
0.0188582930713892
0.0205908920615911
0.0221004169434309
0.0232220813632011
0.0237389989197254
0.0233964677900075
0.0219463873654603
0.0192066319286823
0.0151141192764043
0.0097573678940534
0.0033831051550805
-0.0036232031416147
-0.01078035030514
-0.0175705514848232
-0.0235017128288745
-0.0281635113060474
-0.0312739834189415
-0.0327081307768821
-0.0324997305870056
-0.0308202560991048
-0.0279447697103023
-0.0242110155522823
-0.0199775546789169
-0.0155878569930791
-0.0113428672775626
-0.0074797850102186
-0.0041570933535695
-0.0014493896160274
0.0006455958355218
0.0021923480089753
0.0033032922074198
0.0041221207939088
0.004800050985068
0.0054731983691453
0.0062485272064805
0.0071971090510487
0.0083522498607635
0.0097124241292476
0.0112491082400083
0.0129163451492786
0.0146571081131696
0.0164025891572237
0.018061026930809
0.0194967351853847
0.0205132812261581
0.0208618883043527
0.0202802438288927
0.0185458771884441
0.0155274430289864
0.011227254755795
0.0058060605078935
-0.0004223144496791
-0.0070260055363178
-0.0135085014626383
-0.019371785223484
-0.0241788830608129
-0.0276012700051069
-0.0294465217739343
-0.0296694058924913
-0.028365908190608
-0.0257516950368881
-0.022129213437438
-0.0178469605743885
-0.0132607212290167
-0.0087043391540646
-0.0044649648480117
-0.0007585072889924
0.0022882474586367
0.0046396688558161
0.0063381921499967
0.0074861710891127
0.0082278167828917
0.0087289726361632
0.0091552445665001
0.0096516292542219
0.0103259291499853
0.0112409694120287
0.0124186966568231
0.0138486744835972
0.0154916476458311
0.0172787979245185
0.0191092304885387
0.0208417028188705
0.0222817342728376
0.02317800745368
0.0232425443828105
0.0221964437514543
0.0198285151273012
0.0160488635301589
0.0109253711998462
0.004696661606431
-0.0022450317628681
-0.0094007300212979
-0.0162278283387422
-0.0222050156444311
-0.0268935356289148
-0.0299892425537109
-0.0313529521226882
-0.0310123451054096
-0.0291402991861104
-0.0260183326900005
-0.0219948682934045
-0.0174453780055046
-0.0127354552969336
-0.0081874765455722
-0.0040555167943239
-0.0005115242674946
0.0023592207580804
0.0045551056973636
0.0061478782445192
0.0072656422853469
0.0080682132393121
0.0087173413485288
0.0093531133607029
0.0100834751501679
0.01098143029958
0.0120837744325399
0.0133918849751353
0.014877151697874
0.0164898391813039
0.0181641206145286
0.019810065627098
0.0212915129959583
0.0224037580192089
0.0228726007044315
0.0223875325173139
0.0206621307879686
0.0174992009997367
0.0128432437777519
0.0068142460659146
-0.0002859234809875
-0.0080017335712909
-0.0157810021191835
-0.0230474323034286
-0.0292736385017633
-0.0340407826006412
-0.0370769128203392
-0.0382723622024059
-0.0376750603318214
-0.0354712642729282
-0.0319557823240757
-0.0274930521845817
-0.0224729999899864
-0.0172722153365612
-0.0122275371104478
-0.0076150717213749
-0.0036287875846028
-0.0003659473732113
0.0021734004840254
0.0040726950392127
0.0054740319028496
0.0065484931692481
0.0074697500094771
0.0083956932649016
0.0094568980857729
0.0107484199106693
0.012322555296123
0.0141848940402269
0.0162996836006641
0.0186005253344774
0.0209949240088462
0.0233576744794845
0.025512259453535
0.0272095166146755
0.0281282700598239
0.0279136411845684
0.0262414515018463
0.0228871628642082
0.0177865289151668
0.0110765742138028
0.0031023970805108
-0.0056169815361499
-0.014454704709351
-0.0227551758289337
-0.0299108531326055
-0.0354299508035182
-0.0389875695109367
-0.0404489934444427
-0.0398640371859073
-0.037443321198225
-0.0335237868130207
-0.0285252276808023
-0.0229007508605718
-0.0170871261507272
-0.0114634316414594
-0.0063235722482204
-0.0018620360642671
0.0018297173082828
0.004757447168231
0.0070104822516441
0.0087433010339736
0.010149834677577
0.011428777128458
0.0127513157203793
0.0142427897080779
0.0159776024520397
0.0179821364581584
0.0202412065118551
0.02270551584661
0.0253003872931003
0.0279340576380491
0.0304955095052719
0.0328321456909179
0.0347196497023105
0.0358534306287765
0.0358774401247501
0.0344445556402206
0.0312898457050323
0.0262953247874975
0.0195344667881727
0.0112908240407705
0.0020434223115444
-0.0075828544795513
-0.0168925058096647
-0.0252052173018455
-0.0319365449249744
-0.0366598665714263
-0.0391421988606452
-0.0393537282943725
-0.0374545082449913
-0.0337617732584476
-0.0287026669830083
-0.0227601304650306
-0.0164219513535499
-0.0101388469338417
-0.0042896661907434
0.0008469447493553
0.0051092524081468
0.0084539437666535
0.0109431706368923
0.0127218533307313
0.0139906201511621
0.0149748176336288
0.0158922187983989
0.0169281028211116
0.0182198360562324
0.0198471490293741
0.0218299180269241
0.0241363793611526
0.0266947411000728
0.0293987616896629
0.0321068949997425
0.0346332155168056
0.0367285795509815
0.0380688309669494
0.0382729433476924
0.0369570516049861
0.0338128991425037
0.0286875423043966
0.021639734506607
0.0129605121910572
0.0031561190262436
-0.0071058999747037
-0.0170793533325195
-0.0260327402502298
-0.0333371683955192
-0.0385365448892116
-0.041387740522623
-0.0418675504624843
-0.0401529520750045
-0.0365824550390243
-0.0316067710518837
-0.0257357992231845
-0.0194842349737882
-0.0133200474083423
-0.0076255640015006
-0.0026752711273729
0.0013746619224548
0.0044888462871313
0.0067450460046529
0.0083129871636629
0.0094182966277003
0.0102979820221662
0.0111625827848911
0.0121737010776996
0.0134340887889266
0.0149880591779947
0.0168302804231643
0.0189168527722358
0.0211755447089672
0.0235146582126617
0.0258223600685596
0.0279447939246892
0.029650630429387
0.0306144263595342
0.0304458476603031
0.028760440647602
0.0252645779401063
0.0198288653045892
0.0125381145626306
0.0037102028727531
-0.0061248876154422
-0.016285004094243
-0.0260221753269433
-0.0346174091100692
-0.0414646044373512
-0.0461312159895896
-0.0483938828110694
-0.0482489094138145
-0.045896727591753
-0.041703388094902
-0.0361452735960483
-0.0297467187047004
-0.0230235885828733
-0.0164414495229721
-0.0103842820972204
-0.0051269764080643
-0.0008171577937901
0.0025249468162655
0.0049905548803508
0.0067559364251792
0.0080482736229896
0.0091086830943822
0.0101585509255528
0.0113724395632743
0.0128613822162151
0.0146693717688322
0.0167818404734134
0.0191423557698726
0.0216685570776462
0.0242580994963645
0.0267821252346038
0.0290656313300132
0.0308611430227756
0.0318388268351554
0.031614776700735
0.0298150964081287
0.0261554513126611
0.0205157957971096
0.0129938777536153
0.0039226487278938
-0.006153667345643
-0.0165401101112365
-0.0264782682061195
-0.0352432206273078
-0.0422326251864433
-0.0470325239002704
-0.0494473427534103
-0.0494966953992843
-0.0473906323313713
-0.0434899665415287
-0.0382557027041912
-0.0321946814656257
-0.0258076414465904
-0.0195418559014797
-0.0137531366199254
-0.0086842635646462
-0.004460584372282
-0.001097653992474
0.0014849891886115
0.0034450180828571
0.0049881180748343
0.0063291545957326
0.0076568126678466
0.0091120470315217
0.0107807833701372
0.0126980952918529
0.0148576395586133
0.0172195918858051
0.0197178833186626
0.0222695507109165
0.0247807279229164
0.0271410085260868
0.0292026996612548
0.0307527352124452
0.0315019860863685
0.0311116017401218
0.0292493794113397
0.025660004466772
0.0202359240502119
0.0130707696080207
0.0044785365462303
-0.005029410123825
-0.0148053634911775
-0.0241482090204954
-0.0323909148573875
-0.0389797985553741
-0.0435334332287311
-0.0458707548677921
-0.0460078082978725
-0.0441339612007141
-0.0405751913785934
-0.0357455685734748
-0.0300975255668163
-0.0240822229534387
-0.0181163121014833
-0.0125498715788126
-0.0076383352279663
-0.0035257185809314
-0.0002443883568048
0.0022701621055603
0.0041549010202288
0.005590908229351
0.0067756865173578
0.0078986724838614
0.0091205090284347
0.0105568617582321
0.0122702373191714
0.0142722409218549
0.0165301617234945
0.018971525132656
0.0214927680790424
0.0239761546254158
0.0263028964400291
0.0283472705632448
0.0299503467977046
0.0308932438492774
0.0308963060379028
0.0296534523367881
0.0268938653171062
0.0224557742476463
0.0163498446345329
0.008789200335741
0.0001798029989004
-0.0089208614081144
-0.0178722366690635
-0.0260369647294282
-0.0328606739640235
-0.0379277840256691
-0.0409930199384689
-0.0419914573431015
-0.0410299114882946
-0.0383623540401458
-0.0343503504991531
-0.0294160097837448
-0.0239973049610853
-0.0185076519846916
-0.0133001692593097
-0.0086403414607048
-0.0046887784264981
-0.0014975643716752
0.0009750914759933
0.0028381845913827
0.0042416867800056
0.005354001186788
0.0063410717993974
0.0073488638736307
0.0084910690784454
0.0098416823893785
0.0114326067268848
0.0132564911618828
0.0152731956914067
0.0174179226160049
0.0196108762174844
0.0217654202133417
0.0237871743738651
0.0255577657371759
0.0269057303667068
0.0275854431092739
0.0272933021187782
0.0257259383797645
0.0226558446884155
0.017998494207859
0.0118547705933451
0.004518486559391
-0.0035508647561073
-0.0117830801755189
-0.0195699948817491
-0.0263406243175268
-0.0316250398755073
-0.0351005047559738
-0.0366160683333873
-0.0361958593130111
-0.034026525914669
-0.0304311886429786
-0.0258269906044006
-0.020669586956501
-0.0153987947851419
-0.0103970561176538
-0.0059597380459308
-0.0022743830922991
0.0005864929407835
0.0026563468854874
0.0040539107285439
0.0049569737166166
0.0055731902830302
0.0061089182272553
0.0067430045455694
0.0076119094155728
0.0088006798177957
0.0103354081511497
0.0121844820678234
0.0142715871334075
0.0164941996335983
0.0187419466674327
0.0209083817899227
0.0228886231780052
0.0245608370751142
0.0257600918412208
0.0262642204761505
0.0258099846541881
0.0241396222263574
0.0210621915757656
0.0165127031505107
0.0105933062732219
0.0035820016637444
-0.0040936269797384
-0.0119065288454294
-0.0192940365523099
-0.0257292352616786
-0.0307861100882291
-0.0341810062527656
-0.0357864685356617
-0.0356273241341114
-0.0338655263185501
-0.0307730305939912
-0.0266954060643911
-0.0220132376998662
-0.0171047132462263
-0.0123090269044041
-0.0078947599977254
-0.0040431702509522
-0.0008485483704134
0.0016734292730689
0.0035747934598475
0.0049609406851232
0.0059733968228101
0.0067712049931287
0.0075116520747542
0.0083318231627345
0.0093341637402772
0.0105781015008687
0.0120771145448088
0.0138026569038629
0.0156953800469636
0.0176784805953502
0.0196707379072904
0.021592479199171
0.0233495905995368
0.0247990693897008
0.0257233437150716
0.0258383248001337
0.0248381830751895
0.0224601421505212
0.0185502022504806
0.0131158772855997
0.0063528553582727
-0.0013644057326018
-0.009525841102004
-0.017548955976963
-0.0248509887605905
-0.0309206936508417
-0.035373281687498
-0.0379811562597751
-0.0386867821216583
-0.037598118185997
-0.0349621251225471
-0.0311215780675411
-0.0264685805886983
-0.0214038267731666
-0.0163014568388462
-0.0114780189469456
-0.0071690566837787
-0.003518093843013
-0.000577725470066
0.00168211851269
0.0033603359479457
0.0046045645140111
0.0055892271921038
0.006492665503174
0.0074701341800391
0.008631806820631
0.0100372759625315
0.0117004243656992
0.013595413416624
0.0156658627092838
0.0178382098674774
0.0200326144695281
0.0221657082438468
0.0241424143314361
0.0258359406143426
0.0270631741732358
0.0275750923901796
0.0270807053893804
0.0253022667020559
0.0220418982207775
0.0172391422092914
0.011007260531187
0.003641405608505
-0.004406452178955
-0.0125819649547338
-0.0202980730682611
-0.0270046144723892
-0.032246746122837
-0.0357076302170753
-0.0372337214648723
-0.0368398129940032
-0.0346947200596332
-0.0310923419892787
-0.0264115519821643
-0.0210697595030069
-0.0154804782941937
-0.0100203957408666
-0.0050011863932013
-0.0006450721994042
0.0029282541945576
0.0056991772726178
0.0077356300316751
0.0091759338974952
0.0102055352181196
0.0110280243679881
0.0118348272517323
0.0127771962434053
0.0139478333294391
0.0153786446899175
0.0170517582446336
0.018916480243206
0.0209039896726608
0.0229353886097669
0.0249247141182422
0.0267729200422763
0.0283471383154392
0.029454892501235
0.0298353694379329
0.0291836857795715
0.0272050146013498
0.0236823111772537
0.0185414627194404
0.0118978889659047
0.0040685916319489
-0.0044558872468769
-0.0130715258419513
-0.0211392398923635
-0.0280674304813146
-0.0333827435970306
-0.0367750711739063
-0.038114383816719
-0.0374468713998794
-0.0349760614335536
-0.0310297980904579
-0.0260156691074371
-0.0203731544315814
-0.0145293800160288
-0.0088608153164386
-0.0036638863384723
0.0008649248629808
0.0046384381130337
0.0076722782105207
0.010064473375678
0.0119671914726495
0.0135519932955503
0.0149746378883719
0.0163511894643306
0.0177507195621728
0.0191984828561544
0.0206815116107463
0.0221561696380376
0.0235600024461746
0.0248255841434001
0.0258876774460077
0.0266727916896343
0.0270721167325973
0.0269161276519298
0.0259722489863634
0.0239757038652896
0.020685551688075
0.0159468799829483
0.0097450977191329
0.0022415509447455
-0.0062218541279435
-0.0151527607813477
-0.023965984582901
-0.0320561081171035
-0.0388699434697628
-0.0439671427011489
-0.0470631569623947
-0.0480502657592296
-0.0469956696033477
-0.0441216304898262
-0.0397717952728271
-0.0343667231500148
-0.0283580012619495
-0.0221885703504085
-0.0162574239075183
-0.0108855906873941
-0.0062866760417819
-0.0025516729801893
0.0003448389470577
0.0025212345644831
0.0041578579694032
0.0054656183347105
0.0066573610529303
0.007922189310193
0.0094036441296339
0.0111867953091859
0.0133003080263733
0.0157295763492584
0.0184232033789157
0.0212799571454525
0.0241247192025184
0.0266927704215049
0.0286372620612382
0.0295679774135351
0.029120285063982
0.0270371511578559
0.0232370682060718
0.017849326133728
0.0112103372812271
0.003822052385658
-0.0037157367914915
-0.0107814697548747
-0.0168032944202423
-0.021318931132555
-0.0240214224904775
-0.0247883033007383
-0.0236866511404514
-0.0209497213363647
-0.0169327482581138
-0.0120611563324928
-0.006780638359487
-0.0015126410871744
0.0033830730244517
0.0076363328844308
0.0110830971971154
0.0136703932657837
0.0154509646818041
0.0165675617754459
0.0172241982072591
0.0176467504352331
0.0180429071187973
0.0185733214020729
0.0193398464471101
0.0203870795667171
0.0217095483094453
0.0232555121183395
0.0249171033501625
0.0265062637627124
0.0277354009449481
0.0282277036458253
0.0275663528591394
0.0253733191639184
0.0213962141424417
0.0155761511996388
0.0080795409157872
-0.0007062470540404
-0.0102119818329811
-0.0197596549987792
-0.0286530498415231
-0.0362625271081924
-0.0420904867351055
-0.0458120703697204
-0.0472913235425949
-0.0465771332383155
-0.0438842102885246
-0.039562277495861
-0.0340540893375873
-0.0278449468314647
-0.0214116163551807
-0.0151779996231198
-0.0094775510951876
-0.0045259427279233
-0.0004154471680521
0.0028686467558145
0.005423757713288
0.0074066878296434
0.0090086963027715
0.0104265883564949
0.0118356337770819
0.0133729223161935
0.0151309520006179
0.0171522907912731
0.0194155722856521
0.0218093991279602
0.0241050291806459
0.025951862335205
0.026915144175291
0.026553550735116
0.0245116502046585
0.0205985400825738
0.0148391323164105
0.0074934056028723
-0.0009616268798708
-0.0098868133500218
-0.0185624323785305
-0.0262802671641111
-0.0324288047850132
-0.0365578271448612
-0.0384161435067653
-0.0379636548459529
-0.0353605821728706
-0.0309340432286262
-0.0251243188977241
-0.0184224508702754
-0.0113170826807618
-0.0042578680440783
0.0023729167878627
0.0082863327115774
0.0133050754666328
0.0173679944127798
0.0205209925770759
0.022895747795701
0.0246786810457706
0.0260788425803184
0.0273009426891803
0.0285228192806243
0.0298778340220451
0.0314426310360431
0.0332245491445064
0.0351406335830688
0.0369892977178096
0.03843380138278
0.0390257984399795
0.0382803343236446
0.0357821770012378
0.0312864780426025
0.0247854646295309
0.0165307279676198
0.0070113493129611
-0.0031073642894625
-0.013073032721877
-0.0221442282199859
-0.0296773873269557
-0.0351901426911354
-0.0383973941206932
-0.0392215326428413
-0.0377838090062141
-0.0343819931149482
-0.0294502489268779
-0.0235018879175186
-0.0170671753585338
-0.0106369024142622
-0.0046173064038157
0.0006987871602177
0.0051425015553832
0.0086650196462869
0.0113224107772111
0.0132499281316995
0.0146312601864337
0.0156699940562248
0.0165663473308086
0.0174981988966465
0.0186024699360132
0.0199562460184097
0.0215605590492486
0.0233227424323558
0.0250351671129465
0.0263678655028343
0.0268966704607009
0.0261688362807035
0.0237917248159647
0.0195230469107627
0.0133387427777051
0.0054632257670164
-0.0036424659192562
-0.0133346626535058
-0.0228725280612707
-0.0315132401883602
-0.0386016741394996
-0.043646827340126
-0.0463725253939628
-0.046732559800148
-0.0448908656835556
-0.041177038103342
-0.0360328741371631
-0.0299587473273277
-0.0234607383608818
-0.0170017872005701
-0.0109629919752478
-0.0056180655956268
-0.0011204965412616
0.0024957135319709
0.005300011485815
0.0074395323172211
0.0091094458475708
0.0105171026661992
0.0118467761203646
0.0132397422567009
0.0147881712764501
0.0165334809571504
0.018465556204319
0.0205129086971282
0.0225182212889194
0.0242189466953277
0.0252576284110546
0.0252288840711116
0.0237551406025886
0.0205724295228719
0.0156041793525218
0.0090045817196369
0.0011553447693586
-0.0073869824409484
-0.0159722473472356
-0.0239400807768106
-0.0306919142603874
-0.0357485897839069
-0.0387924164533615
-0.03969057649374
-0.0384988933801651
-0.0354472622275352
-0.0309057254344224
-0.0253350026905536
-0.0192325189709663
-0.0130809992551803
-0.0072997100651264
-0.0022012703120708
0.0020325016230344
0.0053454115986824
0.0077835563570261
0.0094706621021032
0.0105841178447008
0.011327788233757
0.0119032580405473
0.0124866273254156
0.013215472921729
0.0141817778348922
0.0154248271137475
0.0169220473617315
0.0185741446912288
0.0201876256614923
0.0214731320738792
0.0220740344375371
0.0216213129460811
0.0198033433407545
0.0164365079253911
0.0115188434720039
0.0052543357014656
-0.001957681030035
-0.0095692090690135
-0.0169567205011844
-0.0235033649951219
-0.0286760330200195
-0.0320857465267181
-0.0335225909948349
-0.0329658649861812
-0.0305756255984306
-0.0266663767397403
-0.0216633100062608
-0.0160517282783985
-0.0103285005316138
-0.0049531646072864
-0.0003000553697347
0.0033782385289669
0.0059683751314878
0.0074935164302587
0.008092051371932
0.0079825222492218
0.0074241571128368
0.0066813006997108
0.0059942249208688
0.0055572502315044
0.0055061262100934
0.0059141032397747
0.0067895073443651
0.0080629587173461
0.0095647722482681
0.0110145658254623
0.0120434109121561
0.0122482329607009
0.0112646967172622
0.0088418051600456
0.0049024447798728
-0.0004245061427354
-0.0068094320595264
-0.0137633755803108
-0.0207055397331714
-0.027041770517826
-0.0322394520044326
-0.0358867347240448
-0.0377287045121192
-0.0376840084791183
-0.0358462408185005
-0.032464750111103
-0.0279028136283159
-0.0225848890841007
-0.016945943236351
-0.0113869067281484
-0.0062393569387495
-0.0017425455152988
0.0019697761163115
0.0048718005418777
0.007031706161797
0.008584008552134
0.0096992189064621
0.0105609251186251
0.0113498233258724
0.0122240120545029
0.0132961580529809
0.0146213434636592
0.0161978416144847
0.0179700478911399
0.0198233611881732
0.0215707123279571
0.0229469686746597
0.0236298609524965
0.0232887454330921
0.0216488782316446
0.0185561571270227
0.0140263028442859
0.0082630952820181
0.0016422374173998
-0.0053317262791097
-0.0120924096554517
-0.0180936828255653
-0.0228815414011478
-0.0261388644576072
-0.0277055148035287
-0.0275795198976993
-0.0259025767445564
-0.0229318849742412
-0.0190022531896829
-0.0144855938851833
-0.0097522754222154
-0.0051370351575315
-0.0009118064772337
0.0027334184851497
0.0056997779756784
0.0079782418906688
0.0096388347446918
0.0108132380992174
0.0116769168525934
0.0124303521588444
0.0132734524086117
0.0143758133053779
0.015850406140089
0.0177360437810421
0.0199926495552063
0.0225063972175121
0.0250961314886808
0.0275171883404254
0.0294673256576061
0.0306037385016679
0.0305785164237022
0.0290936902165412
0.0259620435535907
0.0211520418524742
0.0148096038028597
0.007257979363203
-0.00102842412889
-0.0094763534143567
-0.0174822155386209
-0.024484621360898
-0.0300283525139093
-0.0338076651096344
-0.0356861539185047
-0.0356979221105575
-0.0340308994054794
-0.0309920255094766
-0.0269615799188613
-0.0223469138145446
-0.0175428986549377
-0.0128998383879661
-0.0086964042857289
-0.0051209419034421
-0.0022651643957942
-0.0001302825985476
0.0013575223274528
0.0023295066785067
0.002955972449854
0.0034212316386401
0.003895605681464
0.0045138588175177
0.0053619793616235
0.006473674904555
0.0078388359397649
0.0094172758981585
0.0111460490152239
0.0129344686865806
0.0146494414657354
0.0161016024649143
0.0170473549515008
0.0172155909240245
0.0163539294153451
0.0142810773104429
0.010933268815279
0.0063964296132326
0.0009166214149445
-0.0051188133656978
-0.0112303737550973
-0.0169136058539152
-0.0217052511870861
-0.0252339951694011
-0.027255093678832
-0.0276741087436676
-0.026553513482213
-0.0240935496985912
-0.020594522356987
-0.0164138302206993
-0.011923162266612
-0.0074686273001134
-0.0033403504639863
0.0002467366866767
0.0031641623936593
0.0053712227381765
0.0069063827395439
0.0078731551766395
0.0084208548069
0.0087217977270483
0.0089471703395247
0.0092415334656834
0.0097029823809862
0.0103776240721344
0.0112677132710814
0.0123464688658714
0.0135705210268497
0.0148859918117523
0.0162306912243366
0.0175317246466875
0.018693707883358
0.0195796843618154
0.019999623298645
0.0197230800986289
0.0185191296041011
0.0162107925862073
0.0127249769866466
0.0081252502277493
0.0026228306815028
-0.0034371013753116
-0.009613886475563
-0.0154281612485647
-0.0204249732196331
-0.0242293514311313
-0.0265858620405197
-0.0273803081363439
-0.0266434326767921
-0.0245384890586137
-0.0213348791003227
-0.0173703655600547
-0.0130078690126538
-0.008593363687396
-0.0044241854920983
-0.0007338104769587
0.0023162504658102
0.0046452698297798
0.006257084198296
0.0072320597246289
0.0077075804583728
0.0078534055501222
0.0078482162207365
0.0078588379546999
0.0080224741250276
0.0084344111382961
0.0091427462175488
0.0101495077833533
0.0114180548116564
0.0128861973062157
0.0144761521369218
0.0160890985280275
0.0175863541662693
0.0187735054641962
0.0194042697548866
0.0192096270620822
0.0179435089230537
0.0154325440526008
0.0116203976795077
0.0065976832993328
0.0006106412038207
-0.0059559387154877
-0.0126236630603671
-0.018883466720581
-0.0242562871426343
-0.0283411145210266
-0.0308560971170663
-0.0316730216145515
-0.030829919502139
-0.0285137519240379
-0.0250236205756664
-0.0207274761050939
-0.0160182118415832
-0.0112715065479278
-0.006810369901359
-0.0028803497552871
0.0003652367740869
0.0028703408315777
0.0046703275293111
0.0058745965361595
0.0066414382308721
0.0071529010310769
0.0075900563970208
0.008106593042612
0.0088084675371646
0.0097477473318576
0.0109301917254924
0.0123293343931436
0.0138988392427563
0.015581608749926
0.0173172000795602
0.0190420150756835
0.0206736363470554
0.0220827646553516
0.0230716615915298
0.0233779232949018
0.0227084346115589
0.0207945592701435
0.017452435567975
0.0126338610425591
0.0064598242752254
-0.0007703742012381
-0.0086023146286606
-0.0164802186191082
-0.0238164737820625
-0.0300618205219507
-0.0347682908177375
-0.037637460976839
-0.0385465994477272
-0.0375499129295349
-0.0348576307296752
-0.030801136046648
-0.0257892291992902
-0.0202571526169776
-0.0146194957196712
-0.0092376414686441
-0.0043992195278406
-0.0003042705357074
0.0029440280050039
0.0053423698991537
0.0069787763059139
0.0080126859247684
0.0086492011323571
0.0091096144169569
0.0095997639000415
0.0102844834327697
0.0112757785245776
0.0126313101500272
0.0143567183986306
0.0164126437157392
0.0187252759933471
0.0211945995688438
0.0237014666199684
0.0261113420128822
0.0282626822590827
0.0299423336982727
0.0308720506727695
0.030726496130228
0.0291801802814006
0.0259708017110824
0.020969146862626
0.014237773604691
0.006056148558855
-0.0030962536111474
-0.0125911654904484
-0.0217245407402515
-0.0298028141260147
-0.0362316630780696
-0.0405864566564559
-0.0426488146185874
-0.0424120128154754
-0.0400627851486206
-0.0359429344534873
-0.030498057603836
-0.0242266077548265
-0.0176400952041149
-0.011232541874051
-0.0054483581334352
-0.000645225867629
0.0029411483556032
0.005223648622632
0.0062760338187217
0.0063207112252712
0.0056874044239521
0.0047563891857862
0.0039051286876201
0.0034666433930397
0.0036990717053413
0.004765460267663
0.0067267287522554
0.0095474049448966
0.0131084695458412
0.0172252692282199
0.0216729752719402
0.0262156631797552
0.0306229051202535
0.0346610806882381
0.038065955042839
0.0405169874429702
0.0416378229856491
0.0410399846732616
0.0384017825126647
0.0335544012486934
0.0265483781695365
0.0176833793520927
0.0074945772066712
-0.0033002402633428
-0.0138841550797224
-0.0234436616301536
-0.0312700718641281
-0.0368378385901451
-0.0398490913212299
-0.0402439013123512
-0.0381808243691921
-0.0339993461966514
-0.0281764734536409
-0.0212769620120525
-0.0138935446739196
-0.0065865330398082
0.0001655481755733
0.0060035679489374
0.0107127157971262
0.0142281465232372
0.0166211761534214
0.018072348088026
0.0188351981341838
0.0191943347454071
0.0194265376776456
0.0197729896754026
0.0204220190644264
0.0214947648346424
0.0230341516435146
0.0250078234821558
0.027325315400958
0.0298598818480968
0.0324707590043544
0.0350201390683651
0.0373740494251251
0.0393804982304573
0.0408314429223537
0.0414352156221866
0.0408274605870246
0.0386241525411605
0.0345010049641132
0.0282804612070322
0.0200060382485389
0.0099794138222932
-0.0012553976848721
-0.0129729900509119
-0.0243547409772872
-0.034588698297739
-0.0429647527635097
-0.0489514619112014
-0.0522457845509052
-0.0527900718152523
-0.0507586598396301
-0.0465228483080863
-0.040599301457405
-0.0335868634283542
-0.0261019449681043
-0.0187175422906875
-0.0119088068604469
-0.006017992272973
-0.0012456591939553
0.0023431747686117
0.0048058689571917
0.0063014323823153
0.0070641245692968
0.0073715578764677
0.0075082164257764
0.007730902172625
0.0082423547282814
0.0091764917597174
0.0105943959206342
0.0124878389760851
0.0147897452116012
0.0173910688608884
0.0201606024056673
0.0229563973844051
0.0256150681525468
0.0279227755963802
0.029588509351015
0.0302419066429138
0.0294705107808113
0.0268924813717603
0.022244295105338
0.0154606290161609
0.0067248791456222
-0.0035249162465333
-0.014635588042438
-0.0258151069283485
-0.0362310372292995
-0.0451099872589111
-0.0518227443099021
-0.0559498034417629
-0.0573193505406379
-0.0560100749135017
-0.0523231104016304
-0.0467333272099494
-0.0398268513381481
-0.0322318114340305
-0.0245523639023304
-0.0173139590770006
-0.010922429151833
-0.0056383637711405
-0.0015695821493864
0.0013178084045648
0.0031748162582516
0.0042392490431666
0.0048036342486739
0.0051768431439995
0.00563829485327
0.006400728598237
0.0075963819399476
0.0092802010476589
0.0114370705559849
0.0139932287856936
0.0168354865163564
0.0198305621743202
0.0228358246386051
0.0256984718143939
0.0282386019825935
0.030219230800867
0.0313258431851863
0.0311832781881093
0.0294165052473545
0.0257319547235965
0.0199923887848854
0.0122757293283939
0.0029049664735794
-0.0075691910460591
-0.0184303224086761
-0.0288850460201501
-0.0381615236401557
-0.045600701123476
-0.0507248565554618
-0.0532763376832008
-0.0532287470996379
-0.0507743768393993
-0.0462890528142452
-0.0402770787477493
-0.0333036482334136
-0.0259321928024292
-0.0186813063919544
-0.0119914840906858
-0.0061909239739179
-0.001470754854381
0.0021200170740485
0.0046609863638877
0.0063323485665023
0.0073781069368124
0.0080681778490543
0.0086656874045729
0.0094000622630119
0.0104443933814764
0.0119016552343964
0.0138048157095909
0.0161270275712013
0.0187930762767791
0.021688800305128
0.0246725752949714
0.027587603777647
0.0302631463855505
0.0324962958693504
0.03402566537261
0.034524880349636
0.0336341261863708
0.0310236886143684
0.0264719203114509
0.0199379902333021
0.0116081973537802
0.0019010081887245
-0.0085692862048745
-0.0190614238381385
-0.0288001373410224
-0.0370782688260078
-0.043342500925064
-0.0472454726696014
-0.0486652962863445
-0.0476980358362197
-0.0446247495710849
-0.0398612879216671
-0.0339053608477115
-0.0272862035781145
-0.0205154046416282
-0.0140422414988279
-0.0082189887762069
-0.0032772896811366
0.0006838410627096
0.0036935848183929
0.0058850203640758
0.0074580581858754
0.0086426753550767
0.0096676182001829
0.0107341976836323
0.0119978860020637
0.0135594839230179
0.0154631985351443
0.0176988579332828
0.0202090851962566
0.0229020975530147
0.025667080655694
0.0283888280391693
0.0309576001018285
0.0332671552896499
0.0351942218840122
0.0365631319582462
0.0371197797358036
0.0365433022379875
0.0344996601343154
0.0307187251746654
0.0250720847398042
0.0176324024796485
0.0086999461054801
-0.0012142080813646
-0.0114469286054372
-0.0212675333023071
-0.0299714729189872
-0.0369676686823368
-0.0418407022953033
-0.0443792641162872
-0.0445781834423542
-0.0426241122186183
-0.0388666689395904
-0.0337721705436706
-0.027864271774888
-0.0216642022132873
-0.0156393852084875
-0.0101627260446548
-0.0054854191839694
-0.0017272861441597
0.0011140764690935
0.0031404688488692
0.0045251823030412
0.0054837735369801
0.0062432754784822
0.0070146438665688
0.0079749338328838
0.0092547973617911
0.0109238633885979
0.0129808010533452
0.0153598766773939
0.0179518610239028
0.0206281263381242
0.0232614409178495
0.0257402397692203
0.0279700420796871
0.0298538971692323
0.0312549583613872
0.0319655388593673
0.0317094400525093
0.0301832892000675
0.0271247662603855
0.0223876237869262
0.015998475253582
0.0081795360893011
-0.0006609503179788
-0.0099657559767365
-0.0190921034663915
-0.0273923091590404
-0.0342930294573307
-0.0393584445118904
-0.0423296615481376
-0.0431373864412307
-0.0418928265571594
-0.0388631634414196
-0.0344341769814491
-0.0290640257298946
-0.0232334714382886
-0.0173962973058223
-0.0119363125413656
-0.0071405228227376
-0.0031879423186182
-0.0001458306796848
0.0020260422024875
0.0034590491559356
0.0043493043631315
0.0049252929165959
0.005414193496108
0.006013466976583
0.0068715130910277
0.0080765709280967
