bvp
-0.0574895702302455
-0.0639867261052131
-0.067580834031105
-0.0681918933987617
-0.0659762471914291
-0.0612898804247379
-0.0546376295387744
-0.046615794301033
-0.0378541238605976
-0.028955465182662
-0.0204393528401851
-0.0127064790576696
-0.0060269376263022
-0.0005369912832975
0.003760659135878
0.0069837495684623
0.0093412324786186
0.0110948346555233
0.0125202285125851
0.0138732511550188
0.0153644848614931
0.0171439833939075
0.0192928910255432
0.0218210406601429
0.0246761664748191
0.0277658179402351
0.0309832133352756
0.0342241711914539
0.0373911634087562
0.0403922237455844
0.0431323088705539
0.0454831421375274
0.0472378432750701
0.048080738633871
0.0475987941026687
0.0453441441059112
0.0409367121756076
0.0341761708259582
0.0251265559345483
0.0141490846872329
0.0018789758905768
-0.0108429659157991
-0.0230711959302425
-0.033877246081829
-0.0424708724021911
-0.048291053622961
-0.0510528683662414
-0.050753753632307
-0.0476442836225032
-0.0421720594167709
-0.0349153317511081
-0.0265193562954664
-0.0176361687481403
-0.0088662216439843
-0.0007086778059601
0.0064720017835497
0.0124622955918312
0.0171999391168355
0.0207581259310245
0.0233139973133802
0.0251070130616426
0.0263979732990264
0.0274362750351429
0.0284362509846687
0.0295616388320922
0.0309177432209253
0.0325512550771236
0.0344552956521511
0.0365771576762199
0.0388318374752998
0.0411216989159584
0.0433540344238281
0.0454492308199405
0.0473362728953361
0.0489282421767711
0.050074353814125
0.0505101457238197
0.0498450174927711
0.0476079992949962
0.043339941650629
0.0367059633135795
0.0275997389107942
0.0162090323865413
0.0030246190726757
-0.011203215457499
-0.0255490411072969
-0.0390250645577907
-0.0507032498717308
-0.0598233938217163
-0.0658692196011543
-0.0686065927147865
-0.0680895298719406
-0.0646397843956947
-0.0587974749505519
-0.0512439645826816
-0.042712464928627
-0.0339067392051219
-0.0254383217543363
-0.0177824813872575
-0.0112529704347252
-0.0059961169026792
-0.0020043579861521
0.0008524702861905
0.0027880975976586
0.0040634581819176
0.0049533965066075
0.0057158293202519
0.0065644746646285
0.0076470905914902
0.0090380832552909
0.0107499156147241
0.0127521399408578
0.0149854449555277
0.0173693150281906
0.0198093764483928
0.0222098156809806
0.0244862157851457
0.0265629664063453
0.0283433031290769
0.0296597089618444
0.0302322506904602
0.0296660400927066
0.0274994578212499
0.0232886243611574
0.0167102310806512
0.007668113335967
-0.0036279149353504
-0.0166448168456554
-0.0305775757879018
-0.0444543026387691
-0.0572680756449699
-0.0681067034602165
-0.0762621015310287
-0.081303484737873
-0.0831032320857048
-0.0818196311593055
-0.0778486356139183
-0.0717548578977584
-0.0641915053129196
-0.0558239072561264
-0.0472700372338295
-0.0390572883188724
-0.031588889658451
-0.0251229424029588
-0.0197706446051597
-0.0155117567628622
-0.0122181493788957
-0.0096807982772588
-0.0076427771709859
-0.00583525467664
-0.0040087215602397
-0.0019567161798477
0.0004690391942858
0.0033541768789291
0.0067250374704599
0.0105512924492359
0.0147467050701379
0.0191785432398319
0.0236895903944969
0.0281251687556505
0.0323534607887268
0.0362631976604461
0.0397303812205791
0.0425667688250541
0.044478066265583
0.0450602546334266
0.0438483692705631
0.0404110476374626
0.0344656333327293
0.0259811803698539
0.0152398245409131
0.0028355540707707
-0.0103901159018278
-0.0234543569386005
-0.0353555865585804
-0.0451923310756683
-0.0522627495229244
-0.0561332218348979
-0.0566690377891063
-0.0540252104401588
-0.0486017540097236
-0.0409768670797348
-0.0318327881395816
-0.0218811631202697
-0.0117929056286811
-0.0021395199000835
0.0066465083509683
0.0142850168049335
0.0206408854573965
0.0257091559469699
0.0295926872640848
0.0324717611074447
0.0345751643180847
0.0361556597054004
0.0374643951654434
0.0387254655361175
0.0401158779859542
0.0417528003454208
0.0436896942555904
0.0459205359220504
0.0483889952301979
0.0510029047727584
0.0536543875932693
0.056237980723381
0.0586584582924842
0.0608270168304443
0.0626386553049087
0.0639258548617363
0.0644091814756393
0.0636808425188064
0.0612432211637496
0.0565979033708572
0.0493632555007934
0.0393924713134765
0.0268591251224279
0.012283194810152
-0.0035091976169496
-0.0194818638265132
-0.0345190502703189
-0.0475676842033863
-0.0577702336013317
-0.0645611435174942
-0.0677084475755691
-0.0673058927059173
-0.0637298077344894
-0.0575689002871513
-0.0495371036231517
-0.0403868742287159
-0.0308357942849397
-0.0215095803141593
-0.0129024470224976
-0.0053566442802548
0.0009399950504302
0.0059451712295413
0.0097465636208653
0.0125346835702657
0.0145611613988876
0.0160939004272222
0.0173830669373273
0.0186393931508064
0.0200197100639343
0.0216205548495054
0.0234831180423498
0.0256048999726772
0.0279491003602743
0.0304507967084646
0.0330274812877178
0.0355950109660625
0.038078423589468
0.0404056385159492
0.0424739643931388
0.0440909601747989
0.04492112621665
0.0444830693304538
0.0422135032713413
0.0375798717141151
0.0302119627594947
0.0200201217085123
0.0072669945657253
-0.0074279773980379
-0.0231505259871482
-0.0388054922223091
-0.0532598942518234
-0.0654859170317649
-0.0746778324246406
-0.0803251266479492
-0.0822370499372482
-0.0805317237973213
-0.075602613389492
-0.0680607035756111
-0.0586543679237365
-0.0481803640723228
-0.0374016165733337
-0.026983493939042
-0.017451150342822
-0.0091638760641217
-0.0023060182575136
0.0031031763646751
0.0071832574903965
0.0101576279848814
0.0123161477968096
0.0139769902452826
0.0154505223035812
0.0170059967786073
0.0188404507935047
0.0210588723421096
0.0236752852797508
0.0266296193003654
0.0298095718026161
0.0330749601125717
0.0362842269241809
0.0393161475658416
0.0420763790607452
0.0444787442684173
0.0463984459638595
0.0476129464805126
0.0477622114121913
0.0463606417179107
0.0428733006119728
0.0368337929248809
0.0279670227319002
0.0162920765578746
0.0021827779710292
-0.0136361885815858
-0.0301613006740808
-0.0462343469262123
-0.0606927089393138
-0.0725161284208297
-0.0809428170323371
-0.0855384618043899
-0.0862168371677398
-0.0832182541489601
-0.0770544856786727
-0.0684313252568245
-0.0581597499549388
-0.047070026397705
-0.035939335823059
-0.0254297163337469
-0.0160386748611927
-0.0080748200416564
-0.001659981906414
0.0032514249905943
0.0068418146111071
0.0093902125954627
0.0112267676740884
0.0126869305968284
0.0140688261017203
0.0156028931960463
0.0174404717981815
0.0196558907628059
0.0222563259303569
0.0251945350319147
0.0283780246973037
0.0316802859306335
0.0349612385034561
0.0380897521972656
0.040955476462841
0.0434530936181545
0.0454313680529594
0.046631421893835
0.046655535697937
0.0449920818209648
0.0410984121263027
0.034525629132986
0.0250525195151567
0.0127890110015869
-0.0017778277397155
-0.0178104527294635
-0.0342217981815338
-0.0498232990503311
-0.0634790062904357
-0.0742377042770385
-0.0814301893115043
-0.0847244337201118
-0.0841329917311668
-0.0799767151474952
-0.0728215277194976
-0.0634005516767501
-0.0525273196399211
-0.0410117954015731
-0.0295898299664258
-0.0188682936131954
-0.0092883706092834
-0.0011127544566988
0.0055646314285695
0.0107961818575859
0.014750650152564
0.0176760517060756
0.0198600534349679
0.021593140438199
0.0231372937560081
0.02470388635993
0.0264430847018957
0.0284418165683746
0.030725959688425
0.0332670658826828
0.0359958969056606
0.038820780813694
0.0416452921926975
0.0443778596818447
0.0469234213232994
0.0491513200104236
0.0508474521338939
0.0516736172139644
0.0511609241366386
0.0487564280629158
0.0439238473773002
0.036274317651987
0.0256895907223224
0.0124041521921753
-0.0029766568914055
-0.0195300690829753
-0.0361282750964164
-0.0515819936990737
-0.064784862101078
-0.0748389139771461
-0.0811502784490585
-0.0834817439317703
-0.0819525942206382
-0.0769905894994735
-0.0692513138055801
-0.0595243796706199
-0.0486422926187515
-0.0373989269137382
-0.026482343673706
-0.0164286792278289
-0.0076004453003406
-0.000184734351933
0.0057948175817728
0.0104548353701829
0.0140175390988588
0.0167642924934625
0.0189846642315387
0.0209376476705074
0.0228340346366167
0.0248315427452325
0.0270321574062109
0.0294822324067354
0.0321788415312767
0.0350804477930069
0.0381192937493324
0.0412129387259483
0.0442733578383922
0.0472144335508346
0.0499516576528549
0.0523808822035789
0.0543317794799804
0.0555111542344093
0.0554729662835598
0.0536531284451484
0.0494729802012443
0.0424795411527156
0.0324822179973125
0.0196493864059448
0.0045374780893325
-0.0119549138471484
-0.0286967810243368
-0.0444754548370838
-0.0581548735499382
-0.0688071250915527
-0.0757995024323463
-0.0788352265954017
-0.0779517069458961
-0.0734890922904014
-0.0660419911146164
-0.056389395147562
-0.045399323105812
-0.0339286215603351
-0.0227406211197376
-0.0124476682394742
-0.0034789387136697
0.0039291782304644
0.0097271921113133
0.0140338856726884
0.0171023122966289
0.0192729402333498
0.0209211744368076
0.0224071908742189
0.0240358933806419
0.0260277241468429
0.0284992698580026
0.0314599424600601
0.0348287224769592
0.0384662747383117
0.0422129407525062
0.0459204502403736
0.0494673699140548
0.052752211689949
0.0556581318378448
0.057991188019514
0.05941878631711
0.0594529956579208
0.0575049519538879
0.0529989600181579
0.0455158092081546
0.0349254049360752
0.0214684344828128
0.0057706711813807
-0.0112088453024625
-0.0282906256616115
-0.0442292653024196
-0.0578754283487796
-0.0683112442493438
-0.0749385505914688
-0.077516846358776
-0.0761566311120987
-0.0712767168879509
-0.0635357499122619
-0.0537452474236488
-0.042771078646183
-0.0314398780465126
-0.0204704254865646
-0.0104327732697129
-0.0017220629379153
0.005455907434225
0.0110779143869876
0.0152745945379138
0.0182907506823539
0.0204415544867515
0.0220642052590847
0.0234718117862939
0.0249204784631729
0.0265913270413875
0.0285859201103448
0.030934453010559
0.0336116626858711
0.0365543775260448
0.0396737568080425
0.0428585559129715
0.0459777675569057
0.0488808825612068
0.0513736866414547
0.0531679727137088
0.0538388863205909
0.0528259389102458
0.0494973510503768
0.0432766154408454
0.0337993800640106
0.0210504401475191
0.0054366718977689
-0.0122279562056064
-0.0308156795799732
-0.0490259602665901
-0.0655522048473358
-0.079250693321228
-0.089272916316986
-0.0951361656188964
-0.0967371836304664
-0.0943222120404243
-0.0884238481521606
-0.0797773152589798
-0.0692281201481819
-0.057640966027975
-0.04581930488348
-0.0344432331621646
-0.0240307226777076
-0.0149196498095989
-0.0072632217779755
-0.0010401988402009
0.0039117038249969
0.007844359613955
0.0110489372164011
0.0138177722692489
0.0164164677262306
0.0190634336322546
0.0219158548861742
0.0250619426369667
0.0285213738679885
0.0322547145187854
0.0361784622073173
0.0401817113161087
0.0441426187753677
0.0479421056807041
0.0514667592942714
0.0545841716229915
0.0570812597870826
0.0585933998227119
0.058581456542015
0.0563922822475433
0.0513900369405746
0.0431172922253608
0.0314419902861118
0.0166499000042676
-0.0005447370931506
-0.0190701782703399
-0.0376302599906921
-0.0548738241195678
-0.0695677548646926
-0.0807406306266784
-0.0877753347158432
-0.090443879365921
-0.0888929069042205
-0.0835931971669197
-0.0752603858709335
-0.0647565349936485
-0.0529909580945968
-0.0408333502709865
-0.0290411971509456
-0.0182055477052927
-0.0087221907451748
-0.0007874565199017
0.0055851517245173
0.0105314571410417
0.0142945498228073
0.0171810463070869
0.0195196382701396
0.0216265190392732
0.0237738937139511
0.0261573903262615
0.0288764275610446
0.0319403707981109
0.0352920666337013
0.038834236562252
0.0424511209130287
0.0460238829255104
0.0494427569210529
0.0526152439415454
0.0554551295936107
0.057837389409542
0.0595298446714878
0.0601390488445758
0.0591110661625862
0.0558060109615325
0.0496305525302886
0.0401915833353996
0.0274331830441951
0.0117206955328583
-0.0061571942642331
-0.0250730048865079
-0.0437077730894088
-0.060725450515747
-0.0749404057860374
-0.0854496210813522
-0.0917129144072532
-0.0935782119631767
-0.0912586078047752
-0.085274614393711
-0.0763732343912124
-0.0654317960143089
-0.0533622130751609
-0.0410301722586154
-0.029187798500061
-0.0184177998453378
-0.0090994080528616
-0.0014038681983947
0.0046886028721928
0.0093583986163139
0.0128999091684818
0.0156640969216823
0.0180056355893611
0.0202419497072696
0.0226251892745494
0.025328179821372
0.0284427143633365
0.0319853723049163
0.0359059982001781
0.040098387748003
0.0444177612662315
0.0487061142921447
0.0528154224157333
0.0566125102341175
0.059951864182949
0.0626165270805358
0.0642548277974128
0.0643592327833175
0.0623187758028507
0.057538591325283
0.0495906509459018
0.0383529514074325
0.0241025872528553
0.0075364843942224
-0.0102954963222146
-0.0281317625194787
-0.044671818614006
-0.0587389692664146
-0.0694087445735931
-0.076091356575489
-0.0785657539963722
-0.0769683718681335
-0.0717433243989944
-0.0635672509670257
-0.053263384848833
-0.0417133308947086
-0.0297720246016979
-0.0181930661201477
-0.0075721307657659
0.0016866163350641
0.009378190152347
0.0154783939942717
0.0201082676649093
0.0234951004385948
0.0259351506829261
0.0277558173984289
0.0292775444686412
0.0307796653360128
0.0324762426316738
0.0345041416585445
0.0369212962687015
0.0397147126495838
0.042816188186407
0.0461204014718532
0.049502607434988
0.0528327301144599
0.0559699647128582
0.058720976114273
0.0607763864099979
0.0616678856313228
0.0607806295156478
0.0574341937899589
0.0510212257504463
0.0411659330129623
0.0278562288731336
0.011514576151967
-0.0070136524736881
-0.0265548191964626
-0.045761726796627
-0.0632910579442977
-0.0779642537236213
-0.0888874009251594
-0.0955266952514648
-0.0977396592497825
-0.0957575738430023
-0.0901241526007652
-0.0816075503826141
-0.0711003541946411
-0.0595187507569789
-0.047713965177536
-0.0364050790667533
-0.0261337235569953
-0.0172414630651474
-0.0098709212616086
-0.003986463882029
0.0005896780639886
0.0041323797777295
0.0069704810157418
0.0094452705234289
0.0118641033768653
0.014459622092545
0.0173699259757995
0.0206399243324995
0.0242370143532753
0.0280738584697246
0.032030701637268
0.0359735712409019
0.0397699326276779
0.0433002039790153
0.0464527681469917
0.0490879528224468
0.0509759522974491
0.0517429783940315
0.0508673079311847
0.0477445609867572
0.0418130382895469
0.0327078402042388
0.020396577194333
0.0052531752735376
-0.0119502274319529
-0.0301275420933961
-0.048016857355833
-0.0643425360321998
-0.0779713690280914
-0.0880383029580116
-0.0940254181623458
-0.0957885757088661
-0.0935376361012458
-0.0877782329916954
-0.0792240723967552
-0.0687015131115913
-0.0570668615400791
-0.0451344549655914
-0.0336103811860084
-0.0230396948754787
-0.0137774450704455
-0.0059861601330339
0.0003453642129898
0.0053679049015045
0.0093287453055381
0.012528033927083
0.015278685837984
0.0178700871765613
0.020538767799735
0.0234512686729431
0.0266993232071399
0.0303024761378765
0.0342163182795047
0.0383470319211483
0.0425696857273578
0.0467471033334732
0.0507458224892616
0.0544369518756866
0.0576658621430397
0.0601937286555767
0.0616431646049022
0.0614889413118362
0.0591179020702838
0.0539529360830783
0.0456051416695117
0.0340084955096244
0.0195014923810958
0.0028288094326853
-0.0149430278688669
-0.0325679555535316
-0.0487808920443058
-0.0624473914504051
-0.0726842209696769
-0.0789380148053169
-0.0810171142220497
-0.0790816470980644
-0.0735962316393852
-0.0652521252632141
-0.0548747517168521
-0.0433310978114604
-0.0314454212784767
-0.0199287626892328
-0.0093285534530878
-7.363036274909973e-06
0.0078511275351047
0.014223831705749
0.0192254241555929
0.0230778232216835
0.0260711498558521
0.0285211130976676
0.0307288467884063
0.0329485833644866
0.0353661850094795
0.0380891188979148
0.0411483496427536
0.0445107147097587
0.048097837716341
0.0518074296414852
0.0555305071175098
0.0591500550508499
0.0625062063336372
0.065336987376213
0.067229725420475
0.0676192641258239
0.0658504590392112
0.061298169195652
0.053516499698162
0.0423754043877124
0.0281464736908674
0.0115151833742856
-0.0064857257530093
-0.0246064588427543
-0.0415416434407234
-0.0560880191624164
-0.0672751665115356
-0.0744609236717224
-0.077384129166603
-0.0761653780937194
-0.0712578743696212
-0.0633627399802208
-0.0533274784684181
-0.0420459769666194
-0.0303717385977506
-0.0190501138567924
-0.0086710592731833
0.0003595622256398
0.0078307371586561
0.0137165579944849
0.0181485768407583
0.0213808715343475
0.0237508788704872
0.0256271604448556
0.0273467916995286
0.0291661992669105
0.0312435459345579
0.0336458012461662
0.0363641530275344
0.0393301732838153
0.042434349656105
0.0455488115549087
0.0485494062304496
0.0513268634676933
0.0537729635834693
0.0557329207658767
0.0569397509098053
0.0569705106317997
0.0552608147263526
0.0511862412095069
0.0441943109035491
0.0339563004672527
0.0204939227551221
0.0042403303086757
-0.0139770060777664
-0.0330237038433551
-0.0516003333032131
-0.0684118121862411
-0.0823303163051605
-0.0925213769078254
-0.0985143631696701
-0.1002165004611015
-0.0978836342692375
-0.0920588299632072
-0.0834861546754837
-0.0730152428150177
-0.0615145340561866
-0.0497955083847045
-0.0385469123721122
-0.0282882824540138
-0.019350241869688
-0.0118774324655532
-0.0058462475426495
-0.0010939096100628
0.0026404536329209
0.0056661488488316
0.0082938149571418
0.010799178853631
0.0133981183171272
0.0162334609776735
0.0193744264543056
0.022821994498372
0.0265150591731071
0.0303450096398592
0.0341798216104507
0.0378862433135509
0.0413406901061534
0.0444152578711509
0.0469302982091903
0.0485940426588058
0.0489677228033542
0.0474878028035163
0.0435571745038032
0.0366863831877708
0.026640934869647
0.0135513301938772
-0.0020417869091033
-0.0192246232181787
-0.0368276238441467
-0.0535876862704753
-0.068308487534523
-0.0799921751022338
-0.087932676076889
-0.0917666554450988
-0.0914826467633247
-0.0873911082744598
-0.0800621211528778
-0.0702434331178665
-0.0587730780243873
-0.0464967153966426
-0.034194216132164
-0.0225186552852392
-0.0119552724063396
-0.0028081173077225
0.0047890515998005
0.0108515163883566
0.0155196003615856
0.0190284848213195
0.0216716825962066
0.0237630531191825
0.0256000496447086
0.0274323765188455
0.029441300779581
0.0317305475473403
0.0343277305364608
0.0371956266462802
0.0402511358261108
0.0433890037238597
0.0465052723884582
0.0495070815086364
0.0522949360311031
0.0547166466712951
0.0565089024603366
0.0572589114308357
0.0564168244600296
0.0533676072955131
0.0475518554449081
0.0386094935238361
0.0265069045126438
0.011610522866249
-0.0053166560828685
-0.0231989528983831
-0.0407878458499908
-0.0568196438252925
-0.0701634436845779
-0.0799458399415016
-0.0856387764215469
-0.0870940834283828
-0.0845239385962486
-0.0784411653876304
-0.0695742964744567
-0.0587736070156097
-0.046921320259571
-0.0348504818975925
-0.0232767444103956
-0.0127504896372556
-0.0036320108920335
0.0039123576134443
0.0098950965330004
0.0144759966060519
0.0179200489073991
0.0205492563545703
0.0226918645203113
0.0246386174112558
0.0266162883490324
0.0287784319370985
0.0312068797647953
0.0339191779494285
0.0368794426321983
0.0400126799941062
0.0432222299277782
0.046406090259552
0.0494655296206474
0.0522927343845367
0.0547279007732868
0.0565038919448852
0.057213470339775
0.0563233643770217
0.0532472282648086
0.0474728718400001
0.0387061610817909
0.0269813071936368
0.0127098802477121
-0.0033365541603416
-0.0201060064136981
-0.0363954156637191
-0.0510058142244815
-0.0628906637430191
-0.0712701082229614
-0.0757012516260147
-0.0761019960045814
-0.0727259591221809
-0.0660979300737381
-0.056933119893074
-0.0460562892258167
-0.0343211255967617
-0.0225307289510965
-0.0113684982061386
-0.0013470668345689
0.0072202319279313
0.0142197767272591
0.0197122767567634
0.0238930415362119
0.0270450096577405
0.0294884890317916
0.0315362624824047
0.0334606282413005
0.0354728698730468
0.0377144366502761
0.0402565971016883
0.043104913085699
0.0462103635072708
0.049487367272377
0.0528285801410675
0.0560998916625976
0.0591071359813213
0.0615472234785556
0.06297367811203
0.0628072097897529
0.0604070052504539
0.0551937445998191
0.0467925295233726
0.035156600177288
0.02063874527812
0.003988497890532
-0.0137285683304071
-0.0312701240181922
-0.0473792664706707
-0.060935690999031
-0.0710736960172653
-0.0772558450698852
-0.0793024227023124
-0.0773807540535926
-0.0719571188092231
-0.0637217983603477
-0.053500697016716
-0.0421622246503829
-0.0305298827588558
-0.0193117689341306
-0.009052250534296
-0.0001087160781025
0.0073433564975857
0.0132848406210541
0.0178236290812492
0.021165682002902
0.023580839857459
0.0253650713711977
0.0268053226172924
0.0281516145914793
0.0296002030372619
0.0312871895730495
0.0332878828048706
0.0356195047497749
0.0382467471063137
0.0410892665386199
0.0440278835594654
0.0468954369425773
0.049437940120697
0.0512621626257896
0.0518135875463485
0.0504191368818283
0.0463965646922588
0.0392030104994773
0.0285803228616714
0.0146573279052972
-0.0020148437470197
-0.0205007083714008
-0.0395865812897682
-0.0579354055225849
-0.0742553025484085
-0.0874487087130546
-0.0967216491699218
-0.1016442477703094
-0.1021678373217582
-0.0986051559448242
-0.0915701389312744
-0.0818840190768241
-0.0704686418175697
-0.0582420416176319
-0.0460276864469051
-0.0344905219972133
-0.0241035558283329
-0.0151406275108456
-0.0076894299127161
-0.0016787613276392
0.0030831433832645
0.0068645728752017
0.0099702300503849
0.0127074858173727
0.0153535241261124
0.0181240700185298
0.0211537890136241
0.0244942028075456
0.0281263925135135
0.0319828167557716
0.0359701961278915
0.0399841368198394
0.0439045131206512
0.0475622303783893
0.0506831631064415
0.0528382398188114
0.053438164293766
0.0517961047589778
0.0472552739083766
0.0393519550561904
0.0279630292207002
0.01339010335505
-0.0036388020962476
-0.0220444872975349
-0.040530826896429
-0.0577495396137237
-0.0724633857607841
-0.0836818292737007
-0.090753398835659
-0.0934091210365295
-0.0917589962482452
-0.0862472504377365
-0.0775748714804649
-0.0666020363569259
-0.0542460195720195
-0.0413892678916454
-0.0288085713982582
-0.0171282775700092
-0.0067922081798315
0.001949556171894
0.0090377684682607
0.0145831247791647
0.0188287440687418
0.0221006479114294
0.024754874408245
0.0271299686282873
0.0295096952468156
0.0321003645658493
0.035024244338274
0.0383239723742008
0.0419745296239852
0.0459013804793357
0.0499972328543663
0.054129883646965
0.0581367798149585
0.0617995373904705
0.0647998452186584
0.0666772797703743
0.0668253451585769
0.0645561218261718
0.0592290461063385
0.0504071339964866
0.0379974357783794
0.0223387591540813
0.0042094709351658
-0.0152513682842254
-0.0346858948469162
-0.0526864044368267
-0.0679668709635734
-0.0795132219791412
-0.086681842803955
-0.0892341211438179
-0.0873200893402099
-0.0814273059368133
-0.0723025724291801
-0.0608541592955589
-0.0480475723743438
-0.0348097011446952
-0.0219527576118707
-0.010121926665306
0.0002373065799474
0.0088944286108016
0.0158290863037109
0.0212031174451112
0.0253088027238845
0.0285044349730014
0.0311568249017
0.0335981398820877
0.0360958129167556
0.0388372391462326
0.041926946491003
0.0453914552927017
0.0491911135613918
0.0532382912933826
0.057417869567871
0.061600387096405
0.065631091594696
0.0692828521132469
0.0721909999847412
0.073815681040287
0.0734663009643554
0.0703949779272079
0.0639469102025032
0.0537338517606258
0.0397779271006584
0.0225799735635519
0.0030941711738705
-0.0173816252499818
-0.0373725332319736
-0.055415466427803
-0.07023636251688
-0.0808876603841781
-0.0868299826979637
-0.087956391274929
-0.0845636054873466
-0.0772793591022491
-0.0669648349285125
-0.0546100847423076
-0.0412318184971809
-0.0277787931263446
-0.0150507083162665
-0.0036412943154573
0.0060871532186865
0.0140006579458713
0.0201668292284011
0.0248090103268623
0.0282514058053493
0.0308666694909334
0.0330285392701625
0.035070389509201
0.0372564867138862
0.0397673100233078
0.0426926016807556
0.0460304282605648
0.0496972352266311
0.0535509139299392
0.0574208498001098
0.0611273385584354
0.064464271068573
0.0671402662992477
0.0687150135636329
0.0685808509588241
0.0660173967480659
0.0603159591555595
0.0509456656873226
0.0377159416675567
0.0208877827972173
0.0012032408267259
-0.0201800446957349
-0.0418392531573772
-0.0622783377766609
-0.0801111012697219
-0.0942090302705764
-0.1038054823875427
-0.1085491925477981
-0.1085035949945449
-0.1041002869606018
-0.0960602760314941
-0.0852945521473884
-0.0727978199720382
-0.0595480427145957
-0.04642154276371
-0.0341288596391677
-0.0231711529195308
-0.0138243716210126
-0.0061568757519125
-6.677210330963135e-05
0.0046765380539
0.0083886552602052
0.0114234667271375
0.0141272554174065
0.0167995803058147
0.0196669064462184
0.0228724740445613
0.0264794304966926
0.0304807629436254
0.0348106883466243
0.0393571108579635
0.0439782477915287
0.0485151559114456
0.0527754053473472
0.0564764626324176
0.0591780841350555
0.0602570436894893
0.0589615777134895
0.0545421130955219
0.0464231111109256
0.0343704223632812
0.0186067558825016
-0.0001590494066476
-0.0207947511225938
-0.0418816208839416
-0.0618957169353961
-0.0793981775641441
-0.0932002514600753
-0.1024772226810455
-0.1068252027034759
-0.1062679812312126
-0.1012157276272773
-0.0923818945884704
-0.0806788951158523
-0.0671122297644615
-0.0526816956698894
-0.0382948331534862
-0.0246998853981494
-0.0124448733404278
-0.0018623971845954
0.0069258650764822
0.0139862727373838
0.0195315033197402
0.023870101198554
0.0273579992353916
0.0303518921136856
0.0331661328673362
0.0360414385795593
0.0391293317079544
0.0424914062023162
0.0461122095584869
0.0499211587011814
0.0538150072097778
0.0576763451099395
0.0613863505423069
0.0648199543356895
0.0678092390298843
0.0700811147689819
0.0712001249194145
0.0705587342381477
0.0674430131912231
0.0611650012433528
0.0512268617749214
0.0374768115580081
0.020216641947627
0.0002269893884658
-0.0213023144751787
-0.0429216027259826
-0.0631128996610641
-0.0804803371429443
-0.0939066186547279
-0.1026578769087791
-0.106431633234024
-0.1053511947393417
-0.0999152809381485
-0.0909107476472854
-0.0793021544814109
-0.0661221519112587
-0.0523758605122566
-0.038957692682743
-0.0265820436179637
-0.0157377496361732
-0.006673539057374
0.0005881818942725
0.0062139895744621
0.0105043593794107
0.0138343200087547
0.0166006162762641
0.0191742219030857
0.02185845002532
0.0248617678880691
0.0282922275364398
0.0321697108447551
0.0364434048533439
0.0410067737102508
0.0457131341099739
0.0503943972289562
0.0548763200640678
0.0589729882776737
0.0624456293880939
0.0649408549070358
0.0659509599208831
0.0648336485028266
0.0609033070504665
0.0535802654922008
0.0425585657358169
0.0279394797980785
0.0102927396073937
-0.0093702971935272
-0.029712613672018
-0.0492527075111866
-0.0665611401200294
-0.0804288983345031
-0.0899896770715713
-0.0947891399264335
-0.0947974920272827
-0.0903718993067741
-0.0821815729141235
-0.0711079463362693
-0.0581357553601264
-0.0442520417273044
-0.0303608030080795
-0.0172145962715148
-0.0053668217733502
0.0048509817570447
0.0133230239152908
0.0201170779764652
0.0254395641386508
0.0295896157622337
0.0329139530658721
0.0357614681124687
0.038442812860012
0.0412028320133686
0.0442066118121147
0.047536801546812
0.0512005984783172
0.0551427789032459
0.0592613592743873
0.063423216342926
0.0674735456705093
0.0712239891290664
0.0744046345353126
0.0765985324978828
0.0772115811705589
0.0755176097154617
0.0707814246416091
0.0624317191541194
0.0502319186925888
0.034396406263113
0.0156208574771881
-0.0049801254644989
-0.026011936366558
-0.045982114970684
-0.0634882226586341
-0.077379822731018
-0.0868700891733169
-0.0915868431329727
-0.0915735885500907
-0.0872509777545929
-0.0793378204107284
-0.0687423348426818
-0.0564513318240642
-0.0434357523918151
-0.030572447925806
-0.018581572920084
-0.0079837953671813
0.000920315622352
0.0080460952594876
0.0134958866983652
0.0175123885273933
0.0204235799610614
0.0225910320878028
0.0243695992976427
0.026073420420289
0.0279452186077833
0.0301384720951318
0.032717540860176
0.0356697775423526
0.0389234274625778
0.0423679165542125
0.045872762799263
0.0492990687489509
0.0524913445115089
0.0552388355135917
0.0572183653712272
0.0579531751573085
0.0568218752741813
0.0531364828348159
0.0462824031710624
0.0358804315328598
0.0219216812402009
0.0048412978649139
-0.0144890770316123
-0.0348531641066074
-0.0548448376357555
-0.0730490982532501
-0.0882128477096557
-0.0993782579898834
-0.1059658974409103
-0.1078077778220176
-0.1051336228847503
-0.0985125452280044
-0.0887595638632774
-0.0768240615725517
-0.0636793076992034
-0.0502322241663932
-0.0372607745230197
-0.0253699570894241
-0.0149621274322271
-0.006229099817574
0.0008306880481541
0.0063766278326511
0.0106806829571723
0.0140785463154315
0.0169219300150871
0.0195370335131883
0.0221933163702487
0.025083377957344
0.0283138006925582
0.0319080166518688
0.0358201079070568
0.0399522893130779
0.0441704988479614
0.0483222529292106
0.0522562339901924
0.0558279752731323
0.0588732622563838
0.0611488595604896
0.0622711367905139
0.0616990812122821
0.0587908178567886
0.0529282242059707
0.0436759069561958
0.0309293139725923
0.0150090754032135
-0.0033274386078119
-0.0229598395526409
-0.0425451919436454
-0.0606947876513004
-0.0761481374502182
-0.0879123359918594
-0.0953527614474296
-0.0982313603162765
-0.0966955870389938
-0.0912265032529831
-0.0825590193271637
-0.0715884715318679
-0.0592724494636058
-0.0465345308184623
-0.0341809801757335
-0.0228412393480539
-0.0129368938505649
-0.0046765450388193
0.001927162753418
0.0070208557881414
0.0108630144968628
0.0137767670676112
0.0161060355603694
0.0181744005531072
0.0202513430267572
0.0225322116166353
0.0251317024230957
0.0280879810452461
0.0313743539154529
0.0349144041538238
0.0385987274348735
0.0423036068677902
0.0459117367863655
0.0493252202868461
0.0524447783827781
0.0551031120121479
0.0569869391620159
0.0576024577021598
0.0563128367066383
0.0524439066648483
0.0454364120960235
0.0350073091685771
0.0212715789675712
0.0047870399430394
-0.0134889129549264
-0.0323165580630302
-0.0503357499837875
-0.0662387162446975
-0.0789220929145813
-0.0875964313745498
-0.0918478295207023
-0.0916535332798957
-0.0873530432581901
-0.0795826241374015
-0.0691850781440734
-0.0571042783558368
-0.0442802459001541
-0.0315618067979812
-0.0196427106857299
-0.0090221539139747
9.397044777870178e-06
0.0073599442839622
0.0131064932793378
0.017457291483879
0.0207147374749183
0.0232353769242763
0.0253791064023971
0.027456410229206
0.0296932086348533
0.0322203636169433
0.0350815057754516
0.03825044631958
0.0416527688503265
0.0451889038085937
0.0487542748451232
0.0522499606013298
0.0555716417729854
0.0585647970438003
0.0609585270285606
0.0623178444802761
0.0620545335114002
0.0595094561576843
0.0540846437215805
0.0453909486532211
0.0333800688385963
0.0184241309762001
0.0013148474972695
-0.0168194808065891
-0.0346596911549568
-0.0508692637085914
-0.0642597079277038
-0.0739241540431976
-0.0793227404356002
-0.0803116559982299
-0.0771210342645645
-0.0702938288450241
-0.0605989508330822
-0.0489324778318405
-0.0362230166792869
-0.023352064192295
-0.0110867135226726
-2.188049256801605e-05
0.009458084590733
0.0171874668449163
0.0231992751359939
0.0276877358555793
0.0309598203748464
0.0333808176219463
0.0353237353265285
0.0371268279850482
0.0390577428042888
0.0412920266389846
0.0439130067825317
0.0469245836138725
0.0502644106745719
0.0538173355162143
0.0574363656342029
0.0609648451209068
0.0642362385988235
0.0670362785458564
0.0690447315573692
0.0697955042123794
0.0686867162585258
0.0650539472699165
0.0583027340471744
0.0480718649923801
0.0343737453222274
0.0176637135446071
-0.0011779367923736
-0.0209425017237663
-0.040249653160572
-0.0577341094613075
-0.0722173899412155
-0.0828305333852768
-0.0890806093811988
-0.0908664166927337
-0.0884510353207588
-0.0824005678296089
-0.0734981149435043
-0.0626441091299057
-0.0507594645023345
-0.0387051925063133
-0.0272186622023582
-0.0168625265359878
-0.0079916808754205
-0.0007467403193004
0.0049217422492802
0.0092045618221163
0.0123783620074391
0.0147579908370971
0.0166605729609727
0.0183785054832696
0.0201550628989934
0.0221629235893487
0.0244961623102426
0.027178319171071
0.0301774777472019
0.0334220826625824
0.0368139892816543
0.0402356870472431
0.0435466021299362
0.0465554371476173
0.048965498805046
0.0503231734037399
0.0500147640705108
0.0473357997834682
0.0416244640946388
0.0324266068637371
0.0196465775370597
0.0036375410854816
-0.0147962309420108
-0.0344834513962268
-0.0540345050394535
-0.0720226615667343
-0.0871621444821357
-0.0984521359205246
-0.1052686274051666
-0.1074001044034957
-0.1050337329506874
-0.0987035930156707
-0.0892066061496734
-0.0774948149919509
-0.0645627900958061
-0.0513478852808475
-0.0386529192328453
-0.0270940996706485
-0.0170735288411378
-0.0087745338678359
-0.0021772226318717
0.0029070121236145
0.0067839529365301
0.0098184626549482
0.0123834498226642
0.0148202143609523
0.0174053627997636
0.020324882119894
0.0236650481820106
0.0274216160178184
0.031518816947937
0.0358340814709663
0.0402255877852439
0.044553518295288
0.0486829578876495
0.0524559095501899
0.055630687624216
0.0578158758580684
0.0584460534155368
0.0568320751190185
0.0522858053445816
0.0442888587713241
0.0326519683003425
0.0176152680069208
-0.0001296016853302
-0.0194948837161064
-0.0391220338642597
-0.0575560256838798
-0.0734336227178573
-0.0856466591358184
-0.0934542790055275
-0.0965380445122718
-0.0950008109211921
-0.08931365609169
-0.0802263393998146
-0.0686623603105545
-0.0556130111217498
-0.0420388653874397
-0.0287878699600696
-0.016537170857191
-0.0057583283632993
0.0032956469804048
0.0105803478509187
0.0162298642098903
0.0205142274498939
0.0237897392362356
0.026446595788002
0.0288598965853452
0.0313473753631114
0.0341390967369079
0.0373655147850513
0.0410613268613815
0.0451818034052848
0.0496301762759685
0.0542832165956497
0.0589988157153129
0.0636019334197044
0.0678485929965972
0.0713720768690109
0.0736415535211563
0.0739765986800193
0.0716359466314315
0.0659635663032531
0.0565519332885742
0.0433785244822502
0.0268811173737049
0.0079485606402158
-0.01217373739928
-0.0320377424359321
-0.0501739270985126
-0.065270222723484
-0.0763195008039474
-0.0827121511101722
-0.0842680782079696
-0.0812191739678382
-0.0741528645157814
-0.0639225021004676
-0.0515330620110034
-0.0380187928676605
-0.0243364758789539
-0.0112872347235679
0.0005366504192352
0.0107776802033185
0.0193063095211982
0.0261884294450283
0.0316379182040691
0.0359595082700252
0.039490632712841
0.042554847896099
0.0454310849308967
0.048334639519453
0.0514072440564632
0.0547166839241981
0.058264497667551
0.0619978308677673
0.0658253952860832
0.0696357786655426
0.0733005851507186
0.0766393020749092
0.0793509408831596
0.0809551402926445
0.0807888656854629
0.0780770406126976
0.0720713958144187
0.0622326992452144
0.0484050847589969
0.0309229642152786
0.0106198200955986
-0.0112557196989655
-0.0331951677799224
-0.053629070520401
-0.0711285471916198
-0.0845683217048645
-0.0932314172387123
-0.0968531817197799
-0.0956083461642265
-0.0900464802980423
-0.080989584326744
-0.0694210529327392
-0.0563859716057777
-0.0428969040513038
-0.0298434607684612
-0.0179229341447353
-0.0076022446155548
0.0008917812956497
0.0075562470592558
0.0125743374228477
0.0162633620202541
0.0190154761075973
0.0212395936250686
0.0233117640018463
0.0255364887416362
0.0281233116984367
0.0311828106641769
0.0347334705293178
0.0387092120945453
0.0429735742509365
0.0473454669117927
0.0516194142401218
0.0555556826293468
0.0588327534496784
0.0609850883483886
0.0613742358982563
0.0592351108789444
0.0538022965192794
0.044486328959465
0.0310501921921968
0.0137321799993515
-0.006718136370182
-0.0290975347161293
-0.0518936663866043
-0.073489062488079
-0.0923720002174377
-0.1073075756430625
-0.1174504607915878
-0.1223995611071586
-0.1222012564539909
-0.1173055544495582
-0.108481615781784
-0.0967076867818832
-0.0830539539456367
-0.0685729682445526
-0.0542074814438819
-0.0407203696668148
-0.0286493934690952
-0.0182885862886905
-0.0097011178731918
-0.0027612834237515
0.0027914755046367
0.0072990786284208
0.0111334323883056
0.0146497944369912
0.0181476343423128
0.0218421500176191
0.0258519351482391
0.0302038807421922
0.0348511636257171
0.0396983586251735
0.0446261428296566
0.0495090410113334
0.0542185865342617
0.0585978962481021
0.0623967796564102
0.0651894211769104
0.066335342824459
0.0650326460599899
0.0604602210223674
0.0519678629934787
0.039261944591999
0.0225368700921535
0.002518180757761
-0.0195969119668006
-0.0422898083925247
-0.0639215111732482
-0.0829369872808456
-0.0980395972728729
-0.1083158701658248
-0.1133024767041206
-0.1129999384284019
-0.1078379601240158
-0.0985927358269691
-0.0862697809934616
-0.0719766616821289
-0.0568049252033233
-0.0417319759726524
-0.0275480560958385
-0.0148120131343603
-0.0038370434194803
0.0052962051704525
0.0127030480653047
0.0186409205198287
0.0234497524797916
0.0275000166147947
0.0311528015881776
0.0347245596349239
0.0384540483355522
0.0424825921654701
0.0468558967113494
0.0515407398343086
0.0564462877810001
0.0614457800984382
0.0663975030183792
0.0711633190512657
0.0756140276789665
0.0796006992459297
0.0828856751322746
0.0850634276866912
0.0855236053466796
0.0834981724619865
0.0781985223293304
0.0690027847886085
0.0556340739130973
0.0382866002619266
0.0176729746162891
-0.005024978891015
