bvp
-0.0209133606404066
-0.0146227730438113
-0.0087092984467744
-0.0034556984901428
0.000963304657489
0.0044904751703143
0.0071776378899812
0.0091632539406418
0.010641548782587
0.0118294572457671
0.0129378642886877
0.0141490772366523
0.0155999464914202
0.0173715986311435
0.0194873102009296
0.0219175852835178
0.0245867986232042
0.0273780040442943
0.0301368907094001
0.0326695516705513
0.034731138497591
0.0360198207199573
0.0361941009759902
0.0349171608686447
0.0319194234907627
0.0270648784935474
0.0204035565257072
0.0121942367404699
0.0028906732331961
-0.0069041852839291
-0.0165073182433843
-0.0252395123243331
-0.0325098000466823
-0.0378810167312622
-0.0411039181053638
-0.042119912803173
-0.0410415083169937
-0.0381217449903488
-0.0337167903780937
-0.0282415952533483
-0.0221250504255294
-0.0157723482698202
-0.0095357270911335
-0.003693270497024
0.0015630712732672
0.0061301114037632
0.0099880965426564
0.0131888557225465
0.015835877507925
0.0180559381842613
0.0199702680110931
0.0216751843690872
0.0232349671423435
0.024684090167284
0.0260355304926633
0.0272926837205886
0.028460893779993
0.02955212444067
0.0305743850767612
0.0315012820065021
0.0322332791984081
0.0325779356062412
0.0322729684412479
0.0310528688132762
0.0287251230329275
0.0252078678458929
0.0205188002437353
0.0147533435374498
0.0080848829820752
0.0007792930118739
-0.0067986547946929
-0.0141964331269264
-0.0209113750606775
-0.0264600329101085
-0.0304550603032112
-0.0326575562357902
-0.0330003537237644
-0.0315925069153308
-0.0287064053118228
-0.0247417893260717
-0.0201692450791597
-0.0154677685350179
-0.0110671073198318
-0.0072980015538632
-0.0043558226898312
-0.002285762457177
-0.0009945617057383
-0.0002859560772776
9.141489863395692e-05
0.0003966079093515
0.0008569117635488
0.0016387645155191
0.0028319135308265
0.004450567997992
0.0064501073211431
0.0087507534772157
0.0112571120262146
0.01386633887887
0.0164661668241024
0.018925704061985
0.0210781749337911
0.0227026771754026
0.023524135351181
0.0232447125017642
0.021598957479
0.0184128135442733
0.0136526506394147
0.0074567589908838
0.0001401100307703
-0.0078309448435902
-0.015886802226305
-0.0234195105731487
-0.0298610664904117
-0.03476083278656
-0.0378388985991478
-0.0390039198100566
-0.0383429676294326
-0.0360950790345668
-0.0326135419309139
-0.0283193588256835
-0.0236511249095201
-0.0190174803137779
-0.0147567447274923
-0.011108111590147
-0.0081982798874378
-0.0060440651141107
-0.0045681567862629
-0.0036234552972018
-0.0030224090442061
-0.0025667608715593
-0.0020714756101369
-0.0013811071403324
-0.0003798194229602
0.0010032728314399
0.002792112994939
0.0049663376994431
0.0074669928289949
0.0101981870830059
0.0130187291651964
0.0157254748046398
0.0180414468050003
0.0196269638836383
0.0201233681291341
0.0192213431000709
0.0167301036417484
0.0126266730949282
0.0070799831300973
0.0004468029364943
-0.0067655052989721
-0.0139651549980044
-0.0205568708479404
-0.0260175094008445
-0.0299505125731229
-0.0321169160306453
-0.0324460305273532
-0.0310268178582191
-0.0280829351395368
-0.0239362586289644
-0.0189631897956132
-0.0135511960834264
-0.0080654695630073
-0.0028262678533792
0.00191175728105
0.0059799449518322
0.0093075726181268
0.011918282136321
0.0139113860204815
0.0154348853975534
0.0166566669940948
0.0177368428558111
0.0188042037189006
0.0199414882808923
0.0211827736347913
0.0225214231759309
0.023924758657813
0.0253485850989818
0.0267378259450197
0.0280057229101657
0.029003957286477
0.0295086167752742
0.0292389206588268
0.027905223891139
0.0252706054598093
0.0212110895663499
0.0157610960304737
0.0091320229694247
0.0016991076990962
-0.0060397572815418
-0.0135256564244627
-0.0202102474868297
-0.0256216712296009
-0.029409535229206
-0.0313702449202537
-0.0314625427126884
-0.0298085808753967
-0.026672625914216
-0.02242162078619
-0.0174756459891796
-0.0122567070648074
-0.0071457363665103
-0.0024526256602257
0.0016021630726754
0.0048946444876492
0.0073932316154241
0.0091480184346437
0.0102762840688228
0.0109439771622419
0.0113438442349433
0.0116697940975427
0.0120870359241962
0.0127069195732474
0.0135788656771183
0.0146985445171594
0.0160234365612268
0.0174896456301212
0.019019890576601
0.020512718707323
0.0218209270387887
0.0227385126054286
0.0230052731931209
0.0223321020603179
0.020449835807085
0.0171732250601053
0.0124596562236547
0.0064403805881738
-0.0005861092358827
-0.0081891352310776
-0.015855386853218
-0.023047586902976
-0.0292667858302593
-0.0341076143085956
-0.0372977033257484
-0.0387184396386146
-0.0384062454104423
-0.0365349985659122
-0.0333850942552089
-0.0293053984642028
-0.024671446532011
-0.0198450367897748
-0.0151411462575197
-0.0108070774003863
-0.0070151658728718
-0.0038609090261161
-0.0013620499521493
0.0005341293290257
0.0019340305589139
0.0029783155769109
0.0038212826475501
0.0046099266037344
0.0054683866910636
0.0064887981861829
0.0077254502102732
0.0091924844309687
0.0108668133616447
0.0126973893493413
0.0146161327138543
0.0165356211364269
0.0183269307017326
0.0197961367666721
0.020684415474534
0.0206979848444461
0.0195582434535026
0.0170604810118675
0.0131293199956417
0.0078564370051026
0.0015077358111739
-0.0055052661336958
-0.0126811321824789
-0.019492071121931
-0.0254427716135978
-0.0301219187676906
-0.0332410670816898
-0.0346569865942001
-0.0343796573579311
-0.032562531530857
-0.0294722262769937
-0.0254483073949813
-0.0208646077662706
-0.016092637553811
-0.0114663820713758
-0.0072535299696028
-0.0036387988366186
-0.0007191692711785
0.0014935471117496
0.0030639758333563
0.0041165063157677
0.0048144357278943
0.0053393365815281
0.0058667501434683
0.0065397825092077
0.0074528348632156
0.0086491759866476
0.0101260747760534
0.0118435267359018
0.0137357665225863
0.0157245472073555
0.0177314933389425
0.0196802169084548
0.0214784704148769
0.0229892581701278
0.0240145307034254
0.0243081077933311
0.0236176326870918
0.0217400062829256
0.0185701176524162
0.0141328684985637
0.0085969977080821
0.0022671152837574
-0.0044479118660092
-0.0110830534249544
-0.0171710979193449
-0.022294595837593
-0.0261291749775409
-0.0284726601094007
-0.0292563326656818
-0.0285398084670305
-0.0264954324811697
-0.0233841463923454
-0.0195238105952739
-0.0152543922886252
-0.0109056523069739
-0.0067708222195506
-0.0030833699274808
2.9637012630701065e-06
0.0024237432517111
0.0042003309354186
0.0054245791397988
0.0062353890389204
0.00679452996701
0.0072650825604796
0.0077921166084706
0.0084874499589204
0.0094194738194346
0.0106093175709247
0.0120369577780365
0.0136537291109561
0.0153909157961606
0.0171620473265647
0.0188649427145719
0.0203812140971422
0.0215655546635389
0.0222346428781747
0.0221742261201143
0.0211666207760572
0.0190302804112434
0.0156643316149711
0.0110874008387327
0.0054583232849836
-0.0009262778330594
-0.0076581588946282
-0.0142645230516791
-0.020263984799385
-0.0252236127853393
-0.0288144554942846
-0.0308492444455623
-0.0312881767749786
-0.0302228573709726
-0.0278534069657325
-0.024460906162858
-0.0203746501356363
-0.0159385837614536
-0.0114799505099654
-0.0072802496142685
-0.0035510347224771
-0.0004205936565995
0.002066541230306
0.003943558782339
0.005311288870871
0.0063170827925205
0.0071232374757528
0.0078777754679322
0.0086961407214403
0.0096535747870802
0.0107855787500739
0.0120933046564459
0.0135509744286537
0.0151142328977584
0.0167286582291126
0.0183360241353511
0.0198769755661487
0.0212880242615938
0.0224877372384071
0.0233564134687185
0.0237260032445192
0.0233888868242502
0.0221240650862455
0.0197416506707668
0.0161377340555191
0.0113400127738714
0.0055298907682299
-0.0009647969272918
-0.0077070980332791
-0.0142093114554882
-0.0199962258338928
-0.0246617700904607
-0.0279139447957277
-0.0296021644026041
-0.0297229383140802
-0.0284055527299642
-0.0258830301463603
-0.0224580690264701
-0.0184713210910558
-0.014268135651946
-0.0101623553782701
-0.0064066960476338
-0.0031758090481162
-0.0005597691051661
0.0014335080049932
0.0028664134442806
0.00385392899625
0.0045437244698405
0.0050937375053763
0.0056499443016946
0.0063306218944489
0.0072194500826299
0.0083640860393643
0.0097747193649411
0.011422261595726
0.0132422521710395
0.0151458997279405
0.0170347895473241
0.0188170745968818
0.0204194243997335
0.0217861495912075
0.0228622462600469
0.0235664341598749
0.0237689763307571
0.0232900641858577
0.0219244230538606
0.0194863528013229
0.0158639010041952
0.0110664945095777
0.0052493228577077
-0.0012930380180478
-0.0081588514149189
-0.0148880016058683
-0.021017912775278
-0.0261371750384569
-0.029930654913187
-0.0322106853127479
-0.0329284220933914
-0.0321667566895484
-0.0301210172474384
-0.0270695220679044
-0.0233362521976232
-0.0192527920007705
-0.0151258651167154
-0.0112126972526311
-0.0077062845230102
-0.0047308392822742
-0.0023436634801328
-0.0005405857227742
0.0007367937359958
0.0015932202804833
0.0021671326830983
0.0026099756360054
0.0030644400976598
0.0036494280211627
0.004450662061572
0.0055147521197795
0.0068485476076602
0.0084244376048445
0.0101904850453138
0.0120821725577116
0.01402950566262
0.0159590169787406
0.0177959538996219
0.0194662101566791
0.0208906736224889
0.0219683311879634
0.0225568991154432
0.022467203438282
0.0214826818555593
0.0194022953510284
0.0160921681672334
0.011529435403645
0.0058295466005802
-0.0007477800827473
-0.0078165810555219
-0.0149038229137659
-0.0215059258043766
-0.0271547101438045
-0.0314758755266666
-0.0342266634106636
-0.0353114530444145
-0.0347797088325023
-0.0328090265393257
-0.0296760089695453
-0.0257207714021205
-0.0213099159300327
-0.0167999900877475
-0.0125043895095586
-0.0086686071008443
-0.0054563372395932
-0.0029437467455863
-0.0011202874593436
9.888969361782074e-05
0.0008473028428852
0.001280091702938
0.0015569869428873
0.0018318020738661
0.0022404477931559
0.002888040151447
0.0038392744027078
0.0051132761873304
0.0066848276183009
0.0084928143769502
0.0104528395459055
0.0124720847234129
0.0144636081531643
0.0163543839007616
0.018079999834299
0.0195582285523414
0.0206518284976482
0.0211517009884119
0.0207970328629016
0.0193240921944379
0.0165288671851158
0.0123279951512813
0.0068019540049135
0.0002082763239741
-0.0070397891104221
-0.0144241210073232
-0.0213891249150037
-0.0274115912616252
-0.0320618003606796
-0.0350461974740028
-0.0362269170582294
-0.0356232896447181
-0.0334023013710975
-0.0298562124371528
-0.0253625623881816
-0.0203331895172595
-0.0151660265401005
-0.0102072283625602
-0.0057260114699602
-0.0019020196050405
0.0011787433177232
0.0035205101594328
0.0052043600007891
0.006367839872837
0.0071838935837149
0.0078395269811153
0.008513861335814
0.0093570873141288
0.0104717593640089
0.0119047900661826
0.0136542040854692
0.0156797636300325
0.0179102811962366
0.0202532224357128
0.0226096585392951
0.0248886346817016
0.0270128212869167
0.0289068929851055
0.0304670818150043
0.0315302684903144
0.0318660363554954
0.0311988033354282
0.0292557664215564
0.0258286166936159
0.0208324212580919
0.0143473846837878
0.0066330358386039
-0.0018862318247556
-0.0106605719774961
-0.0190776735544204
-0.0265412516891956
-0.0325447991490364
-0.0367229878902435
-0.0388780869543552
-0.0389855653047561
-0.0371838398277759
-0.0337528623640537
-0.0290791373699903
-0.0236049368977546
-0.0177754648029804
-0.0120003968477249
-0.0066266153007745
-0.0019146483391523
0.0019772555679082
0.0049976557493209
0.0071946699172258
0.0086974687874317
0.009689955972135
0.0103815188631415
0.0109798768535256
0.0116691961884498
0.012593587860465
0.013845769688487
0.0154637712985277
0.0174376387149095
0.0197182148694992
0.0222224425524473
0.0248425565659999
0.0274618268013
0.0299676731228828
0.0322492606937885
0.034173272550106
0.0355518087744712
0.0361263863742351
0.0355811640620231
0.033588632941246
0.0298811197280883
0.0243255514651536
0.0169796291738748
0.0081197256222367
-0.001768528483808
-0.0120441652834415
-0.0219985023140907
-0.0309472810477018
-0.0383045747876167
-0.043636105954647
-0.0466925650835037
-0.0474196560680866
-0.0459474995732307
-0.0425642989575862
-0.0376764088869094
-0.0317599661648273
-0.0253127478063106
-0.0188099555671215
-0.0126622691750526
-0.007178071886301
-0.0025403723120689
0.0011901948601007
0.0040504205971956
0.0061471899971365
0.0076387338340282
0.0087175611406564
0.0095893237739801
0.0104512805119156
0.0114740123972296
0.0127880973741412
0.0144754536449909
0.0165634397417306
0.01902443356812
0.0217850692570209
0.0247407499700784
0.0277695804834365
0.0307464152574539
0.0335472747683525
0.0360284298658371
0.0379899851977825
0.0391532033681869
0.0391712300479412
0.037674494087696
0.0343406349420547
0.0289748031646013
0.021580995991826
0.0124020595103502
0.0019143853569403
-0.0092209978029131
-0.0202371999621391
-0.0303528532385826
-0.0388612523674964
-0.0452061407268047
-0.0490374863147735
-0.0502428412437438
-0.0489469766616821
-0.045477844774723
-0.0403102785348892
-0.0340012311935424
-0.0271248407661914
-0.0202159360051155
-0.0137292332947254
-0.0080120842903852
-0.0032854285091161
0.0003644092939794
0.0029785865917801
0.0047044493257999
0.0057652592658996
0.0064271437004208
0.0069634905084967
0.0076177841983735
0.0085762701928615
0.0099557526409626
0.0118006318807601
0.0140880309045314
0.0167434383183717
0.0196622554212808
0.0227267630398273
0.0258139744400978
0.0287962574511766
0.0315295830368995
0.0338249839842319
0.0354173369705677
0.0359588898718357
0.0350563786923885
0.032343927770853
0.0275668799877166
0.0206559151411056
0.0117769632488489
0.0013446062803268
-0.0100089143961668
-0.0215058252215385
-0.0323189944028854
-0.0416721999645233
-0.0489275269210338
-0.0536480136215686
-0.0556315034627914
-0.0549163557589054
-0.0517615117132663
-0.0466030910611152
-0.0399920828640461
-0.0325277633965015
-0.0248022731393575
-0.0173540245741605
-0.0106219993904232
-0.0049099549651145
-0.0003718093503266
0.0029846443794667
0.0052804872393608
0.0067363483831286
0.0076329223811626
0.0082663958892226
0.0089106317609548
0.009792722761631
0.0110763423144817
0.0128516517579555
0.015136107802391
0.0178824998438358
0.020989567041397
0.0243179872632026
0.0277091283351182
0.0309937186539173
0.0339802987873554
0.0364271327853202
0.0380182042717933
0.0383683778345584
0.037068672478199
0.0337640270590782
0.0282426141202449
0.0205098241567611
0.0108257746323943
-0.0003000507131218
-0.0121534802019596
-0.0238961093127727
-0.0346726030111312
-0.0437211394309997
-0.050459861755371
-0.0545360408723354
-0.0558403208851814
-0.054493710398674
-0.0508136637508869
-0.0452663861215114
-0.0384112447500228
-0.0308409873396158
-0.023124286904931
-0.0157578401267528
-0.0091291284188628
-0.003490193048492
0.0010530909057706
0.0045331018045544
0.0070939515717327
0.0089522004127502
0.010357528924942
0.0115609727799892
0.0127895222976803
0.0142268799245357
0.0160003304481506
0.0181728228926658
0.0207431837916374
0.023656552657485
0.0268208514899015
0.0301218479871749
0.0334341339766979
0.0366284847259521
0.0395665541291236
0.0420707687735557
0.0438821502029895
0.0446427762508392
0.0439274832606315
0.0413192883133888
0.0365047231316566
0.029362104833126
0.0200227163732051
0.0088919308036565
-0.0033779237419366
-0.0159627553075552
-0.0279741454869508
-0.038570649921894
-0.0470517203211784
-0.0529261082410812
-0.0559487976133823
-0.05612663179636
-0.0536987259984016
-0.0490930043160915
-0.0428633317351341
-0.0356216058135032
-0.0279759392142295
-0.0204765778034925
-0.0135709196329116
-0.0075730588287115
-0.0026510264724493
0.0011706603690981
0.0039940308779478
0.0060150306671857
0.0074827782809734
0.0086637958884239
0.009813223965466
0.0111471619457006
0.0128189725801348
0.0149075770750641
0.0174185521900653
0.0202945191413164
0.0234324503690004
0.026704728603363
0.0299781896173954
0.0331274569034576
0.0360418260097503
0.0386191606521606
0.0407387986779212
0.0422218292951583
0.0428038164973259
0.0421439483761787
0.0398778915405273
0.0356985703110694
0.0294385217130184
0.0211364738643169
0.0110750813037157
-0.0002244655042886
-0.0120554473251104
-0.0236140601336956
-0.0341005586087703
-0.0428135357797145
-0.0492250174283981
-0.0530276037752628
-0.0541498810052871
-0.0527434423565864
-0.0491483062505722
-0.0438414141535759
-0.037375196814537
-0.0303195491433143
-0.0232147015631198
-0.0165302269160747
-0.010628031566739
-0.0057359361089766
-0.0019390806555747
0.0008095502853393
0.0026655904948711
0.0038611209020018
0.0046656094491481
0.0053467378020286
0.0061383061110973
0.0072188461199402
0.0087014641612768
0.010633354075253
0.0130025688558816
0.0157458521425724
0.018754418939352
0.021885722875595
0.024985384196043
0.027907371520996
0.0305158831179142
0.0326631516218185
0.034155935049057
0.0347342900931835
0.0340814441442489
0.0318707600235939
0.0278403703123331
0.021873228251934
0.0140574946999549
0.0047102272510528
-0.0056395586580038
-0.0163084361702203
-0.0265500918030738
-0.0356546454131603
-0.0430290587246418
-0.0482514202594757
-0.0511004477739334
-0.0515617877244949
-0.0498145930469036
-0.0462014079093933
-0.0411824285984039
-0.0352783650159835
-0.0290125273168087
-0.0228616129606962
-0.0172169022262096
-0.0123536419123411
-0.0084130559116601
-0.0054076425731182
-0.0032476875931024
-0.0017718914896249
-0.0007736710831522
-2.7844682335853577e-05
0.0006807446479797
0.0015331637114286
0.0026620514690876
0.0041453624144196
0.0060057630762457
0.0082157962024211
0.0107095511630177
0.0133979953825473
0.016182105988264
0.0189635381102561
0.0216512344777584
0.0241504609584808
0.0263297446072101
0.0279865749180316
0.0288372859358787
0.0285413488745689
0.0267565418034791
0.023214491084218
0.0177991930395364
0.0106041170656681
0.0019488260149955
-0.0076476670801639
-0.0175283625721931
-0.0269810054451227
-0.0353257060050964
-0.0419917255640029
-0.0465731397271156
-0.0488611385226249
-0.0488528273999691
-0.0467356145381927
-0.0428509339690208
-0.0376455150544643
-0.0316182672977447
-0.0252683814615011
-0.0190474987030029
-0.0133195295929908
-0.0083341337740421
-0.0042169704101979
-0.0009757406078279
0.0014797339681535
0.0033092212397605
0.0047150272876024
0.0059182243421673
0.0071310363709926
0.0085259871557354
0.0102153187617659
0.012245824560523
0.0146034490317106
0.0172260366380214
0.0200210101902484
0.0228816643357276
0.0257025305181741
0.0283929482102394
0.0308796390891075
0.0330946817994117
0.0349526815116405
0.0363212488591671
0.0369992777705192
0.0367224961519241
0.035199336707592
0.0321677438914775
0.0274637769907712
0.0210868008434772
0.0132371205836534
0.0043116994202136
-0.0051366901025176
-0.0144660770893096
-0.0230284370481967
-0.0302533358335495
-0.0357115343213081
-0.0391481779515743
-0.0404903814196586
-0.0398375689983367
-0.0374350622296333
-0.0336335375905036
-0.028846962377429
-0.0235148519277572
-0.0180624667555093
-0.012859602458775
-0.0081883799284696
-0.004226878285408
-0.0010475032031536
0.0013752084923908
0.0031491098925471
0.0044395900331437
0.0054386984556913
0.0063370754942297
0.0073044579476118
0.0084768636152148
0.0099462606012821
0.0117537295445799
0.0138894449919462
0.0162986572831869
0.0188909620046615
0.0215528197586536
0.0241654347628355
0.0266241952776908
0.0288475267589092
0.0307656619697809
0.0322911292314529
0.0332858934998512
0.0335464216768741
0.0328193940222263
0.0308449920266866
0.0274162609130144
0.0224425867199897
0.0160014312714338
0.0083583146333694
-5.543418228626251e-05
-0.0086978450417518
-0.0169864408671855
-0.0243692509829998
-0.0303846523165702
-0.0347037613391876
-0.0371560454368591
-0.0377350971102714
-0.0365825891494751
-0.0339569225907325
-0.0301949437707662
-0.0256742238998413
-0.0207788702100515
-0.0158656425774097
-0.0112316571176052
-0.0070940288715064
-0.0035852990113198
-0.0007557917851954
0.001420963439159
0.0030368599109351
0.0042315376922488
0.0051690214313566
0.00601277500391
0.0069063315168023
0.0079619530588388
0.009254902601242
0.0108207501471042
0.012655084952712
0.014718004502356
0.016944421455264
0.0192556772381067
0.0215673092752695
0.0237927194684743
0.0258475858718156
0.0276542883366346
0.0291338190436363
0.0301803089678287
0.0306354705244302
0.030284771695733
0.0288829393684864
0.0262037254869937
0.0221019648015499
0.0165702924132347
0.0097712650895118
0.0020359149202704
-0.0061666797846555
-0.014283113181591
-0.0217491630464792
-0.0280681438744068
-0.0328700318932533
-0.0359393991529941
-0.037218265235424
-0.036794938147068
-0.0348824374377727
-0.0317863188683986
-0.0278671234846115
-0.0235029235482215
-0.0190540440380573
-0.0148332398384809
-0.0110836029052734
-0.0079640261828899
-0.005541774444282
-0.0037933532148599
-0.0026189005002379
-0.0018702032975852
-0.0013791155070066
-0.0009769403841346
-0.0005098315887153
0.0001449373085051
0.0010668468894436
0.00229083141312
0.0038137435913085
0.005600007250905
0.0075863413512706
0.0096917618066072
0.0118310851976275
0.0139248175546526
0.0159047953784465
0.0177125744521617
0.0192791819572448
0.0204892270267009
0.0211567506194114
0.0210345946252346
0.0198550820350646
0.0173890516161918
0.0135077275335788
0.0082308491691946
0.0017500463873147
-0.0055776424705982
-0.013267433270812
-0.0207689255475997
-0.0275373980402946
-0.0330984629690647
-0.03709676861763
-0.0393256694078445
-0.0397395230829715
-0.0384513363242149
-0.0357119366526603
-0.0318686142563819
-0.0273146424442529
-0.0224444344639778
-0.0176179446280002
-0.0131312133744359
-0.0091952588409185
-0.0059284004382789
-0.0033604176715016
-0.0014425441622734
-6.188079714775085e-05
0.0009387312456965
0.0017383792437613
0.0025165718980133
0.0034312801435589
0.0045972387306392
0.0060732457786798
0.0078638792037963
0.0099293794482946
0.0121971610933542
0.0145751312375068
0.0169670507311821
0.0192856341600418
0.0214601140469312
0.0234388299286365
0.0251840073615312
0.0266524516046047
0.0277642607688903
0.0283772964030504
0.0282871648669242
0.0272547658532857
0.025052286684513
0.0215189605951309
0.0166144520044326
0.0104555608704686
0.0033255671150982
-0.0043488019146025
-0.0120485434308648
-0.0192291643470525
-0.0253909267485141
-0.0301397759467363
-0.0332248657941818
-0.0345505625009536
-0.0341708660125732
-0.0322685539722442
-0.0291207507252693
-0.0250622443854808
-0.0204557199031114
-0.0156641788780689
-0.01101949904114
-0.006790810264647
-0.0031619714573025
-0.0002238228917121
0.0020216582342982
0.0036505786702036
0.0048005748540163
0.0056465379893779
0.0063712550327181
0.0071403039619326
0.0080857817083597
0.00929681584239
0.0108170453459024
0.0126457111909985
0.014738873578608
0.0170172490179538
0.0193820968270301
0.0217320993542671
0.0239774771034717
0.0260479561984539
0.0278931502252817
0.0294768288731575
0.0307614132761955
0.0316804125905036
0.0321097522974014
0.0318568646907806
0.0306802876293659
0.028338860720396
0.0246566589921712
0.0195819586515426
0.0132224913686513
0.0058504929766058
-0.0021211900748312
-0.0101855397224426
-0.0178018305450677
-0.0244620386511087
-0.029751656576991
-0.0333915054798126
-0.0352557674050331
-0.0353699550032615
-0.0338937267661094
-0.0310938712209463
-0.027309376746416
-0.0229090899229049
-0.0182504206895828
-0.0136501723900437
-0.0093693723902106
-0.005604151636362
-0.0024762172251939
-2.755224704742432e-05
0.001775030978024
0.0030285851098597
0.0038783932104706
0.0044969650916755
0.0050604809075593
0.0057265260256826
0.0066157910041511
0.0078013790771365
0.0093076210469007
0.011116967536509
0.0131807019934058
0.0154275381937623
0.0177682600915431
0.0201017223298549
0.0223266445100307
0.0243554897606372
0.0261213686317205
0.0275693070143461
0.0286294482648372
0.0291837453842163
0.0290495865046978
0.0279952455312013
0.0257827825844287
0.0222274903208017
0.0172593854367733
0.01096729375422
0.0036135553382337
-0.0043861465528607
-0.012516614049673
-0.0202316977083683
-0.0270188953727483
-0.0324556790292263
-0.0362511128187179
-0.0382645688951015
-0.0385047607123851
-0.0371153987944126
-0.0343504101037979
-0.0305424649268388
-0.0260671451687812
-0.0213051252067089
-0.0166078396141529
-0.0122677236795425
-0.0084929782897233
-0.0053956490010023
-0.0029982021078467
-0.0012511727400124
-5.2510760724544525e-05
0.0007365397177636
0.001277738250792
0.0017389853019267
0.002274892758578
0.0030113025568425
0.0040348065085709
0.0053859869949519
0.007060510572046
0.0090170949697494
0.0111859980970621
0.0134789571166038
0.0158033482730388
0.0180741623044013
0.0202136319130659
0.0221366919577121
0.0237277951091527
0.0248185023665428
0.0251813512295484
0.0245510600507259
0.0226695127785205
0.0193436592817306
0.0145040769129991
0.0082479091361165
0.0008519138209521
-0.0072476253844797
-0.015503266826272
-0.023324254900217
-0.0301510971039533
-0.0355232022702693
-0.0391283258795738
-0.0408275388181209
-0.0406559444963932
-0.0388027541339397
-0.0355754941701889
-0.0313557237386703
-0.0265542175620794
-0.0215710867196321
-0.0167619585990905
-0.0124096339568495
-0.0087038157507777
-0.0057342457585036
-0.0034994441084563
-0.0019224532879889
-0.0008640801534056
-0.0001412825658917
0.0004416815936565
0.0010616239160299
0.0018582511693239
0.0029276818968355
0.0043202564120292
0.0060419095680117
0.0080614304170012
0.0103216581046581
0.01274991966784
0.0152649329975247
0.017779666930437
0.0201974567025899
0.0223950557410717
0.0241968147456645
0.0253605246543884
0.0255897492170333
0.0245732571929693
0.0220470763742923
0.0178657695651054
0.0120600517839193
0.0048599853180348
-0.0033220006152987
-0.0119385411962866
-0.0203736945986747
-0.0280174575746059
-0.0343352369964122
-0.0389222837984561
-0.041538156569004
-0.0421199053525924
-0.0407734513282775
-0.0377437509596347
-0.0333755128085613
-0.0280780121684074
-0.0222911108285188
-0.0164449736475944
-0.0109162777662277
-0.0059911049902439
-0.0018442459404468
0.0014635361731052
0.0039756465703248
0.0058216517791152
0.0071913916617631
0.0083026112988591
0.0093692764639854
0.0105766411870718
0.0120649551972746
0.0139221707358956
0.0161794405430555
0.0188065059483051
0.0217182654887437
0.0247963108122348
0.0279133431613445
0.0309515167027711
0.0338081531226635
0.0363807640969753
0.0385343842208385
0.0400692410767078
0.0407110787928104
0.0401353240013122
0.0380217507481575
0.0341283902525901
0.0283677838742733
0.0208642706274986
0.011968445032835
0.0022195251658558
-0.007726265117526
-0.0171783175319433
-0.0254937931895256
-0.0321488715708255
-0.0367861539125442
-0.039234735071659
-0.0395102761685848
-0.0377988368272781
-0.0344229340553283
-0.0297945253551006
-0.0243658404797315
-0.0185845587402582
-0.0128538664430379
-0.0075005125254392
-0.0027579758316278
0.0012360997498035
0.004436663351953
0.0068850684911012
0.0086970021948218
0.0100430026650428
0.0111226513981819
0.0121372938156127
0.0132665112614631
0.0146505627781152
0.0163797624409198
0.0184899773448705
0.0209631100296974
0.0237337350845336
0.0267030112445354
0.0297572799026966
0.0327818691730499
0.0356616489589214
0.0382673107087612
0.0404294356703758
0.0419122129678726
0.0424086079001426
0.0415713600814342
0.0390767864882946
0.034702181816101
0.0283927377313375
0.0203014276921749
0.0107933580875396
0.0004144026897847
-0.0101668862625956
-0.0202336087822914
-0.0291031133383512
-0.0362076684832572
-0.0411593094468116
-0.0437844544649124
-0.0441213920712471
-0.0423892550170421
-0.0389451682567596
-0.0342373512685298
-0.0287541486322879
-0.0229731909930706
-0.017317246645689
-0.0121206026524305
-0.0076094097457826
-0.0038961553946137
-0.0009845485910773
0.0012169098481535
0.0028722577262669
0.0041868053376674
0.0053713032975792
0.0066112088970839
0.0080481525510549
0.0097719272598624
0.011819171719253
0.0141770644113421
0.016791446134448
0.0195788145065307
0.0224403645843267
0.025274634361267
0.0279864445328712
0.0304903648793697
0.0327021069824695
0.0345125831663608
0.0357540324330329
0.0361800044775009
0.0354781039059162
0.0333197489380836
0.0294359140098094
0.0236983560025692
0.0161804985255002
0.007177572697401
-0.002816398628056
-0.0131645472720265
-0.0231650192290544
-0.0321379080414772
-0.0395044684410095
-0.0448457673192024
-0.0479356124997139
-0.0487461537122726
-0.0474297553300857
-0.0442896261811256
-0.0397467166185379
-0.0342961326241493
-0.0284510143101215
-0.022685419768095
-0.0173877272754907
-0.0128304976969957
-0.0091583132743835
-0.0063917376101017
-0.0044432273134589
-0.0031412616372108
-0.0022623892873525
-0.0015685930848121
-0.0008404124528169
0.0001027565449476
0.0013929679989814
0.0031049149110913
0.0052476730197668
0.0077669415622949
0.0105592785403132
0.013492383994162
0.0164266340434551
0.0192316807806491
0.0217919573187828
0.0239948667585849
0.0257005169987678
0.0267099756747484
0.0267593637108802
0.0255523025989532
0.0228206496685743
0.0183961484581232
0.0122757591307163
0.0046585109084844
-0.0040620397776365
-0.0133431833237409
-0.022559106349945
-0.0310749039053916
-0.0383181758224964
-0.0438387542963027
-0.0473499670624733
-0.0487469211220741
-0.0481015816330909
-0.0456399358808994
-0.0417068600654602
-0.0367229543626308
-0.0311393719166517
-0.0253932625055313
-0.0198640991002321
-0.0148402256891131
-0.0105070956051349
-0.0069518098607659
-0.0041693174280226
-0.0020706346258521
-0.0005022026598453
0.000726455822587
0.0018154857680201
0.0029509803280234
0.0042860694229602
0.005928034428507
0.0079302582889795
0.0102894566953182
0.0129516208544373
0.0158271118998527
0.0188103802502155
0.0217950865626335
0.0246772021055221
0.0273473188281059
0.0296748355031013
0.0314860604703426
0.0325469747185707
0.0325692072510719
0.031250562518835
0.0283403173089027
0.0237061455845832
0.0173846464604139
0.0096055027097463
0.0007821358740329
-0.0085307341068983
-0.017701206728816
-0.02609384059906
-0.0331458747386932
-0.0384333878755569
-0.0417109504342079
-0.0429209545254707
-0.042178176343441
-0.0397362634539604
-0.0359459184110164
-0.0312126111239194
-0.0259551163762807
-0.0205666441470384
-0.0153841543942689
-0.0106679238379001
-0.0065878741443157
-0.0032159457914531
-0.0005274701397866
0.0015863333828747
0.0032917582429945
0.0047750994563102
0.0062095061875879
0.0077362419106066
0.0094561213627457
0.0114260306581854
0.0136600276455283
0.0161337777972221
0.0187906064093112
0.0215502139180898
0.024320513010025
0.0270092338323593
0.0295322705060243
0.0318193435668945
0.0338158644735813
0.0354712530970573
0.0367056503891944
0.0373699851334095
0.0372315309941768
0.0360022000968456
0.033399797976017
0.0292217433452606
0.0234117731451988
0.0161016266793012
0.0076172491535544
-0.0015505542978644
-0.0108054149895906
-0.0195232033729553
-0.027130814269185
-0.0331708565354347
-0.0373434163630008
-0.0395217388868331
-0.0397476181387901
-0.0382137410342693
-0.0352326221764087
-0.0311932750046253
-0.0265130922198295
-0.0215928107500076
-0.0167821459472179
-0.0123578757047653
-0.0085088741034269
-0.0053273593075573
-0.0028123492375016
-0.0008871655445545
0.0005756677128374
0.0017302858177572
0.0027379714883863
0.003752498421818
0.0049058576114475
0.0062916139140725
0.0079531436786055
0.0098846144974231
0.0120420884341001
0.0143570443615317
0.0167491380125284
0.0191386267542839
0.0214563962072134
0.0236471369862556
0.0256636552512645
0.0274516642093658
0.0289241448044776
0.0299344807863235
0.0302680730819702
0.0296632088720798
0.0278544537723064
0.0246276501566171
0.0198802500963211
0.0136741837486624
0.0062591070309281
-0.0019454965367913
-0.0104014817625284
-0.0185214206576347
-0.025743518024683
-0.0315995812416076
-0.0357630625367164
-0.0380725152790546
-0.0385328568518161
-0.0372972227632999
-0.0346333533525466
-0.0308821164071559
-0.0264205448329448
-0.0216331779956817
-0.0168821681290864
-0.0124733708798885
-0.0086280163377523
-0.0054692742414772
-0.0030242463108152
-0.0012355800718069
2.089934423565865e-05
0.000913240481168
0.0016273129731416
0.0023413295857608
0.0032047815620899
0.0043247304856777
0.0057608764618635
0.0075280582532286
0.0095995124429464
0.0119098639115691
0.0143653526902198
0.0168580822646617
0.0192774664610624
0.0215211361646652
0.0235004760324955
0.0251284074038267
0.0262908712029457
0.0268237739801406
0.0265164002776145
0.0251425988972187
0.0225093476474285
0.01851193793118
0.0131843434646725
0.0067272493615746
-0.0005039069801568
-0.0080479094758629
-0.0153996078297495
-0.0220666993409395
-0.0276201106607913
-0.0317369811236858
-0.0342289172112941
-0.0350519493222236
-0.0342999808490276
-0.0321845225989818
-0.0290045905858278
-0.0251107700169086
-0.0208671204745769
-0.0166154913604259
-0.0126439193263649
-0.0091611249372363
-0.0062863719649612
-0.0040572308935225
-0.0024427091702818
-0.0013543460518121
-0.0006599584594368
-0.0002020818646997
0.0001823322381824
0.0006426908075809
0.001298208720982
0.0022287454921752
0.0034729242324829
0.0050291083753108
0.0068595362827181
0.008899787440896
0.0110708894208073
0.0132893817499279
0.0154692949727177
0.0175106674432754
0.0192783623933792
0.0205843523144722
0.0211874693632125
0.0208178963512182
0.019224502146244
0.0162358172237873
0.011817374266684
0.0061041917651891
-0.0006021503359079
-0.0078670866787433
-0.0151762999594211
-0.0219976808875799
-0.0278420727699995
-0.0323138795793056
-0.0351484641432762
-0.0362358763813972
-0.035623837262392
-0.0334983244538307
-0.0301515907049179
-0.0259421505033969
-0.0212491545826196
-0.0164324529469013
-0.0118043003603816
-0.0076088933274149
-0.0040099341422319
-0.0010865028016269
0.0011665006168186
0.0028299810364842
0.0040413793176412
0.0049706022255122
0.0057932706549763
0.006663603708148
0.0076967356726527
0.008962876163423
0.0104884449392557
0.0122614949941635
0.0142395421862602
0.0163590274751186
0.0185462031513452
0.0207281615585088
0.0228404831141233
0.024821950122714
0.0265904404222965
0.0280115269124507
0.0288828164339065
0.0289500094950199
0.0279494188725948
0.0256601665169
0.0219568721950054
0.0168555248528718
0.0105392690747976
0.0033543135505169
-0.0042259395122528
-0.0116623025387525
-0.0184208676218986
-0.0240375082939863
-0.0281675327569246
-0.0306154079735279
-0.031341403722763
-0.0304487403482198
-0.0281570293009281
-0.0247657671570777
-0.0206172708421945
-0.0160678885877132
-0.0114620197564363
-0.0071021327748894
-0.0032207937911152
3.695674240589142e-05
0.0026178052648901
0.0045518781989812
0.005936135072261
0.0069125881418585
0.0076444232836365
0.008294609375298
0.0090075060725212
0.0098938653245568
0.0110242143273353
0.0124316494911909
0.0141162732616066
0.0160448290407657
0.018150620162487
0.0203417427837848
0.0225160755217075
0.0245752893388271
0.0264288876205682
0.0279804058372974
0.029099877923727
0.0296026095747947
0.0292549133300781
0.0278104878962039
0.0250643044710159
0.0209087505936622
0.0153816621750593
0.0086922217160463
0.0012083556503057
-0.0065925354138016
-0.0141889229416847
-0.0210789013653993
-0.026833152398467
-0.0311335045844316
-0.0337960794568061
-0.0347778461873531
-0.0341679900884628
-0.0321670547127723
-0.0290573816746473
-0.0251701660454273
-0.020852118730545
-0.0164324901998043
-0.0121932625770568
-0.0083465529605746
-0.00502385571599
-0.0022798059508204
-0.0001042019575834
0.0015665562823414
0.0028378190472722
0.0038414560258388
0.0047196964733302
0.0056099449284374
0.0066299671307206
0.0078649800270795
0.0093592703342437
0.011114852502942
0.0130975283682346
0.0152477771043777
0.0174952689558267
0.0197724401950836
0.0220158770680427
0.0241517648100852
0.0260731019079685
0.0276173949241638
0.0285564363002777
0.0286123417317867
0.0275005716830492
0.0249870643019676
0.0209470726549625
0.0154129778966307
0.0085951145738363
0.0008676632423885
-0.0072741145268082
-0.0152729861438274
-0.0225739050656557
-0.0286843013018369
-0.0332254245877265
-0.0359695181250572
-0.0368558801710605
-0.0359844677150249
-0.033590767532587
-0.0300075095146894
-0.0256212316453456
-0.0208302736282348
-0.0160071123391389
-0.0114669669419527
-0.0074445330537855
-0.004081611521542
-0.0014268048107624
0.0005551883950829
0.0019673760980367
0.0029599973931908
0.0037068561650812
0.0043786796741187
0.0051206825301051
0.0060425028204917
0.007216322235763
0.0086748953908681
0.0104117216542363
0.0123882703483104
0.0145450606942176
0.016812264919281
0.0191173292696476
0.0213839132338762
0.0235170815140008
0.0253778602927923
0.0267620999366045
0.0274024680256843
0.0269986502826213
0.0252677053213119
0.0220065526664257
0.0171531327068805
0.0108259888365864
0.0033302889205515
-0.004870468750596
-0.0132096484303474
-0.0210884772241115
-0.0279512573033571
-0.0333487354218959
-0.0369789004325866
-0.0387056916952133
-0.0385569371283054
-0.0367054007947444
-0.0334406420588493
-0.0291367154568433
-0.0242161955684423
-0.0191072113811969
-0.0141965802758932
-0.0097915809601545
-0.006097434554249
-0.0032082200050354
-0.0011104680597782
0.0003006178885698
0.0011961329728364
0.0017831027507781
0.0022722235880792
0.0028493953868746
0.0036558196879923
0.0047811488620936
0.0062702437862753
0.0081318011507391
0.0103384861722588
0.0128265973180532
0.0155055169016122
0.0182702299207448
0.021001148968935
0.0235463641583919
0.0256986394524574
0.027184123173356
0.0276762880384922
0.0268402062356472
0.0243985708802938
0.020202413201332
0.014286259189248
0.0068918811157345
-0.0015443561132997
-0.0104402424767613
-0.0191440284252166
-0.0270184222608804
-0.0335148833692073
-0.0382280945777893
-0.0409263670444488
-0.0415597818791866
-0.0402470789849758
-0.0372440293431282
-0.0329040773212909
-0.027640338987112
-0.0218883845955133
-0.0160673148930072
-0.0105417780578136
-0.0055893901735544
-0.0013776328414678
