bvp
0.017861858010292
0.020062893629074
0.0220714695751667
0.024091500788927
0.0262771733105182
0.028724942356348
0.0314740352332592
0.0345106050372123
0.0377758182585239
0.0411803387105464
0.0446169152855873
0.047953613102436
0.051001202315092
0.0534711889922618
0.0549520514905452
0.0549261346459388
0.0528390519320964
0.0482123866677284
0.0407673455774784
0.0305219180881977
0.0178335197269916
0.0033763293176889
-0.0119355851784348
-0.0270583182573318
-0.0409435369074344
-0.0526612624526023
-0.0614989697933197
-0.0670211166143417
-0.069085918366909
-0.0678278133273124
-0.0636195540428161
-0.0570217929780483
-0.0487181209027767
-0.0394378490746021
-0.0298797506839036
-0.0206486657261848
-0.0122101316228508
-0.0048675863072276
0.0012382888235151
0.0061150435358285
0.0098913144320249
0.0127790793776512
0.0150334425270557
0.0169165078550577
0.0186683852225542
0.0204858966171741
0.022505234926939
0.0247898548841476
0.0273325182497501
0.0300711765885353
0.0329111106693744
0.035748615860939
0.0384831130504608
0.0409977734088897
0.043107733130455
0.0445070825517177
0.0447544194757938
0.0433132871985435
0.0396419093012809
0.0333149209618568
0.0241453368216753
0.0122689679265022
-0.0018346384167671
-0.0173871126025915
-0.0334046185016632
-0.0488180071115493
-0.0626008361577987
-0.0738847255706787
-0.0820435881614685
-0.0867385640740394
-0.0879247039556503
-0.0858259350061416
-0.0808860883116722
-0.0737042725086212
-0.0649646818637847
-0.055367387831211
-0.0455629453063011
-0.036097727715969
-0.0273798424750566
-0.019667450338602
-0.0130728632211685
-0.0075784269720315
-0.0030624726787209
0.0006690537557005
0.0038481708616018
0.006711040623486
0.0094702336937189
0.0122959557920694
0.0153048811480402
0.0185543484985828
0.0220429468899965
0.0257191769778728
0.029498815536499
0.0332877151668071
0.0369925647974014
0.0404992178082466
0.0436223708093166
0.0460560694336891
0.0473586246371269
0.0469901598989963
0.0444006994366645
0.0391506403684616
0.0310322400182485
0.0201568324118852
0.0069842170923948
-0.0077117076143622
-0.0229340232908725
-0.037591777741909
-0.0506370812654495
-0.0611836649477481
-0.0685967728495597
-0.0725482925772667
-0.0730266273021698
-0.0703026801347732
-0.0648665875196456
-0.0573506504297256
-0.048450767993927
-0.038854531943798
-0.0291817467659711
-0.0199436359107494
-0.0115217883139848
-0.0041611627675592
0.0020283246412873
0.007063157390803
0.011069294065237
0.0142556857317686
0.0168770886957645
0.0191909074783325
0.0214217491447925
0.02374167740345
0.0262631773948669
0.0290407314896583
0.0320768803358078
0.0353289805352687
0.0387184843420982
0.0421462953090667
0.0455094166100025
0.0487049557268619
0.0516081675887107
0.0540270954370498
0.0556592866778373
0.0560823306441307
0.0547926910221576
0.0512880310416221
0.0451784096658229
0.0363001637160778
0.024798210710287
0.0111516034230589
-0.0038639861159026
-0.0192665979266166
-0.0339908376336097
-0.0470198318362236
-0.0575020052492618
-0.064834676682949
-0.0687092766165733
-0.069119669497013
-0.066334992647171
-0.060843501240015
-0.0532839559018611
-0.0443761944770813
-0.0348483026027679
-0.0253632720559835
-0.0164608806371688
-0.0085239810869097
-0.0017659971490502
0.0037626051343977
0.0081471726298332
0.0115678869187831
0.014259454794228
0.0164762027561664
0.0184593461453914
0.0204112231731414
0.0224836766719818
0.0247790291905403
0.027352875098586
0.0302095096558332
0.033299297094345
0.0365308076143264
0.0397917814552784
0.0429655835032463
0.0459305793046951
0.0485332049429416
0.0505437478423118
0.0516242235898971
0.0513378754258155
0.0492072105407714
0.0448058955371379
0.0378646031022071
0.0283659398555755
0.0165970828384161
0.0031401612795889
-0.0111932959407567
-0.0254613533616065
-0.0387036204338073
-0.0500498749315738
-0.0588083639740943
-0.0645240619778633
-0.0670076757669448
-0.0663356259465217
-0.0628207698464393
-0.0569603629410266
-0.0493701845407485
-0.0407133065164089
-0.0316323228180408
-0.0226916763931512
-0.0143350828438997
-0.0068648816086351
-0.0004442981444299
0.0048887021839618
0.0092035261914134
0.0126538574695587
0.0154513735324144
0.0178369209170341
0.0200479924678802
0.0222879853099584
0.0247027426958084
0.0273674428462982
0.0302894879132509
0.0334262140095233
0.0367055386304855
0.0400426760315895
0.0433517433702945
0.0465390011668205
0.0494637079536914
0.0518849454820156
0.0534340739250183
0.053634624928236
0.0519677139818668
0.0479698479175567
0.0413411632180213
0.0320373550057411
0.0203221179544925
0.0067659690976142
-0.0078089879825711
-0.0224252939224243
-0.0360689386725425
-0.0478101894259452
-0.0569057762622833
-0.0628710910677909
-0.0655180439352989
-0.0649512857198715
-0.0615240484476089
-0.0557714514434337
-0.0483371615409851
-0.039899107068777
-0.0311020351946353
-0.0225052274763584
-0.0145463785156607
-0.0075226463377475
-0.0015899876598268
0.0032260166481137
0.0070127006620168
0.0099437534809112
0.0122451055794954
0.0141582582145929
0.0159057062119245
0.017665684223175
0.0195598658174276
0.0216507576406002
0.0239459071308374
0.0264086835086345
0.0289749056100845
0.031570591032505
0.0341255851089954
0.0365778356790542
0.0388561822474002
0.0408341288566589
0.0422741547226905
0.0428013019263744
0.0419324934482574
0.0391552150249481
0.0340299680829048
0.0262977760285139
0.0159732569009065
0.0033923145383596
-0.0108046624809503
-0.0257469918578863
-0.0404440946877002
-0.0539063289761543
-0.0652564018964767
-0.0738202631473541
-0.0791862457990646
-0.081227146089077
-0.0800876766443252
-0.0761401429772377
-0.0699181035161018
-0.0620459429919719
-0.0531752035021781
-0.0439298748970031
-0.0348616391420364
-0.0264141149818897
-0.0188967138528823
-0.0124728875234723
-0.0071654431521892
-0.0028785918839275
0.0005678294692188
0.0034002303145825
0.0058553870767354
0.0081517808139324
0.0104711521416902
0.0129484357312321
0.0156684443354606
0.0186658427119255
0.0219226442277431
0.0253697261214256
0.0289021171629428
0.0324020758271217
0.0357591025531291
0.0388772115111351
0.0416557602584362
0.0439428649842739
0.0454861260950565
0.0459128320217132
0.04475849121809
0.0415444746613502
0.0358871817588806
0.0276098102331161
0.0168246831744909
0.0039596920832991
-0.0102774482220411
-0.024983923882246
-0.0391729474067688
-0.0518890172243118
-0.0623116865754127
-0.0698342770338058
-0.0741084516048431
-0.0750576481223106
-0.0728644877672195
-0.0679322034120559
-0.0608249828219413
-0.0521988980472087
-0.0427331887185573
-0.0330654829740524
-0.0237357802689075
-0.0151523314416408
-0.0075831143185496
-0.0011596428230404
0.0041132243350148
0.0083369929343461
0.0116898119449615
0.0143939321860671
0.0166856124997138
0.0187880657613277
0.0208874456584453
0.023117009550333
0.0255520679056644
0.0282118208706378
0.0310672335326671
0.0340567603707313
0.0371047705411911
0.0401346012949943
0.0430744960904121
0.0458532869815826
0.0483755245804786
0.0504761934280395
0.0518797114491462
0.052194382995367
0.0509520024061203
0.0476844944059848
0.0420261994004249
0.0338186882436275
0.0231853853911161
0.0105562582612037
-0.0033629212994128
-0.0176710207015275
-0.0313806794583797
-0.0435369797050952
-0.0533329583704471
-0.0601989366114139
-0.0638466849923133
-0.0642706006765365
-0.061717078089714
-0.0566339269280433
-0.0496082119643688
-0.0412970185279846
-0.0323586948215961
-0.0233928728848695
-0.0148951113224029
-0.007229171693325
-0.0006146375089883
0.0048727411776781
0.0092852227389812
0.012770933099091
0.0155341047793626
0.0178001672029495
0.0197903551161289
0.0217028968036174
0.0236978866159915
0.0258848536759614
0.0283159166574478
0.0309898387640714
0.0338653288781642
0.0368762910366058
0.039944127202034
0.0429856292903423
0.0459155179560184
0.0486363470554351
0.0510068237781524
0.0527943894267082
0.0536413751542568
0.0530822463333606
0.0506212189793586
0.0458420291543006
0.0385152138769626
0.0286805499345064
0.016687924042344
0.0031829727813601
-0.010964005254209
-0.0247688442468643
-0.0372579358518123
-0.0475843138992786
-0.0551180504262447
-0.0594969019293785
-0.0606360919773578
-0.0587095394730567
-0.0541108585894107
-0.0473961755633354
-0.0392160192131996
-0.0302455686032772
-0.0211190804839134
-0.0123756090179085
-0.0044245654717087
0.0024682255461812
0.0081803044304251
0.0127202896401286
0.016204385086894
0.0188275314867496
0.0208323989063501
0.022475890815258
0.023996815085411
0.0255881231278181
0.0273748338222503
0.0294050723314285
0.0316594839096069
0.0340721681714057
0.0365549698472023
0.0390190109610557
0.0413863323628902
0.0435865931212902
0.0455321408808231
0.0470708422362804
0.047938235104084
0.0477417148649692
0.0459957756102085
0.0422051288187503
0.0359746180474758
0.0271152034401893
0.0157197136431932
0.0021942406892776
-0.0127627793699502
-0.0282346326857805
-0.0431993752717971
-0.0566565133631229
-0.0677425786852836
-0.0758183076977729
-0.0805199220776557
-0.0817747339606285
-0.0797848999500274
-0.0749834924936294
-0.0679703950881958
-0.0594371855258941
-0.0500886030495166
-0.0405744314193725
-0.0314437747001647
-0.0231172088533639
-0.0158697459846735
-0.0098263714462518
-0.0049727940931916
-0.0011808220297098
0.0017576051177456
0.0040937331505119
0.0060859927907586
0.007970405742526
0.009939357638359
0.0121265668421983
0.0146017670631408
0.0173780769109725
0.0204244628548622
0.0236749164760112
0.0270380172878503
0.0304102748632431
0.0336785726249218
0.0366939641535282
0.0392233841121196
0.0409110113978385
0.0412815362215042
0.0397963970899581
0.0359536372125148
0.0294084846973419
0.020079081878066
0.0082055442035198
-0.0056482534855604
-0.0206451006233692
-0.0357667133212089
-0.0499372854828834
-0.0621605217456817
-0.0716377049684524
-0.0778418853878974
-0.0805474892258644
-0.0798230022192001
-0.0759935304522514
-0.0695826262235641
-0.0612426996231079
-0.0516813173890113
-0.0415908806025981
-0.0315882712602615
-0.0221688970923423
-0.0136789698153734
-0.0063072917982935
-9.387079626321793e-05
0.0050448598340153
0.0092772003263235
0.0128164319321513
0.0158883072435855
0.0187051687389612
0.0214472897350788
0.0242512188851833
0.0272026471793651
0.0303340125828981
0.0336284339427948
0.0370300039649009
0.0404599979519844
0.0438353046774864
0.0470803007483482
0.0501219928264617
0.0528599433600902
0.0551130771636962
0.0565678626298904
0.0567669607698917
0.0551611706614494
0.0512149557471275
0.0445356369018554
0.0349903292953968
0.0227786935865879
0.0084444191306829
-0.0071742134168744
-0.0230429247021675
-0.03806022554636
-0.0511934161186218
-0.0615976937115192
-0.0686970874667167
-0.0722194463014602
-0.0721953585743904
-0.0689309015870094
-0.0629541799426078
-0.0549411363899707
-0.0456338636577129
-0.0357611067593097
-0.0259707625955343
-0.0167832933366298
-0.008566178381443
-0.0015261583030223
0.0042816847562789
0.00893094856292
0.0125929145142436
0.0155020151287317
0.0179223734885454
0.0201189331710338
0.0223283432424068
0.0247278194874525
0.0274157151579856
0.0304130464792251
0.0336787551641464
0.0371305420994758
0.0406670495867729
0.0441855862736702
0.0475873723626136
0.050759807229042
0.0535316877067089
0.0556207410991191
0.0566111169755458
0.0559863224625587
0.0532165467739105
0.0478768795728683
0.0397595465183258
0.0289515405893325
0.0158668104559183
0.0012266207486391
-0.0140147386118769
-0.0287870187312364
-0.042039044201374
-0.0528645850718021
-0.0605960562825202
-0.064855545759201
-0.0655676871538162
-0.0629413723945617
-0.0574251823127269
-0.0496423654258251
-0.0403124541044235
-0.0301704108715057
-0.0198977254331111
-0.0100729884579777
-0.0011399174109101
0.0066104894503951
0.0130443703383207
0.0181747917085886
0.0221366174519062
0.0251508764922618
0.0274852328002452
0.0294164232909679
0.0311984084546566
0.0330365598201751
0.0350699797272682
0.0373672917485237
0.039936289191246
0.0427400358021259
0.0457110255956649
0.0487617403268814
0.0517893061041832
0.0546614341437816
0.0571778453886508
0.0590254962444305
0.0597569346427917
0.0588154643774032
0.055613674223423
0.0496502257883548
0.0406367629766464
0.028602235019207
0.0139441136270761
-0.0025910697877407
-0.019992159679532
-0.0371079929172992
-0.0527875125408172
-0.0660154968500137
-0.0760217010974884
-0.0823473185300827
-0.0848656520247459
-0.0837619453668594
-0.0794824957847595
-0.0726636126637458
-0.0640483498573303
-0.0544023737311363
-0.0444421991705894
-0.0347810015082359
-0.025891151279211
-0.0180842112749815
-0.0115078510716557
-0.0061571099795401
-0.001902038231492
0.0014689569361507
0.0042032338678836
0.0065498338080942
0.0087383184581995
0.010961995460093
0.0133624915033578
0.0160214155912399
0.0189622491598129
0.0221594031900167
0.0255497097969055
0.0290435515344142
0.0325382426381111
0.0359328463673591
0.0391269102692604
0.0419854037463665
0.0442792139947414
0.0456369183957576
0.0455459915101528
0.0434186309576034
0.038708496838808
0.0310451108962297
0.0203495677560567
0.0069039203226566
-0.008644014596939
-0.0253447741270065
-0.042065430432558
-0.0576347336173057
-0.0709850266575813
-0.0812668800354003
-0.0879239290952682
-0.0907255113124847
-0.0897617563605308
-0.0854075253009796
-0.0782588422298431
-0.0690487250685691
-0.058559700846672
-0.0475490130484104
-0.0366894006729126
-0.0265225451439619
-0.0174290835857391
-0.0096198432147502
-0.0031457559671252
0.0020787925459444
0.0062434403225779
0.0096036028116941
0.012440612539649
0.0150255179032683
0.0175877958536148
0.0202920567244291
0.0232309326529502
0.0264326147735118
0.0298725552856922
0.033485572785139
0.037180233746767
0.0408554933965206
0.0444157011806964
0.047771368175745
0.0508112609386444
0.0533506013453006
0.0550821758806705
0.0555615276098251
0.0542460717260837
0.0505879260599613
0.0441581904888153
0.0347693189978599
0.0225629117339849
0.0080381240695714
-0.0079856384545564
-0.0244601517915725
-0.0402364581823349
-0.0542067289352417
-0.0654334872961044
-0.0732464641332626
-0.0772965103387832
-0.0775652974843978
-0.0743380337953567
-0.0681460574269294
-0.0596874617040157
-0.0497385896742343
-0.0390705429017543
-0.0283836852759122
-0.0182623006403446
-0.0091433217748999
-0.0012984201312065
0.0051675522699952
0.0103010348975658
0.0142698921263217
0.017324473708868
0.0197559706866741
0.021858524531126
0.0238979086279869
0.0260861441493034
0.0285637527704238
0.0313951633870601
0.0345781184732914
0.0380571223795414
0.0417341589927673
0.0454832650721073
0.0491722449660301
0.0526773259043693
0.0558715164661407
0.0585842877626419
0.0605527833104133
0.0613942891359329
0.0606248490512371
0.0577301755547523
0.052273154258728
0.044011540710926
0.0329947471618652
0.0196116678416728
0.0045774085447192
-0.0111425258219242
-0.0264599472284317
-0.0403079055249691
-0.0517632327973842
-0.0601361207664012
-0.0650269985198974
-0.0663467720150947
-0.0642975494265556
-0.0593211352825164
-0.0520319603383541
-0.0431454330682754
-0.0334025993943214
-0.0234961863607168
-0.0140105634927749
-0.0053830235265195
0.0021125241182744
0.0083593614399433
0.0133747030049562
0.017279727384448
0.0202697739005088
0.0225865505635738
0.0244908705353736
0.0262329094111919
0.0280226096510887
0.0300083104521036
0.0322681367397308
0.0348135493695735
0.0376011990010738
0.0405480787158012
0.0435487739741802
0.046493049710989
0.0492724403738975
0.0517586804926395
0.0537535697221756
0.0549390986561775
0.0548632442951202
0.0529804863035678
0.0487455986440181
0.0417383201420307
0.0317838340997695
0.0190376043319702
0.0040131006389856
-0.0124571342021226
-0.0293200202286243
-0.045436605811119
-0.059723075479269
-0.0712723135948181
-0.0794406682252883
-0.0838975310325622
-0.084638625383377
-0.0819610208272934
-0.076403334736824
-0.0686627849936485
-0.0595042444765567
-0.0496774017810821
-0.0398522093892097
-0.0305743850767612
-0.0222403835505247
-0.0150883728638291
-0.0092016430571675
-0.0045262100175023
-0.0009009726345539
0.0019090641289949
0.0041798446327447
0.0061885258182883
0.0081701949238777
0.0102898823097348
0.0126381991431117
0.0152403227984905
0.0180685352534055
0.0210568122565746
0.0241180751472711
0.0271612294018268
0.030103463679552
0.0328740924596786
0.035398956388235
0.0375540591776371
0.0391059331595897
0.039680853486061
0.0387890934944152
0.0358998924493789
0.0305501613765954
0.0224651861935853
0.0116611514240503
-0.0015016701072454
-0.0163313616067171
-0.0318790525197982
-0.0470588691532611
-0.0607877559959888
-0.0721171051263809
-0.0803334265947341
-0.0850172713398933
-0.0860616713762283
-0.0836560800671577
-0.0782394483685493
-0.0704283490777015
-0.0609379783272743
-0.0505111739039421
-0.0398534461855888
-0.0295735467225313
-0.0201405696570873
-0.0118633806705474
-0.0048878178931772
0.0007913559675216
0.005302857607603
0.0088607827201485
0.0117247784510254
0.0141630508005619
0.0164206828922033
0.0186944473534822
0.0211183056235313
0.0237644221633672
0.0266516152769327
0.0297497790306806
0.0329848453402519
0.0362541563808918
0.0394490174949169
0.0424751192331314
0.0452621579170227
0.0477484948933124
0.0498336181044578
0.0513175055384635
0.0518632605671882
0.0510115846991539
0.0482518337666988
0.0431318096816539
0.0353783667087554
0.0250000189989805
0.0123404618352651
-0.0019372976385056
-0.0169276222586631
-0.0315955951809883
-0.0449049174785614
-0.0559402592480182
-0.064007818698883
-0.0687002837657928
-0.0699165612459182
-0.0678413286805152
-0.0628970265388488
-0.0556767545640468
-0.0468669980764389
-0.0371722914278507
-0.0272497422993183
-0.0176578909158706
-0.0088252360001206
-0.0010395944118499
0.0055484659969806
0.010913822799921
0.0151377134025096
0.0183816626667976
0.0208584237843751
0.022804457694292
0.0244539845734834
0.0260159708559513
0.0276579856872558
0.0294975191354751
0.0315986201167106
0.0339738130569458
0.0365930050611496
0.0393986478447914
0.0423194356262683
0.0452739372849464
0.0481647811830043
0.0508612319827079
0.0531633086502552
0.0547617711126804
0.055226482450962
0.054045233875513
0.050711452960968
0.0448386520147323
0.0362709388136863
0.0251609217375516
0.0119927823543548
-0.0024576382711529
-0.017215134575963
-0.0312286857515573
-0.0435047633945941
-0.0532268323004245
-0.0598380900919437
-0.063078761100769
-0.0629826188087463
-0.0598425939679145
-0.0541556067764759
-0.0465528890490531
-0.0377249531447887
-0.028353102505207
-0.0190516673028469
-0.0103229517117142
-0.0025295270606875
0.0041156401857733
0.0095452200621366
0.0138215385377407
0.0171063113957643
0.0196192674338817
0.0215992107987403
0.0232749059796333
0.0248417071998119
0.0264443568885326
0.0281701609492301
0.0300530064851045
0.0320848040282726
0.0342277996242046
0.0364253707230091
0.0386146232485771
0.0407381057739257
0.0427395291626453
0.0445293933153152
0.0459305122494697
0.046634055674076
0.0461938232183456
0.0440743826329708
0.0397501364350318
0.0328310169279575
0.0231809169054031
0.0109966844320297
-0.0031752521172165
-0.0184913724660873
-0.0339206419885158
-0.0483822077512741
-0.0608797594904899
-0.0706127136945724
-0.0770520865917205
-0.0799732208251953
-0.0794476717710495
-0.0758076459169387
-0.0695933699607849
-0.0614831894636154
-0.0522122681140899
-0.042494561523199
-0.0329579077661037
-0.0240970514714717
-0.016249131411314
-0.0095934439450502
-0.0041678277775645
0.000109005253762
0.0034101495984941
0.0059668673202395
0.0080341044813394
0.0098605649545788
0.0116637488827109
0.0136085227131843
0.0157922580838203
0.0182431191205978
0.020931189879775
0.0237856805324554
0.0267144404351711
0.0296246968209743
0.0324382819235324
0.0350875481963157
0.0374814085662364
0.0394486859440803
0.0406888723373413
0.0407645255327224
0.0391493029892444
0.0353252775967121
0.0289077907800674
0.0197603739798069
0.0080668944865465
-0.0056508090347051
-0.020570920780301
-0.0356609374284744
-0.0498032644391059
-0.0619345270097255
-0.0711728632450103
-0.0769114270806312
-0.0788687095046043
-0.0770968869328498
-0.0719537734985351
-0.064044140279293
-0.0541374161839485
-0.0430721528828144
-0.0316636376082897
-0.0206332169473171
-0.010564312338829
-0.0018756408244371
0.0051932027563452
0.0105805248022079
0.0143847241997718
0.0168329905718565
0.0182392336428165
0.01895690895617
0.0193366482853889
0.019692713394761
0.0202766209840774
0.0212599094957113
0.022729218006134
0.0246942453086376
0.0271056815981864
0.0298741534352302
0.0328845232725143
0.0360084734857082
0.0391097627580165
0.0420267060399055
0.0445302352309227
0.0462799146771431
0.0468128249049186
0.045587807893753
0.0420783385634422
0.0358885712921619
0.0268635880202054
0.0151673685759305
0.0013085590908303
-0.0138955935835838
-0.0294123515486717
-0.0441254489123821
-0.0569787994027137
-0.0671005472540855
-0.0738883316516876
-0.0770532712340354
-0.0766218975186348
-0.0728996619582176
-0.0664098039269447
-0.0578206144273281
-0.0478679053485393
-0.0372810028493404
-0.0267217699438333
-0.0167389437556266
-0.0077357497066259
4.6333298087120056e-05
0.0065233148634433
0.0117451529949903
0.0158615000545978
0.019086867570877
0.0216688551008701
0.0238584540784358
0.025884173810482
0.0279337260872125
0.0301430989056825
0.0325912311673164
0.0353013947606086
0.0382495708763599
0.0413779020309448
0.0446095988154411
0.0478550270199775
0.0509956777095794
0.0538448952138423
0.05610191822052
0.0573281124234199
0.0569731816649436
0.0544590912759304
0.049303688108921
0.0412508621811866
0.0303704440593719
0.0170990601181983
0.0022107576951384
-0.0132746044546365
-0.0282239839434623
-0.0415378212928772
-0.0522805526852607
-0.0597735829651355
-0.0636459961533546
-0.0638443231582641
-0.0606103092432022
-0.0544382035732269
-0.0460085421800613
-0.0361003391444683
-0.0255012437701225
-0.0149315353482961
-0.0049866307526826
0.0038994345813989
0.0114684524014592
0.0176308751106262
0.0224419143050909
0.0260705724358558
0.0287655405700206
0.0308156982064247
0.0325087308883667
0.0340973660349845
0.0357763394713401
0.0376658588647842
0.0398058369755744
0.0421689860522747
0.0446848571300506
0.0472620800137519
0.0498052537441253
0.0522166527807712
0.0543656684458255
0.0560317896306514
0.0568560548126697
0.056336410343647
0.053883071988821
0.0489278137683868
0.0410625673830509
0.0301689058542251
0.0164942890405654
0.0006514284759759
-0.0164463315159082
-0.0336898900568485
-0.0499059632420539
-0.0639986172318458
-0.0750742107629776
-0.0825285091996193
-0.0860892906785011
-0.0858161523938179
-0.0820631608366966
-0.0754144340753555
-0.0666031762957573
-0.0564252063632011
-0.0456567630171775
-0.0349859409034252
-0.0249672811478376
-0.0160002000629901
-0.008322493173182
-0.0020134767983108
0.0029901172965765
0.0068639423698186
0.0098572596907615
0.0122529193758964
0.0143308527767658
0.0163365397602319
0.0184571910649538
0.0208109933882951
0.0234493035823106
0.0263663250952959
0.0295134671032428
0.0328177139163017
0.0361944064497947
0.0395372323691844
0.0426784306764602
0.0453331060707569
0.0470601394772529
0.0472733080387115
0.0453159920871257
0.0405854955315589
0.0326757803559303
0.0215043779462575
0.0073885712772607
-0.0089543145149946
-0.0264815520495176
-0.0439553931355476
-0.0601019039750099
-0.0737660750746727
-0.0840397775173187
-0.0903502404689788
-0.0924996137619018
-0.0906521826982498
-0.0852771028876304
-0.0770617648959159
-0.0668142586946487
-0.0553730092942714
-0.0435326769948005
-0.0319861136376857
-0.0212810821831226
-0.0117931850254535
-0.0037194383330643
0.0029071592725813
0.008191212080419
0.0123432837426662
0.0156412292271852
0.0183856505900621
0.0208583772182464
0.0232933647930622
0.0258611217141151
0.028662072494626
0.0317280143499374
0.0350320897996425
0.0385049618780612
0.0420541204512119
0.045581117272377
0.0489878877997398
0.0521594993770122
0.0549176298081874
0.0569640845060348
0.0578501708805561
0.0569997578859329
0.0537949949502944
0.0477105528116226
0.0384614691138267
0.0261191837489604
0.0111592821776866
-0.0055704074911773
-0.0229512639343738
-0.0397411547601223
-0.0547361820936203
-0.0669163987040519
-0.0755510032176971
-0.0802527517080307
-0.0809862092137336
-0.078035831451416
-0.0719418004155159
-0.0634202063083648
-0.0532814376056194
-0.0423507466912269
-0.0313933379948139
-0.0210497379302978
-0.0117905419319868
-0.0038962736725807
0.0025384780019521
0.0075828139670193
0.0114360125735402
0.0143848378211259
0.0167545042932033
0.018861660733819
0.0209762416779994
0.0232966803014278
0.0259431060403585
0.0289629157632589
0.0323368795216083
0.0359863713383674
0.0397899001836776
0.04360793530941
0.047304518520832
0.050749160349369
0.053783893585205
0.0561639480292797
0.0575116984546184
0.0573207288980484
0.0550192892551422
0.0500810220837593
0.0421571545302867
0.0311963725835084
0.0175195802003145
0.0018231645226478
-0.0148955099284648
-0.0314664766192436
-0.046695165336132
-0.0595047734677791
-0.0690540224313736
-0.0748153701424598
-0.0766053348779678
-0.0745699256658554
-0.0691375061869621
-0.0609503537416458
-0.0507837869226932
-0.0394622422754764
-0.0277801603078842
-0.0164340734481811
-0.0059713646769523
0.003237035125494
0.0109969563782215
0.01727338694036
0.0221662949770689
0.0258820950984954
0.0286980606615543
0.0309214182198047
0.0328499265015125
0.0347391739487648
0.0367803946137428
0.0390928052365779
0.0417282506823539
0.0446801334619522
0.0478932112455368
0.0512782372534275
0.0547289103269577
0.0581179186701774
0.0612546280026435
0.0638249963521957
0.0653552934527397
0.0652317553758621
0.0627846866846084
0.0574191138148307
0.0487594455480575
0.0367712639272213
0.021826583892107
0.0046938173472881
-0.0135453920811414
-0.0316317714750766
-0.0482857227325439
-0.0623597353696823
-0.0729657262563705
-0.079560287296772
-0.0819786190986633
-0.080417476594448
-0.0753768235445022
-0.0675748214125633
-0.0578512214124202
-0.0470731332898139
-0.0360528267920017
-0.0254829674959182
-0.0158910490572452
-0.007614713627845
-0.0008009113371372
0.0045736199244856
0.0086676608771085
0.011733166873455
0.0140724768862128
0.0159969646483659
0.0177858285605907
0.0196536481380462
0.0217358991503715
0.0240900143980979
0.0267065204679965
0.0295273549854755
0.0324670299887657
0.0354314483702182
0.0383307375013828
0.0410806350409984
0.0435813404619693
0.0456673204898834
0.0470464676618576
0.0472702011466026
0.0457662381231784
0.0419313199818134
0.0352573506534099
0.0254647359251976
0.0126145370304584
-0.0028355717658996
-0.020053369924426
-0.0379283428192138
-0.0552161633968353
-0.0706974565982818
-0.0833256095647811
-0.0923425108194351
-0.097342848777771
-0.0982850492000579
-0.0954581797122955
-0.0894117429852485
-0.0808636099100112
-0.070611335337162
-0.0594574734568595
-0.0481429696083068
-0.0372911468148231
-0.0273704975843429
-0.0186780877411365
-0.0113423811271786
-0.0053404932841658
-0.0005254950374364
0.0033368826843798
0.0065260203555226
0.0093259504064917
0.0119919553399086
0.0147277992218732
0.0176749564707279
0.0209091156721115
0.024438576772809
0.0282086078077554
0.0321187041699886
0.0360479578375816
0.0398765690624713
0.0434971936047077
0.0468107089400291
0.0496971122920513
0.0519624762237072
0.0532858557999134
0.0532041937112808
0.0511610694229602
0.0466120839118957
0.0391564518213272
0.0286619830876588
0.0153519809246063
-0.0001748166978359
-0.0170004647225141
-0.0340022966265678
-0.0499963387846946
-0.0638823509216308
-0.074767030775547
-0.0820481479167938
-0.0854540020227432
-0.0850415080785751
-0.0811592489480972
-0.0743838921189308
-0.0654399320483207
-0.0551135204732418
-0.0441731102764606
-0.0333045162260532
-0.0230619665235281
-0.0138407805934548
-0.0058750673197209
0.0007502194494009
0.0060820979997515
0.0102738765999674
0.0135512351989746
0.0161778330802917
0.0184246096760034
0.0205430388450622
0.0227424446493387
0.0251723378896713
0.0279120579361915
0.0309702605009078
0.0342955067753791
0.0377962961792945
0.0413644798099994
0.0448936410248279
0.0482854545116424
0.0514380969107151
0.0542113035917282
0.0563750118017196
0.0575715489685535
0.0573252476751804
0.0551080591976642
0.0504457019269466
0.043038722127676
0.0328660607337951
0.020241841673851
0.0058108242228627
-0.009515999816358
-0.0246707387268543
-0.0385611504316329
-0.0502059645950794
-0.0588501095771789
-0.0640377402305603
-0.0656359940767288
-0.063814491033554
-0.0589915998280048
-0.0517640337347984
-0.0428328029811382
-0.0329311713576316
-0.0227567926049232
-0.012913005426526
-0.0038670897483825
0.0040706554427742
0.0107486769556999
0.01616065017879
0.0204208716750144
0.0237305779010057
0.0263378508388996
0.0284981206059455
0.0304425545036792
0.0323558263480663
0.0343629792332649
0.0365283973515033
0.0388660989701747
0.0413545705378055
0.043949369341135
0.0465918332338333
0.0492159202694892
0.0517462715506553
0.0540709421038627
0.0559913106262683
0.0571806840598583
0.0571800172328949
0.055441528558731
0.0514211878180503
0.0447039529681205
0.0351264923810958
0.0228599719703197
0.0084305787459015
-0.0073250485584139
-0.0233597215265035
-0.0385516546666622
-0.0518478788435459
-0.0623869374394416
-0.0695829167962074
-0.0731668472290039
-0.0731877461075782
-0.0699750408530235
-0.0640737637877464
-0.0561694651842117
-0.0470097810029983
-0.0373272374272346
-0.0277739893645048
-0.0188743006438016
-0.0109943822026252
-0.0043327584862709
0.0010668637696653
0.0052877655252814
0.0085061201825737
0.0109537169337272
0.0128810545429587
0.01452795881778
0.0161053296178579
0.0177832953631877
0.0196786988526582
0.0218437742441892
0.0242669451981782
0.0268889777362346
0.0296245440840721
0.0323790498077869
0.035052366554737
0.0375187881290912
0.0395834110677242
0.040937814861536
0.0411477163434028
0.0396919138729572
0.0360487550497055
0.0298093985766172
0.0207909327000379
0.0091227889060974
-0.0047205332666635
-0.0199566930532455
-0.035591684281826
-0.0505474098026752
-0.0637952014803886
-0.0744728818535804
-0.081967569887638
-0.0859583616256713
-0.0864221006631851
-0.0836072713136673
-0.0779832154512405
-0.0701740905642509
-0.0608862191438674
-0.0508349016308784
-0.0406753532588481
-0.0309465155005455
-0.0220406744629144
-0.0142009537667036
-0.0075334426946938
-0.0020236941054463
0.00244219484739
0.0060521392151713
0.009038470685482
0.0116442423313856
0.0140913948416709
0.0165570359677076
0.0191598832607269
0.0219578072428703
0.0249567553400993
0.0281267240643501
0.0314178504049778
0.0347726419568061
0.0381261147558689
0.0413819774985313
0.0443667471408844
0.046781912446022
0.0481845885515213
0.0480208061635494
0.0457116551697254
0.0407721363008022
0.0329355970025062
0.0222517158836126
0.0091286553069949
-0.0056918505579233
-0.0212184824049472
-0.036335714161396
-0.0499457865953445
-0.0610978007316589
-0.0690852031111717
-0.0735076442360878
-0.0742922574281692
-0.071670189499855
-0.0661174729466438
-0.0582762993872165
-0.0488725304603576
-0.0386410802602767
-0.0282634180039167
-0.0183184277266263
-0.0092490408569574
-0.0013440232723951
0.0052658598870038
0.0105955507606267
0.0147792575880885
0.0180357284843921
0.0206284262239933
0.0228241216391325
0.0248590111732482
0.0269187595695257
0.0291298180818557
0.0315578542649745
0.03421351313591
0.0370648130774498
0.0400515422224998
0.0430994145572185
0.0461276993155479
0.0490346923470497
0.0516554377973079
0.0537116155028343
0.0547896027565002
0.054371140897274
0.051910787820816
0.0469413921236991
0.0391905307769775
0.0286799855530262
0.0157739110291004
0.0011616116389632
-0.0142164090648293
-0.0292829759418964
-0.0429581440985202
-0.0542878322303295
-0.0625481754541397
-0.0673116520047187
-0.0684674605727195
-0.0662014111876487
-0.0609458684921264
-0.0533098578453063
-0.0440044105052948
-0.0337739214301109
-0.0233320407569408
-0.0133009906858205
-0.004161374643445
0.0037780534476041
0.0103855729103088
0.0156888104975223
0.0198407471179962
0.0230777189135551
0.0256779324263334
0.0279242042452096
0.0300697907805442
0.0323109365999698
0.0347759425640106
0.0375306531786918
0.0405856929719448
0.0438987277448177
0.047382403165102
0.0509221516549587
0.0543846152722835
0.0575937181711196
0.0602815821766853
0.0620499812066555
0.0623744912445545
0.0606646016240119
0.0563726872205734
0.0491240844130516
0.0388319008052349
0.0257665961980819
0.0105633670464158
-0.0058353384956717
-0.0222938917577266
-0.0376326628029346
-0.0507770776748657
-0.0608757995069026
-0.067377284169197
-0.0700643882155418
-0.0690479800105094
-0.064725250005722
-0.05771204829216
-0.0487605892121791
-0.0386746041476726
-0.0282299257814884
-0.0181058533489704
-0.0088354917243123
-0.0007782699540257
0.0058889286592602
0.011159542016685
0.0151623636484146
0.0181182492524385
0.0203031003475189
0.0220144111663103
0.0235364958643913
0.0251106638461351
0.026915630325675
0.0290561001747846
0.0315598659217357
0.034385360777378
0.0374382250010967
0.0405948422849178
0.0437251888215541
0.0466974861919879
0.0493494868278503
0.0514316000044345
0.0525542385876178
0.0521833375096321
0.049704972654581
0.0445444732904434
0.036306619644165
0.0248993542045354
0.0106088705360889
-0.005893237888813
-0.0236142966896295
-0.0413626879453659
-0.0579005628824234
-0.0720978006720542
-0.0830608680844307
-0.0902151241898536
-0.0933343917131424
-0.0925282835960388
-0.0882008150219917
-0.0809846520423889
-0.0716538429260253
-0.0610300749540329
-0.0498998612165451
-0.0389509946107864
-0.0287288520485162
-0.019610583782196
-0.0117973955348134
-0.0053253243677318
-9.135832078754902e-05
0.0041084480471909
0.0075354729779064
0.0104705551639199
0.0131855495274066
0.0159161835908889
0.0188325010240077
0.0220192223787307
0.0254778247326612
0.029147058725357
0.0329281464219093
0.0367063097655773
0.0403693653643131
0.0438115522265434
0.0469015873968601
0.0494222342967987
0.0510197915136814
0.0511990971863269
0.0493783541023731
0.0449993871152401
0.0376677364110946
0.0272770393639802
0.0140807796269655
-0.0013006497174501
-0.01793715916574
-0.0347001068294048
-0.0504044629633426
-0.0639537870883941
-0.074462667107582
-0.081339880824089
-0.0843278244137764
-0.0835021361708641
-0.079235091805458
-0.0721275806427002
-0.0629221424460411
-0.0524121038615703
-0.0413596220314502
-0.0304336454719305
-0.0201711896806955
-0.0109568238258361
-0.0030168343801051
0.0035720735322684
0.0088645573705434
0.0130237732082605
0.0162908770143985
0.0189453698694705
0.0212640762329101
0.0234884060919284
0.0258036535233259
0.0283284969627857
0.0311129093170166
0.0341464206576347
0.0373753495514392
0.0407186299562454
0.04407724365592
0.0473416484892368
0.0503893047571182
0.0530544780194759
0.0550756976008415
0.0560565218329429
0.0554752796888351
0.0527551770210266
0.0473810657858848
0.0390313416719436
0.0276879258453845
0.0136960987001657
-0.0022403206676244
-0.0191289838403463
-0.0358095914125442
-0.0511040091514587
-0.0639686360955238
-0.0736131817102432
-0.0795662701129913
-0.0816931128501892
-0.0801750496029853
-0.075458213686943
-0.0681797713041305
-0.059084203094244
-0.0489432960748672
-0.0384855195879936
-0.0283370371907949
-0.0189810246229171
-0.0107374880462884
-0.003758923150599
0.0019590854644775
0.0065491404384374
0.0102280480787158
0.0132499383762478
0.0158691871911287
0.018315140157938
0.0207739453762769
0.0233774557709693
0.0262011773884296
0.0292683374136686
0.0325572565197944
0.0360122360289096
0.0395553559064865
0.0430968515574932
0.0465412139892578
0.0497751533985137
0.0526265576481819
0.0548113994300365
0.0559048689901828
0.0553664043545722
0.0526254773139953
0.0472084358334541
0.0388691462576389
0.0276860408484935
0.0141007658094167
-0.001110749784857
-0.016927845776081
-0.0322149135172367
-0.045864924788475
-0.0569310151040554
-0.0647236108779907
-0.0688608810305595
-0.069278784096241
-0.0662140026688575
-0.0601608864963054
-0.0518003664910793
-0.0419132374227047
-0.0312933512032032
-0.0206707529723644
-0.0106533765792846
-0.0016904603689908
0.0059445109218358
0.0121521679684519
0.0169889237731695
0.0206359475851058
0.0233584493398666
0.0254608131945133
0.0272464174777269
0.0289874486625194
0.0308998264372348
0.0331207402050495
0.03569957613945
0.0386077053844928
0.0417582616209983
0.0450287610292434
0.0482849329710006
0.0513974651694297
0.0542360097169876
0.0566331706941127
0.0583315268158912
0.0589459165930748
0.0579733476042747
0.0548622235655784
0.0491300821304321
0.0404987186193466
0.0289999414235353
0.0150187704712152
-0.0007292404770851
-0.0172769241034984
-0.0335252806544303
-0.0483793094754219
-0.060875579714775
-0.0702824294567108
-0.0761586725711822
-0.0783707797527313
-0.0770789086818695
-0.0726968571543693
-0.0658294484019279
-0.0571968853473663
-0.0475542917847633
-0.0376140102744102
-0.0279843769967556
-0.019135994836688
-0.0113903088495135
-0.0049168090336024
0.0002635521814227
0.0042611258104443
0.0072848498821258
0.0096015781164169
0.0114964703097939
0.0132374763488769
0.0150442281737923
0.0170666687190532
0.0193779729306697
0.0219804048538208
0.0248231962323188
0.0278276354074478
0.0309051685035228
0.0339631773531436
0.0369060263037681
0.0396255291998386
0.0419668667018413
0.0436796396970748
0.044386051595211
0.0435938648879528
0.0407624468207359
0.0354124307632446
0.0272516906261444
0.0162802524864673
0.0028455480933189
-0.0123650431632995
-0.0283934921026229
-0.0441287457942962
-0.0584527291357517
-0.070386454463005
-0.0792017802596092
-0.084480345249176
-0.086124300956726
-0.0843301340937614
-0.0795359089970588
-0.0723522678017616
-0.0634859651327133
-0.053662821650505
-0.0435586348176002
-0.0337461717426776
-0.0246608965098857
-0.0165841653943061
-0.0096439123153686
-0.0038325993809849
0.0009609647095203
0.0049123475328087
