bvp
0.0384852811694145
0.0403785780072212
0.0410184562206268
0.0399074479937553
0.0366531014442443
0.0310608986765146
0.0231999903917312
0.0134250149130821
0.0023471871390938
-0.0092388857156038
-0.0204588696360588
-0.0304702781140804
-0.0385581627488136
-0.0442059971392154
-0.0471409372985363
-0.047348003834486
-0.0450494959950447
-0.0406547300517559
-0.0346934832632541
-0.027749091386795
-0.0203994400799274
-0.0131679195910692
-0.0064836242236196
-0.0006494133849628
0.0041756178252398
0.0079725682735443
0.0108408769592642
0.0129655227065086
0.0145811224356293
0.0159352887421846
0.0172520484775304
0.0187046565115451
0.0204046089202165
0.0224024280905723
0.0246946532279253
0.0272333212196826
0.0299312267452478
0.0326539948582649
0.035194955766201
0.0372462905943393
0.0383969508111476
0.038179162889719
0.0361555851995945
0.03201924264431
0.0256780888885259
0.0173014737665653
0.007317810319364
-0.003631867468357
-0.0147724077105522
-0.0252888090908527
-0.0344209037721157
-0.0415476858615875
-0.0462495908141136
-0.0483397394418716
-0.0478649735450744
-0.045082688331604
-0.040418192744255
-0.0344069153070449
-0.0276286639273166
-0.0206426233053207
-0.0139312343671917
-0.0078621646389365
-0.0026727300137281
0.0015291525050997
0.004754772875458
0.0071159461513161
0.008797476068139
0.0100247412919998
0.0110317133367061
0.0120321763679385
0.0131956338882446
0.0146319270133972
0.0163882300257682
0.0184559859335422
0.0207825675606727
0.023282952606678
0.0258415676653385
0.0282908976078033
0.0303742252290248
0.0317295715212821
0.031922698020935
0.0305217914283275
0.0271887797862291
0.0217631179839372
0.0143194328993558
0.0051871053874492
-0.0050729298964142
-0.0157330241054296
-0.0259940959513187
-0.0350891537964344
-0.0423739552497863
-0.0473921746015548
-0.0499104969203472
-0.0499259494245052
-0.0476488098502159
-0.0434638299047946
-0.0378753915429115
-0.0314442589879035
-0.0247233510017395
-0.0182005576789379
-0.012257688678801
-0.0071495329029858
-0.0029993113130331
0.0001924782991409
0.0025279480032622
0.0041849575936794
0.0053856456652283
0.0063640912994742
0.0073391515761613
0.0084906108677387
0.0099368812516331
0.0117228850722312
0.0138257257640361
0.0161735750734806
0.0186649784445762
0.0211764797568321
0.0235511772334575
0.0255725905299186
0.0269467495381832
0.0273181982338428
0.0263231359422206
0.0236636623740196
0.0191841311752796
0.0129321468994021
0.0051869694143533
-0.0035586580634117
-0.0126619609072804
-0.0214180164039134
-0.0291494503617286
-0.0352859012782573
-0.0394230969250202
-0.0413535796105861
-0.0410715900361537
-0.0387585274875164
-0.0347509533166885
-0.0294925514608621
-0.023477878421545
-0.0171990916132926
-0.0111003145575523
-0.0055387341417372
-0.0007555773481726
0.003133654827252
0.0061280922964215
0.0083218421787023
0.0098821790888905
0.0110201183706521
0.0119547918438911
0.0128821106627583
0.0139551358297467
0.0152758546173572
0.0168937873095273
0.0188078191131353
0.020970445126295
0.0232939347624778
0.0256501324474811
0.0278549809008836
0.0296485293656587
0.0306919440627098
0.0305952448397874
0.0289802197366952
0.025565106421709
0.0202433541417121
0.013135390356183
0.0045997593551874
-0.0048026661388576
-0.014382179826498
-0.0234128572046756
-0.031224450096488
-0.0372775346040725
-0.041214220225811
-0.0428816899657249
-0.0423283763229846
-0.0397772490978241
-0.035585880279541
-0.0302026998251676
-0.0241206213831901
-0.0178270954638719
-0.0117564918473362
-0.0062519283965229
-0.0015404641162604
0.0022757488768547
0.0052125509828329
0.0073837433010339
0.0089714042842388
0.0101932985708117
0.0112730395048856
0.0124126998707652
0.013769150711596
0.0154397282749414
0.0174570716917514
0.0197891872376203
0.0223482251167297
0.0250088572502136
0.0276219137012958
0.0300073958933353
0.0319297686219215
0.0330808870494365
0.0330991148948669
0.0316272675991058
0.0283882394433021
0.0232581123709678
0.0163200087845325
0.0078817391768097
-0.0015483135357499
-0.0113179255276918
-0.020711176097393
-0.0290434956550598
-0.035749364644289
-0.04043835029006
-0.0429175570607185
-0.0431904010474681
-0.0414362326264381
-0.0379761233925819
-0.0332297906279563
-0.0276650208979845
-0.0217459630221128
-0.0158896427601575
-0.0104336887598037
-0.0056144800037145
-0.0015553846023976
0.0017329440452158
0.0043338593095541
0.0063896938227117
0.0080664046108722
0.0095288902521133
0.0109263323247432
0.012382079847157
0.0139845758676528
0.0157823674380779
0.0177864618599414
0.0199768058955669
0.0223073381930589
0.0247087012976408
0.0270849708467721
0.0292937774211168
0.0311158895492553
0.0322435609996318
0.0323063358664512
0.0309296157211065
0.0278146527707576
0.0228205993771553
0.016022341325879
0.0077282260172069
-0.0015452355146408
-0.0111371297389268
-0.0203306209295988
-0.0284458436071872
-0.0349194332957267
-0.0393605753779411
-0.0415797941386699
-0.0415897071361541
-0.0395805761218071
-0.0358799695968627
-0.0309090092778205
-0.0251396782696247
-0.0190490502864122
-0.0130726527422666
-0.0075673232786357
-0.0027872039936482
0.0011297222226858
0.0041628945618867
0.006395423784852
0.0079876352101564
0.0091439289972186
0.0100796669721603
0.010993555188179
0.0120470356196165
0.0133517459034919
0.0149669330567121
0.0169012136757373
0.0191132463514804
0.021517215296626
0.0239960364997386
0.0264091975986957
0.0285807363688945
0.0302742645144462
0.0311822555959224
0.0309512671083211
0.0292411465197801
0.0258012134581804
0.0205424204468727
0.0135847274214029
0.0052671483717858
-0.0038810905534774
-0.0132032288238406
-0.0220025535672903
-0.0296373814344406
-0.035598486661911
-0.0395544469356536
-0.0413674786686897
-0.0410868749022483
-0.0389244742691516
-0.0352167822420597
-0.030380617827177
-0.0248675011098384
-0.0191190484911203
-0.0135273886844515
-0.0084055215120315
-0.0039690742269158
-0.0003269920125603
0.0025189253501594
0.004659058060497
0.0062455660663545
0.0074600302614271
0.0084889261052012
0.0095042362809181
0.0106456857174634
0.0120078735053539
0.0136364633217453
0.0155311115086078
0.0176518000662326
0.0199289880692958
0.0222703795880079
0.0245507564395666
0.0265866741538047
0.0281192772090435
0.0288264155387878
0.0283639002591371
0.0264257956296205
0.0228145066648721
0.0175050441175699
0.0106818359345197
0.0027349311858415
-0.0057829287834465
-0.0142279667779803
-0.021949540823698
-0.0283693559467792
-0.033044509589672
-0.0357079692184925
-0.0362834632396698
-0.0348781049251556
-0.0317556336522102
-0.0272931605577468
-0.0219339802861213
-0.0161456447094678
-0.0103768985718488
-0.0050124400295317
-0.0003370093181729
0.0034853057004511
0.0064150607213377
0.0085231866687536
0.0099637992680072
0.0109415594488382
0.0116774830967187
0.0123772844672203
0.0132079143077135
0.0142858596518635
0.0156755503267049
0.0173923708498477
0.0194040313363075
0.021630922332406
0.023951482027769
0.0262047108262777
0.0281785354018211
0.0295978523790836
0.0301358830183744
0.0294535011053085
0.0272579714655876
0.0233708322048187
0.0177875701338052
0.0107082268223166
0.0025288197211921
-0.00620235549286
-0.0148513605818152
-0.0227759797126054
-0.0294050890952348
-0.0343071557581424
-0.0372314676642417
-0.0381169356405735
-0.0370765104889869
-0.0343663953244686
-0.0303463544696569
-0.025436220690608
-0.0200719349086284
-0.0146630182862281
-0.0095555502921342
-0.0050069740973412
-0.001174610806629
0.0018865612801164
0.0042186672799289
0.0059447847306728
0.0072400909848511
0.0082948664203286
0.0092809936031699
0.0103326383978128
0.0115401176735758
0.0129493391141295
0.0145650450140237
0.0163597967475652
0.0182832889258861
0.020261250436306
0.0221792813390493
0.0238577425479888
0.0250348672270774
0.0253800507634878
0.0245448555797338
0.0222365856170654
0.0182883776724338
0.0127059845253825
0.0056877811439335
-0.002381685655564
-0.0109683284536004
-0.0194525308907032
-0.0272091105580329
-0.0336867310106754
-0.0384684391319751
-0.0413047596812248
-0.0421247482299804
-0.0410292781889438
-0.0382657460868358
-0.0341886207461357
-0.0292117502540349
-0.0237572900950908
-0.0182122103869915
-0.0129016675055027
-0.0080747380852699
-0.0038950378075242
-0.0004371607210487
0.0023097288794815
0.004431520588696
0.0060703582130372
0.0073991483077406
0.0085947280749678
0.0098146870732307
0.0111811766400933
0.0127717368304729
0.0146159455180168
0.0166987534612417
0.0189708787947893
0.0213562417775392
0.0237408056855201
0.0259456783533096
0.0277083199471235
0.0286919865757226
0.0285272262990474
0.0268794763833284
0.0235270485281944
0.0184249505400657
0.0117376968264579
0.0038361090701073
-0.0047424100339412
-0.0133630204945802
-0.0213772524148225
-0.0282029379159212
-0.0333851911127567
-0.0366356782615184
-0.0378519110381603
-0.0371133536100387
-0.0346528925001621
-0.0308125745505094
-0.0259981900453567
-0.0206379257142543
-0.0151415858417749
-0.0098626390099525
-0.0050715040415525
-0.0009418688714504
0.0024537402205169
0.0051377392373979
0.0072088586166501
0.0088168829679489
0.0101358592510223
0.0113363126292824
0.0125613156706094
0.0139129450544714
0.0154482070356607
0.0171813368797302
0.0190906338393688
0.0211269315332174
0.0232216119766235
0.0252903327345848
0.0272252634167671
0.0288735590875148
0.0300157479941844
0.0303676612675189
0.0296167358756065
0.027485154569149
0.0238019116222858
0.0185571014881134
0.0119203263893723
0.0042285188101232
-0.0040465239435434
-0.0123493801802396
-0.0201088339090347
-0.0268110856413841
-0.0320592895150184
-0.0356056541204452
-0.037359207868576
-0.0373789928853511
-0.035855371505022
-0.0330774411559104
-0.0293898787349462
-0.0251481160521507
-0.020680584013462
-0.0162654593586921
-0.0121203921735286
-0.0083943661302328
-0.0051599028520286
-0.0024135140702128
-8.70758667588234e-05
0.0019309823401272
0.0037678263615816
0.0055405721068382
0.0073409373871982
0.0092310709878802
0.0112453224137425
0.0133914481848478
0.0156509950757026
0.0179832596331834
0.0203295610845088
0.0226055067032575
0.0246774535626173
0.0263397265225648
0.0273149758577346
0.0272868517786264
0.0259591583162546
0.0231270622462034
0.0187416765838861
0.0129537461325526
0.0061309291049838
-0.0011613913811743
-0.008230616338551
-0.0143716428428888
-0.0189860966056585
-0.0216616187244653
-0.0221956279128789
-0.02058014459908
-0.0169694311916828
-0.0116395596414804
-0.0049463347531855
0.0027120667509734
0.0109306583181023
0.019335089251399
0.0276135373860597
0.035532459616661
0.0429374650120735
0.0497460514307022
0.0559304729104042
0.0614888072013855
0.0664095878601074
0.0706381499767303
0.0740576833486557
0.0764955058693885
0.077754370868206
0.077661707997322
0.0761242434382438
0.0731695145368576
0.0689579620957374
0.0637582466006279
0.0578924231231212
0.0516732931137084
0.0453565679490566
0.0391142778098583
0.0330236293375492
0.0270693413913249
0.0211626701056957
0.0151758082211017
0.008984588086605
0.0025075376033782
-0.0042760372161865
-0.0113418735563755
-0.0186714194715023
-0.0263179503381252
-0.0344405211508274
-0.0432664565742015
-0.0529997795820236
-0.0637294575572013
-0.0753737762570381
-0.0876700580120086
-0.1002020984888076
-0.1124394759535789
-0.1237688958644867
-0.133529931306839
-0.1410722285509109
-0.1458236277103424
-0.1473448723554611
-0.1453608572483062
-0.1397822350263595
-0.1307314187288284
-0.118563562631607
-0.1038688421249389
-0.0874552577733993
-0.0703091323375701
-0.0535271391272544
-0.0382257178425788
-0.0254378747195005
-0.0160094108432531
-0.0105145880952477
-0.009204969741404
-0.0120027204975485
-0.0185796879231929
-0.0285757221281528
-0.0418931655585765
-0.0588213130831718
-0.0798004046082496
-0.104954645037651
-0.1337051689624786
-0.1646550595760345
-0.1957464665174484
-0.2245773673057556
-0.2487328499555587
-0.2660256028175354
-0.27462899684906
-0.2731598913669586
-0.2607792615890503
-0.2373308837413787
-0.2034805119037628
-0.160777673125267
-0.1115649119019508
-0.0587324500083923
-0.0053881406784057
0.0454882234334945
0.0913611054420471
0.1303831934928894
0.1615334302186966
0.184636190533638
0.2002657651901245
0.2095595300197601
0.2139851450920105
0.2151167243719101
0.214458554983139
0.2133178114891052
0.2127079665660858
0.213280513882637
0.2152951061725616
0.2186298072338104
0.2228264212608337
0.2271715700626373
0.2308115065097808
0.232885330915451
0.2326542437076568
0.2296072840690612
0.2235309928655624
0.2145334184169769
0.2030206322669983
0.1896353363990783
0.1751713454723358
0.1604781299829483
0.1463638842105865
0.1335063576698303
0.1223860085010528
0.1132514476776123
0.1061152666807174
0.1007742136716842
0.0968561768531799
0.0938914790749549
0.0913882106542587
0.0888927206397056
0.0860277190804481
0.0825079008936882
0.0781409591436386
0.0728201270103454
0.0665128529071807
0.0592527613043785
0.0511312112212181
0.0422835052013397
0.0328755713999271
0.0230933465063571
0.0131317265331745
0.0031829178333282
-0.0065754055976867
-0.015994194895029
-0.0249743163585662
-0.0334935560822486
-0.0416238158941268
-0.0495210476219654
-0.0573855005204677
-0.0654039084911346
-0.073687307536602
-0.0822175443172454
-0.0908201709389686
-0.0991775020956993
-0.1068761348724365
-0.1134731546044349
-0.1185734421014785
-0.1219086050987243
-0.1233955472707748
-0.1231586262583732
-0.1215153932571411
-0.1189300268888473
-0.1159420907497406
-0.1130837723612785
-0.1107983961701393
-0.1093756556510925
-0.1089177504181861
-0.1093379110097885
-0.1103880405426025
-0.1117100194096565
-0.1128931939601898
-0.1135228425264358
-0.1132213026285171
-0.1116893440485
-0.1087461933493614
-0.1043514236807823
-0.0985865965485572
-0.0915908068418502
-0.0834714621305465
-0.0742267668247222
-0.0637141242623329
-0.0516871884465217
-0.0378978960216045
-0.022230926901102
-0.004832612350583
0.0138009525835514
0.0328065268695354
0.0510170571506023
0.0671073347330093
0.0798219665884971
0.0882368683815002
0.0919502824544906
0.0911352485418319
0.0864704698324203
0.078999176621437
0.0699547380208969
0.060579065233469
0.051959540694952
0.0449162796139717
0.03995793312788
0.0372930169105529
0.0368737950921058
0.03845651820302
0.0416647382080554
0.0460526943206787
0.0511687137186527
0.0566033013164997
0.0620103627443313
0.0671156644821167
0.0717361196875572
0.0758184865117073
0.079483576118946
0.0830498859286308
0.0870051309466362
0.0918978303670883
0.0981635823845863
0.1059509217739105
0.1150114312767982
0.1246862411499023
0.1339908242225647
0.141778826713562
0.1469519436359405
0.1486700773239135
0.1465105414390564
0.140530988574028
0.1312132775783538
0.1192992627620697
0.1055690944194793
0.0906420052051544
0.0748643428087234
0.0582974702119827
0.0407805293798446
0.0220280140638351
0.0017352849245071
-0.0203112661838531
-0.0441309362649917
-0.0694810450077056
-0.095845878124237
-0.12248495221138
-0.1485298871994018
-0.1731037348508834
-0.1954312622547149
-0.2149229496717453
-0.2312276810407638
-0.2442521452903747
-0.2541500329971313
-0.2612813711166382
-0.2661393284797668
-0.2692568004131317
-0.2711156606674194
-0.2720765173435211
-0.2723420858383178
-0.271958440542221
-0.2708451151847839
-0.268843799829483
-0.2657768130302429
-0.2615022361278534
-0.2559529542922973
-0.2491528391838073
-0.2412098497152328
-0.2322935611009597
-0.2226029336452484
-0.2123293131589889
-0.2016249001026153
-0.1905879378318786
-0.1792683154344558
-0.1676844954490661
-0.1558372378349304
-0.1437179744243621
-0.1313206106424331
-0.1186565160751342
-0.1057628840208053
-0.0927018970251083
-0.0795578807592392
-0.0664339959621429
-0.0534446388483047
-0.0407070145010948
-0.0283348709344863
-0.0164283737540245
-0.005059041082859
0.0057393237948417
0.0159684345126152
0.0256598144769668
0.0348705202341079
0.0436781644821167
0.0521740764379501
0.0604552924633026
0.0686149001121521
0.0767310634255409
0.084856167435646
0.0930053070187568
0.1011427044868469
0.1091683208942413
0.1169109344482421
0.1241339892148971
0.1305576413869857
0.13589408993721
0.1398923397064209
0.142391562461853
0.1433718353509903
0.1429827511310577
0.141535684466362
0.1394578367471695
0.1372253596782684
0.1352985352277755
0.1340689957141876
0.133818507194519
0.1346918940544128
0.1366882473230362
0.1396701335906982
0.1433908343315124
0.1475330293178558
0.1517437398433685
0.1556612849235534
0.1589428037405014
0.1612949520349502
0.1625006347894668
0.1624355167150497
0.161074087023735
0.1584860980510711
0.154823750257492
0.1503015458583831
0.1451706737279892
0.1396923661231994
0.1341133564710617
0.1286420673131942
0.1234287768602371
0.1185543239116668
0.1140216439962387
0.1097514331340789
0.1055962219834327
0.1013769805431366
0.0969275385141372
0.0921296328306198
0.086932823061943
0.0813621953129768
0.0755150467157363
0.0695449560880661
0.0636346340179443
0.0579642802476882
0.052684411406517
0.0478994399309158
0.0436644628643989
0.0399912521243095
0.0368528962135314
0.0341840907931327
0.0318854749202728
0.0298351347446441
0.0279023330658674
0.025961946696043
0.0239082965999841
0.0216630138456821
0.0191759783774614
0.0164249055087566
0.0134160593152046
0.0101827839389443
0.0067791324108839
0.0032728328369557
-0.0002566948533058
-0.0037193072494119
-0.0070241405628621
-0.0101000545546412
-0.0129164420068264
-0.0154957883059978
-0.0179161839187145
-0.0203037727624177
-0.0228162799030542
-0.025618540123105
-0.0288506969809532
-0.0325948856770992
-0.0368511788547039
-0.0415307022631168
-0.0464665852487087
-0.0514366514980793
-0.0561898536980152
-0.0604743026196956
-0.0640687495470047
-0.0668134987354278
-0.068629652261734
-0.0695198625326156
-0.0695554316043853
-0.0688607394695282
-0.06759874522686
-0.0659524947404861
-0.0641031190752983
-0.0622123256325721
-0.0604118816554546
-0.0587962232530117
-0.0574188828468322
-0.0562963522970676
-0.0554145537316799
-0.0547315888106823
-0.0541845001280307
-0.0537062212824821
-0.0532400272786617
-0.0527394898235797
-0.0521607883274555
-0.0514622069895267
-0.0506155043840408
-0.0496218875050544
-0.0485256351530551
-0.0474192947149276
-0.0464337579905986
-0.0457136146724224
-0.0453845672309398
-0.0455206893384456
-0.0461209043860435
-0.0471027418971061
-0.0483150631189346
-0.049564428627491
-0.0506463721394538
-0.0513734295964241
-0.051594290882349
-0.0512033477425575
-0.05014343932271
-0.0484066903591156
-0.0460357591509819
-0.0431211590766906
-0.0397919043898582
-0.03620121255517
-0.0325092822313308
-0.0288666523993015
-0.0254002213478088
-0.0222002957016229
-0.0193143244832754
-0.0167546272277832
-0.0145095065236091
-0.0125465048477053
-0.0108144916594028
-0.009251607581973
-0.0077947895042598
-0.0063847010023891
-0.0049674026668071
-0.0034986324608325
-0.0019522535149008
-0.0003312532790005
0.0013196845538914
0.0029070107266306
0.0042983163148164
0.0053489552810788
0.0059307417832314
0.0059544169344007
0.0053890766575932
0.0042766700498759
0.0027334534097462
0.0009381719864904
-0.0008881050162017
-0.0025091161951422
-0.0037051485851407
-0.0043030912056565
-0.0041981078684329
-0.003361402079463
-0.0018352717161178
0.0002771457657217
0.0028269216418266
0.0056416420266032
0.0085470704361796
0.01137978117913
0.0139936301857233
0.0162679459899663
0.0181202962994575
0.0195175744593143
0.0204776991158723
0.0210608970373868
0.0213544219732284
0.0214564185589551
0.0214630309492349
0.0214595049619674
0.0215147584676742
0.0216792076826095
0.0219858866184949
0.0224482677876949
0.0230439230799675
0.0236922614276409
0.0242501962929964
0.0245325975120067
0.0243472978472709
0.0235356446355581
0.0220084972679615
0.0197686366736888
0.0169191509485244
0.0136568071320652
0.0102460021153092
0.0069786291569471
0.0041341017931699
0.0019472558051347
0.0005858168005943
0.0001392923295497
0.0006136409938335
0.0019274856895208
0.0039191059768199
0.0063692741096019
0.0090333744883537
0.0116752358153462
0.0140942130237817
0.0161401480436325
0.01772016659379
0.0188007913529872
0.0194029454141855
0.0195909235626459
0.0194585900753736
0.0191145669668912
0.0186705570667982
0.0182325597852468
0.0178872849792242
0.0176850333809852
0.0176345445215702
0.0177144594490528
0.0178843103349208
0.018082458525896
0.0182156600058078
0.0181528273969888
0.0177351534366607
0.0168023686856031
0.0152253415435552
0.0129383523017168
0.0099634211510419
0.0064170542173087
0.0024993061088025
-0.0015269643627107
-0.0053674443624913
-0.0087394472211599
-0.0114109218120574
-0.0132229458540678
-0.0140998177230358
-0.0140504576265811
-0.0131601449102163
-0.0115741975605487
-0.0094784423708915
-0.0070799398235976
-0.0045873275958001
-0.0021910541690886
-4.707463085651398e-05
0.0017351175192743
0.0031012622639536
0.0040546082891523
0.0046463096514344
0.0049551511183381
0.0050656720995903
0.0050527760758996
0.0049748164601624
0.0048736110329627
0.0047788913361728
0.0047145625576376
0.0047034542076289
0.0047672963701188
0.0049182940274477
0.0051396344788372
0.0053643444553017
0.0054703159257769
0.0052973823621869
0.0046787457540631
0.0034753833897411
0.0016056047752499
-0.000932237599045
-0.0040479144081473
-0.0075653754174709
-0.0112460348755121
-0.0148196509107947
-0.0180151220411062
-0.0205894336104393
-0.0223532766103744
-0.0231915339827537
-0.0230771321803331
-0.0220737904310226
-0.020323347300291
-0.0180201157927513
-0.0153802083805203
-0.012616541236639
-0.009923942387104
-0.0074672899208962
-0.0053689163178205
-0.0037004346959292
-0.0024819322861731
-0.0016871883999556
-0.0012527883518487
-0.0010890825651586
-0.0010919687338173
-0.00115696224384
-0.0011945846490561
-0.0011388016864657
-0.0009454186074435
-0.0005880231037735
-5.431193858385086e-05
0.0006563880015164
0.0015257517807185
0.0024999387096613
0.0034772991202771
0.0043062074109911
0.0047968905419111
0.0047539891675114
0.0040203244425356
0.0025129015557467
0.0002437336370348
-0.0026742676272988
-0.0060365349054336
-0.0095706395804882
-0.0129706468433141
-0.015933372080326
-0.0181897655129432
-0.0195347853004932
-0.0198577716946601
-0.0191591847687959
-0.0175412390381097
-0.0151813253760337
-0.0123034911230206
-0.0091522531583905
-0.0059676840901374
-0.0029620821587741
-0.0003000472206622
0.0019139817450195
0.0036376554053276
0.0048832315951585
0.0057055484503507
0.0061913463287055
0.0064496705308556
0.0065962644293904
0.0067321150563657
0.0069276583380997
0.0072195511311292
0.0076161818578839
0.0081063415855169
0.0086686108261346
0.0092803193256258
0.009922438301146
0.0105740586295723
0.0111961867660284
0.0117156989872455
0.0120209157466888
0.0119720520451664
0.0114255044609308
0.0102661196142435
0.0084352437406778
0.0059477277100086
0.0028989173006266
-0.0005386607372201
-0.0041298698633909
-0.0076045570895075
-0.0106959082186222
-0.0131751978769898
-0.0148730874061584
-0.0156929679214954
-0.0156195601448416
-0.0147174932062625
-0.013118365779519
-0.0110021959990262
-0.0085758743807673
-0.0060471561737358
-0.0036022269632667
-0.0013951370492577
0.000457182759419
0.0018802810227498
0.0028472524136304
0.0033815973438322
0.0035516978241503
0.0034548128023743
0.0031992606818675
0.0028914480935782
0.0026260698214173
0.0024785532150417
0.0025012320838868
0.0027220577467232
0.0031476246658712
0.0037723798304796
0.0045796833001077
0.0055229160934686
0.006504884455353
0.0073760254308581
0.0079493839293718
0.008026753552258
0.0074343918822705
0.0060616489499807
0.003891430562362
0.0010145680280402
-0.0023748269304633
-0.0060042785480618
-0.0095634926110506
-0.0127461934462189
-0.0152821019291877
-0.0169614851474761
-0.0176580343395471
-0.0173461437225341
-0.0161006860435009
-0.0140771009027957
-0.0114841107279062
-0.0085566509515047
-0.0055288807488977
-0.0026094457134604
3.756862133741379e-05
0.0023036804050207
0.0041368082165718
0.0055329846218228
0.0065261498093605
0.0071798535063862
0.0075797503814101
0.0078274440020322
0.0080302683636546
0.0082813380286097
0.0086394408717751
0.0091214822605252
0.0097107198089361
0.0103757819160819
0.0110877640545368
0.0118256080895662
0.0125692095607519
0.0132826194167137
0.01389548368752
0.0142954774200916
0.0143359452486038
0.0138562768697738
0.0127163240686059
0.0108396625146269
0.0082426648586988
0.0050343880429863
0.0013994832988828
-0.0024218135513365
-0.0061569423414766
-0.0095289703458547
-0.0122858062386512
-0.014228593558073
-0.0152366962283849
-0.0152820767834782
-0.0144265620037913
-0.0128041058778762
-0.0105985375121235
-0.0080217458307743
-0.0052878852002322
-0.0025872606784105
-7.288064807653427e-05
0.0021385573782026
0.0039638727903366
0.0053576971404254
0.0063191130757331
0.0068912249989807
0.0071525974199175
0.0072047137655317
0.0071561653167009
0.0071051870472729
0.0071263471618294
0.0072651575319468
0.0075410800054669
0.0079572172835469
0.0085097532719373
0.0091901514679193
0.0099738594144582
0.0107941702008247
0.0115207405760884
0.0119640519842505
0.0119049893692135
0.0111410180106759
0.0095374127849936
0.0070647690445184
0.0038120723329484
-2.3467844584956765e-05
-0.0041653010994195
-0.0082961656153202
-0.0120977442711591
-0.0152876283973455
-0.0176467392593622
-0.0190326031297445
-0.0193877685815095
-0.0187483914196491
-0.0172397997230291
-0.015054109506309
-0.0124226519837975
-0.0095896599814295
-0.00678376480937
-0.0041910968720912
-0.0019414785783737
-0.0001081228256225
0.001288819941692
0.0022764087188988
0.0029171332716941
0.003294980386272
0.003507025539875
0.003657768247649
0.0038449862040579
0.0041389558464288
0.004570915363729
0.0051385397091507
0.005820695310831
0.0065915617160499
0.0074274963699281
0.0082990024238824
0.0091503802686929
0.0098825199529528
0.0103489803150296
0.0103704603388905
0.0097688045352697
0.0084093483164906
0.0062401383183896
0.0033186357468366
-0.0001892523141577
-0.0040391571819782
-0.0079474402591586
-0.0116247804835438
-0.0148043157532811
-0.0172647386789321
-0.0188457984477281
-0.0194595884531736
-0.0191004667431116
-0.0178464241325855
-0.0158460643142461
-0.0132953524589538
-0.0104111554101109
-0.0074069863185286
-0.004472229629755
-0.0017558615654706
0.0006392586510628
0.0026522795669734
0.0042598475702106
0.0054731136187911
0.0063321702182292
0.0068988678976893
0.0072504756972193
0.0074729993939399
0.007652023807168
0.0078621543943881
0.0081585459411144
0.0085729137063026
0.0091163963079452
0.0097855702042579
0.0105589944869279
0.0113796032965183
0.0121332751587033
0.0126413172110915
0.012681471183896
0.0120341656729578
0.0105363298207521
0.0081257093697786
0.0048639429733157
0.000934820738621
-0.0033779540099203
-0.0077292043715715
-0.0117616597563028
-0.0151543989777565
-0.0176599826663732
-0.0191265027970075
-0.0195026993751525
-0.0188297759741544
-0.0172306261956691
-0.0148987313732504
-0.0120769971981644
-0.0090259239077568
-0.005993228405714
-0.0031907830853015
-0.0007765246555209
0.0011574589880183
0.0025857957080006
0.0035404111258685
0.0040969848632812
0.0043592038564383
0.0044412408024072
0.0044526057317852
0.0044884355738759
0.0046248929575085
0.00491489097476
0.0053812749683856
0.0060156350955367
0.0067870104685425
0.0076464931480586
0.0085162669420242
0.0092738661915063
0.0097502376884222
0.0097480183467268
0.0090757803991436
0.0075902612879872
0.0052336128428578
0.0020538526587188
-0.0017926348373293
-0.0060534244403243
-0.0104064717888832
-0.0145010715350508
-0.0180087275803089
-0.0206671878695487
-0.0223047528415918
-0.0228492133319377
-0.0223265849053859
-0.0208482164889574
-0.0185883603990077
-0.0157592613250017
-0.012588907033205
-0.0093008149415254
-0.0060949902981519
-0.0031331283971667
-0.0005300561897456
0.0016525844112038
0.0034117195755243
0.0047971601597964
0.0058906450867652
0.0067820730619132
0.0075529445894062
0.008269160054624
0.008983333595097
0.0097393197938799
0.010572800412774
0.0115101197734475
0.0125645473599433
0.0137254185974597
0.0149391684681177
0.0160898175090551
0.016993623226881
0.0174195449799299
0.0171348564326763
0.0159574560821056
0.0137945832684636
0.010665338486433
0.0067079435102641
0.0021680523641407
-0.0026281154714524
-0.0073109031654894
-0.0115128830075263
-0.0149140665307641
-0.0172761902213096
-0.018464321270585
-0.0184550918638706
-0.0173288714140653
-0.0152510125190019
-0.0124488677829504
-0.0091827912256121
-0.0057163657620549
-0.0022965995594859
0.0008615301921963
0.0035945959389209
0.0058071478269994
0.007476080674678
0.0086431941017508
0.0093997465446591
0.0098659852519631
0.0101695572957396
0.0104270819574594
0.0107315313071012
0.0111473370343446
0.0117124021053314
0.0124452328309416
0.0133531726896762
0.0144256046041846
0.0156046440824866
0.0167565532028675
0.0176694691181182
0.018081285059452
0.0177274141460657
0.0163940768688917
0.0139661319553852
0.0104600545018911
0.0060329628176987
0.000966184423305
-0.0043725129216909
-0.0095805870369076
-0.0142715238034725
-0.0181123651564121
-0.0208511278033256
-0.0223412550985813
-0.0225558504462242
-0.0215825084596872
-0.0196036770939826
-0.0168693419545888
-0.0136635359376668
-0.0102688437327742
-0.0069370185956358
-0.0038702450692653
-0.0012101072352379
0.0009674138855189
0.0026486902497708
0.0038726329803466
0.0047178925015032
0.0052903043106198
0.0057125277817249
0.0061088511720299
0.0065808538347482
0.0071888957172632
0.0079524647444486
0.0088632330298423
0.0099003231152892
0.0110385427251458
0.0122407749295234
0.0134359691292047
0.0144967883825302
0.0152331097051501
0.015410479158163
0.0147921778261661
0.0131926396861672
0.0105269961059093
0.0068443939089775
0.0023318068124353
-0.0027146828360855
-0.007934134453535
-0.0129448752850294
-0.0173857752233743
-0.0209518074989318
-0.0234201699495315
-0.0246685408055782
-0.0246838945895433
-0.0235554035753011
-0.0214541871100664
-0.0186086352914571
-0.0152790574356913
-0.0117325000464916
-0.0082156481221318
-0.0049277814105153
-0.0020060869865119
0.0004712929367087
0.0024764882400631
0.0040275705978274
0.0051839952357113
0.0060368468984961
0.0066955462098121
0.0072723422199487
0.0078671658411622
0.0085569517686963
0.0093918889760971
0.0103972014039754
0.011577027849853
0.0129163423553109
0.0143745737150311
0.0158703010529279
0.0172638874500989
0.0183476079255342
0.0188572909682989
0.0185147207230329
0.0170906670391559
0.0144641511142253
0.0106591414660215
0.0058529605157673
0.0003577987663447
-0.0054200375452637
-0.0110362470149993
-0.016066875308752
-0.0201543197035789
-0.0230392515659332
-0.024580430239439
-0.0247578453272581
-0.0236642118543386
-0.0214940756559371
-0.0185229536145925
-0.0150693394243717
-0.0114516150206327
-0.0079530207440257
-0.0047964416444301
-0.0021282138768583
-1.2035598047077656e-05
0.0015656824689358
0.0026794397272169
0.0034414946567267
0.0039787730202078
0.0044152596965432
0.0048626908101141
0.005416358821094
0.006145701278001
0.0070803221315145
0.0082074953243136
0.009487209841609
0.0108688687905669
0.0122891115024685
0.0136503390967845
0.0147996209561824
0.015526482835412
0.0155864376574754
0.0147461239248514
0.0128360651433467
0.0097954366356134
0.005699380300939
0.0007633180357515
-0.0046775909140706
-0.0102123422548174
-0.0154138151556253
-0.0198958199471235
-0.0233518611639738
-0.0255765449255704
-0.0264770053327083
-0.026076104491949
-0.0245048496872186
-0.0219817142933607
-0.0187824964523315
-0.015209374949336
-0.0115612801164388
-0.008102192543447
-0.005033147521317
-0.0024770139716565
-0.0004743054450955
0.0010096413316205
0.0020608762279152
0.0027889288030564
0.0033107348717749
0.0037398464046418
0.0041733491234481
0.0046839527785778
0.0053209983743727
0.0061147045344114
0.0070788841694593
0.0082087041810154
0.0094677470624446
0.0107657993212342
0.0119416685774922
0.0127664851024746
0.0129752745851874
0.0123187899589538
0.0106150489300489
0.0077894669957458
0.0039032064378261
-0.0008372219745069
-0.0061002555303275
-0.0114770904183387
-0.0165396332740783
-0.020891323685646
-0.0242038704454898
-0.0262436550110578
-0.0268930923193693
-0.0261613801121711
-0.0241744946688413
-0.0211466439068317
-0.01734603010118
-0.0130677670240402
-0.0086150439456105
-0.0042754397727549
-0.0002904124557971
0.003168361261487
0.0060103214345872
0.0082259364426136
0.0098744351416826
0.0110644809901714
0.0119345681741833
0.0126320216804742
0.0132893733680248
0.0140069657936692
0.0148500874638557
0.0158578380942344
0.0170549266040325
0.0184503495693206
0.0200116168707609
0.0216304082423448
0.0231066141277551
0.0241622198373079
0.0244832020252943
0.0237804148346185
0.021852945908904
0.0186361987143754
0.0142231881618499
0.0088578118011355
0.0029071122407913
-0.0031829394865781
-0.0089451130479574
-0.013947520405054
-0.0178361311554908
-0.0203668363392353
-0.0214294958859682
-0.0210552681237459
-0.0194020755589008
-0.0167227257043123
-0.0133252367377281
-0.0095343142747879
-0.0056579979136586
-0.0019609383307397
0.0013542191591113
0.0041569722816348
0.0063910656608641
0.00806793756783
0.0092534851282835
0.0100548667833209
0.0106080528348684
0.011057767085731
0.0115294596180319
0.012106860987842
0.0128264781087636
0.0136873330920934
0.0146669475361704
0.0157358646392822
0.0168605353683233
0.0179852526634931
0.0190023090690374
0.0197333805263042
0.019938874989748
0.0193569958209991
0.0177599899470806
0.0150105189532041
0.0111042652279138
0.0061853122897446
0.0005296068266034
-0.0054905083961784
-0.0114486161619424
-0.0169125963002443
-0.0214960109442472
-0.0249020103365182
-0.0269491225481033
-0.0275786016136407
-0.0268504582345485
-0.0249300524592399
-0.022064846009016
-0.0185538120567798
-0.0147115923464298
-0.0108313597738742
-0.0071539487689733
-0.0038517171051353
-0.0010295561514794
0.0012662254739552
0.0030416972003877
0.0043513565324246
0.0052888859063386
0.0059699798002839
0.0065131597220897
0.0070254346355795
0.0075944946147501
0.0082842912524938
0.0091320872306823
0.0101502407342195
0.011332057416439
0.0126510057598352
0.0140449292957782
0.015390520915389
0.0164848938584327
0.0170543678104877
0.0167994573712348
0.0154619626700878
0.0128876958042383
0.0090678464621305
0.0041557643562555
-0.0015435153618454
-0.0076134875416755
-0.0135850720107555
-0.0189969949424266
-0.023448996245861
-0.0266434252262115
-0.0284084659069776
-0.0287005472928285
-0.0275955647230148
-0.025277117267251
-0.0220170877873897
-0.0181442257016897
-0.0140047837048769
-0.0099233388900756
-0.0061704413965344
-0.0029403250664472
-0.0003404729068279
0.0016070972196757
0.0029541384428739
0.0038071563467383
0.0043055522255599
0.0045995991677045
0.0048325518146157
0.0051286071538925
0.0055794920772314
0.0062306290492415
0.0070814825594425
0.0081023378297686
0.0092491079121828
0.0104591287672519
0.0116301421076059
0.0126010878011584
0.0131520861759781
0.0130275571718811
0.011979317292571
0.0098233968019485
0.0064929658547043
0.0020679151639342
-0.0032229046337306
-0.0090228272601962
-0.0148928593844175
-0.0203760527074337
-0.0250596776604652
-0.0286193564534187
-0.0308450050652027
-0.0316513553261756
-0.0310756526887416
-0.0292642991989851
-0.0264477077871561
-0.0229075979441404
-0.0189443193376064
-0.0148473810404539
-0.0108719300478696
-0.0072218398563563
-0.0040351981297135
-0.0013759726425632
0.0007588228327222
0.0024200526531785
0.0036886483430862
0.0046644527465105
0.0054573975503444
0.0061754584312438
0.0069109173491597
0.0077331708744168
0.0086893625557422
0.0098065566271543
0.0110914120450615
0.0125225447118282
0.0140316784381866
0.0154818138107657
0.0166622847318649
0.0173126030713319
0.0171634349972009
0.0159814581274986
0.0136192422360181
0.0100609958171844
0.0054441238753497
5.1001959946006536e-05
-0.0057221432216465
-0.0114138256758451
-0.0165564939379692
-0.0207337662577629
-0.0236262157559394
-0.0250420980155468
-0.0249306112527847
-0.0233781151473522
-0.0205883625894784
-0.0168472696095705
-0.0124823208898305
-0.0078298589214682
-0.0032087210565805
0.0011064354330301
0.0049080806784331
0.0080680381506681
0.0105393975973129
0.0123503990471363
0.0135902417823672
0.0143895614892244
0.0148999709635972
0.0152757447212934
0.0156570952385664
0.016154384240508
0.0168397631496191
0.0177519712597131
0.0189083833247423
0.0203121826052665
0.0219460651278495
0.0237502492964267
0.0255942866206169
0.0272635612636804
0.0284746158868074
0.0289159305393695
0.0283050462603569
0.0264536831527948
0.0233244262635707
0.0190608240664005
0.0139836212620139
0.0085545778274536
0.0033194744028151
-0.0011567102046683
-0.0043651107698678
-0.0059344116598367
-0.0056899478659033
-0.0036701089702546
-0.0001024482771754
0.0046510873362421
0.0101667623966932
0.0160327907651662
0.0219116453081369
0.0275849495083093
0.0329764038324356
0.0381480269134044
0.0432682633399963
0.0485520549118518
0.054178163409233
0.0602041557431221
0.0665036439895629
0.0727366656064987
0.0783522874116897
0.0826109647750854
0.0846186280250549
0.0833856910467147
0.0779169052839279
0.0673160851001739
0.0508996471762657
0.0283237621188163
-0.0003012083470821
-0.0343739166855812
-0.0728798657655716
-0.114525020122528
-0.1578371226787567
-0.2012304812669754
-0.2430707514286041
-0.2817429304122925
-0.3157318830490112
-0.3437415361404419
-0.364836722612381
-0.3785591125488281
-0.385013073682785
-0.384959876537323
-0.3798968195915222
-0.3719811141490936
-0.3636796176433563
-0.3572256565093994
-0.3541013598442077
-0.3547035455703735
-0.3582395315170288
-0.3628542423248291
-0.3659721612930298
-0.36479052901268
-0.3568072915077209
-0.3402605354785919
-0.3143951296806335
-0.2795249223709106
-0.2369095683097839
-0.1885056495666504
-0.1366688907146453
-0.083875298500061
-0.0324961245059967
0.0153900980949401
0.0581842362880706
0.0949304103851318
0.1253846138715744
0.149931326508522
0.1693545132875442
0.1845440715551376
0.1962398588657379
