bvp
0.0154608860611915
0.0165832713246345
0.0179760958999395
0.0197419486939907
0.0219121593981981
0.0244494434446096
0.0272618122398853
0.030206374824047
0.0330677665770053
0.0355240553617477
0.0371303595602512
0.0373443216085433
0.0355990901589393
0.0314105153083801
0.0244904030114412
0.0148347318172454
0.0027649644762277
-0.0110854329541325
-0.025835046544671
-0.0404612123966217
-0.0539339259266853
-0.0653468519449234
-0.0740154683589935
-0.0795277282595634
-0.0817495360970497
-0.0807997435331344
-0.0770083144307136
-0.0708650946617126
-0.0629636198282241
-0.0539436675608158
-0.0444344952702522
-0.0350016579031944
-0.0261056572198867
-0.018078276887536
-0.011112667620182
-0.0052674375474452
-0.0004881258355453
0.0033633699640631
0.0064818980172276
0.0090938545763492
0.011431673541665
0.0137097258120775
0.0161038916558027
0.0187380518764257
0.0216792095452547
0.0249395463615655
0.0284828692674636
0.0322286374866962
0.0360410511493682
0.0396993234753608
0.0428657345473766
0.0450758598744869
0.0457690022885799
0.0443674214184284
0.0403915159404277
0.0335780307650566
0.023970017209649
0.0119551233947277
-0.0017605107277631
-0.0162354633212089
-0.0304133221507072
-0.0432573370635509
-0.0538725368678569
-0.0615937113761901
-0.0660331845283508
-0.0670912340283393
-0.0649357214570045
-0.0599609427154064
-0.052732665091753
-0.0439209230244159
-0.0342263579368591
-0.024310402572155
-0.0147384237498044
-0.0059433728456497
0.0017881589010357
0.0083131743595004
0.0136195942759513
0.0178064797073602
0.0210567694157362
0.0236042141914367
0.0257000401616096
0.0275853499770164
0.029471468180418
0.0315233618021011
0.0338429808616638
0.0364618301391601
0.0393503308296203
0.0424374230206012
0.0456267334520816
0.0487939044833183
0.0517566874623298
0.0542312674224376
0.0558053478598594
0.055955845862627
0.0541193634271621
0.0498002469539642
0.0426888316869735
0.0327620804309845
0.0203415621072053
0.00608661910519
-0.0090821310877799
-0.0241042971611022
-0.0379130281507968
-0.0495583415031433
-0.0583064705133438
-0.0637060403823852
-0.0656162798404693
-0.0641961470246315
-0.0598589293658733
-0.0532023608684539
-0.0449282750487327
-0.0357654802501201
-0.0264009051024913
-0.0174208581447601
-0.0092662032693624
-0.0022088987752795
0.0036438591778278
0.0083263125270605
0.0119850300252437
0.0148455863818526
0.0171744301915168
0.0192411728203296
0.0212841480970382
0.0234808269888162
0.0259312279522418
0.0286598280072212
0.0316297970712184
0.0347623042762279
0.0379573814570903
0.0411089621484279
0.0441007204353809
0.0467707775533199
0.0488579496741294
0.0499706752598285
0.0496097058057785
0.0472440272569656
0.0424216277897357
0.034887358546257
0.0246758721768856
0.0121552478522062
-0.0019894395954906
-0.0168289840221405
-0.0313037447631359
-0.0443575270473957
-0.0550674423575401
-0.0627438351511955
-0.0669856220483779
-0.0676954761147499
-0.0650657713413238
-0.0595378205180168
-0.0517360344529151
-0.0423874519765377
-0.032239131629467
-0.0219840686768293
-0.0122042335569858
-0.0033341124653816
0.004355676472187
0.0107560073956847
0.0159022435545921
0.0199461933225393
0.0231181755661964
0.0256865937262773
0.0279227308928966
0.0300675854086875
0.0323022380471229
0.0347340777516365
0.0374015234410762
0.0402876734733581
0.0433374792337417
0.046474564820528
0.0496038049459457
0.05258634313941
0.0551947429776191
0.0570751577615737
0.0577439777553081
0.056634284555912
0.0531901866197586
0.0469884350895881
0.0378562435507774
0.0259508937597274
0.0117748044431209
-0.0038728006184101
-0.0199874937534332
-0.0354787334799766
-0.0493009127676487
-0.0605721995234489
-0.068660132586956
-0.0732271373271942
-0.0742397084832191
-0.0719452425837516
-0.066821165382862
-0.059506706893444
-0.050726443529129
-0.0412125401198864
-0.0316362529993057
-0.0225579775869846
-0.0143973184749484
-0.0074177742935717
-0.001724055968225
0.0027243793010711
0.0060843443498015
0.0085904402658343
0.010513138025999
0.0121194841340184
0.0136423967778682
0.0152619108557701
0.0170968826860189
0.0192041248083114
0.0215848740190267
0.0241997353732585
0.0269873794168233
0.0298699513077735
0.0327271446585655
0.0353443771600723
0.0373676940798759
0.0383010581135749
0.0375590771436691
0.0345649942755699
0.0288725048303604
0.0202834866940975
0.0089311711490154
-0.0046950466930866
-0.0197911523282527
-0.0353368371725082
-0.0502266883850097
-0.0634041875600814
-0.073977306485176
-0.0813056379556655
-0.0850519463419914
-0.0851946622133255
-0.0820029601454734
-0.0759804099798202
-0.0677903667092323
-0.0581760220229625
-0.0478820204734802
-0.0375849083065986
-0.0278396587818861
-0.0190461464226245
-0.0114369597285985
-0.0050848578102886
7.357262074947357e-05
0.0042033465579152
0.007534104399383
0.0103234909474849
0.0128190889954566
0.015225876122713
0.0176893211901187
0.0202947035431861
0.0230742637068033
0.0260154735296964
0.029071856290102
0.0321771837770938
0.035255953669548
0.0382190942764282
0.0409380830824375
0.0432037860155105
0.0446930937469005
0.044974073767662
0.0435614474117755
0.0400030240416526
0.0339741520583629
0.025370355695486
0.0143798096105456
0.0015041260048747
-0.0124874645844101
-0.0266535393893718
-0.0399958379566669
-0.0515741407871246
-0.0606100335717201
-0.0665663033723831
-0.0691879764199256
-0.0685048103332519
-0.064804583787918
-0.058582104742527
-0.050467599183321
-0.0411500930786132
-0.0313136167824268
-0.0215854775160551
-0.0124883791431784
-0.0044017396867275
0.0024566836655139
0.0080275908112525
0.0123907281085848
0.0157327987253665
0.0183059442788362
0.0203842371702194
0.0222265608608722
0.0240481533110141
0.0260023735463619
0.0281774625182151
0.0306044854223728
0.0332635566592216
0.0360854342579841
0.0389591343700885
0.041744377464056
0.0442667938768863
0.0462889224290847
0.0474827960133552
0.0474297925829887
0.0456592328846454
0.0417325682938098
0.0353564620018005
0.0264813657850027
0.015355160459876
0.0025265230797231
-0.011201312765479
-0.0248600412160158
-0.0374330766499042
-0.0479801818728446
-0.0557485371828079
-0.0602530948817729
-0.0613181740045547
-0.0590755455195903
-0.0539208352565765
-0.0464414842426776
-0.037333209067583
-0.0273182392120361
-0.0170728247612714
-0.0071695558726787
0.0019590035080909
0.0100348042324185
0.0169320777058601
0.0226596239954233
0.027326576411724
0.031100396066904
0.0341713055968284
0.0367271453142166
0.0389341861009597
0.0409237965941429
0.0427884310483932
0.0445852279663085
0.0463421903550624
0.0480647236108779
0.0497419610619545
0.0513474307954311
0.052823755890131
0.0540476627647876
0.0547917410731315
0.0547132901847362
0.0533841475844383
0.0503553971648216
0.0452501438558101
0.0378683507442474
0.0282704010605812
0.0168102141469717
0.0041102198883891
-0.0090118069201707
-0.0216467045247554
-0.0329089276492595
-0.0420414581894874
-0.0484938770532608
-0.051968153566122
-0.0524309203028678
-0.0500928871333599
-0.0453649014234542
-0.0388034544885158
-0.0310509093105793
-0.0227700509130954
-0.014577692374587
-0.0069896588101983
-0.0003866055049002
0.0050009614787995
0.0090935993939638
0.0119502339512109
0.0137430019676685
0.0147215006873011
0.0151704046875238
0.0153702851384878
0.0155671946704387
0.0159512422978878
0.0166462901979684
0.0177086628973484
0.0191316101700067
0.0208580680191516
0.0227957926690578
0.0248171985149383
0.026735421270132
0.028269050642848
0.0290237236768007
0.0285166967660188
0.0262479186058044
0.0217982959002256
0.0149294435977935
0.0056626368314027
-0.0056810360401868
-0.0184929408133029
-0.0319438502192497
-0.045091412961483
-0.0570040270686149
-0.0668739825487136
-0.074098527431488
-0.0783239752054214
-0.0794593319296836
-0.0776634067296981
-0.0733058229088783
-0.0669087767601013
-0.0590812414884567
-0.0504536963999271
-0.0416191294789314
-0.0330861657857894
-0.0252463687211275
-0.0183544754981994
-0.012522405013442
-0.0077330558560788
-0.0038727817591279
-0.00076799467206
0.0017829299904406
0.003981611225754
0.00600720429793
0.0080027729272842
0.0100702121853828
0.0122700706124305
0.0146239353343844
0.0171203594654798
0.0197224542498588
0.0223654881119728
0.0249321311712265
0.0272137355059385
0.0288843680173158
0.0295087900012731
0.0285930857062339
0.025676118209958
0.0204416289925575
0.0128165325149893
0.0030267005786299
-0.0084026586264371
-0.0207010768353939
-0.0329492352902889
-0.0441978611052036
-0.053586471825838
-0.0604403726756572
-0.0643335133790969
-0.0651153624057769
-0.0629018694162368
-0.0580348223447799
-0.0510234087705612
-0.0424833670258522
-0.0330770611763
-0.0234499741345644
-0.0141683015972375
-0.0056720692664384
0.00174898840487
0.0079587642103433
0.0129590202122926
0.0168604664504528
0.0198517870157957
0.0221690479665994
0.0240612681955099
0.0257572084665298
0.0274451654404401
0.0292658247053623
0.0313070341944694
0.0335998758673667
0.0361238420009613
0.0388185754418373
0.0415900871157646
0.0442982017993927
0.04672547057271
0.0485501699149608
0.0493485555052757
0.0486377775669097
0.0459571219980716
0.0409708134829998
0.0335638709366321
0.0239030495285987
0.012447970919311
-8.818786591291428e-05
-0.0128234410658478
-0.0248235221952199
-0.0352215245366096
-0.043314341455698
-0.0486262887716293
-0.0509392693638801
-0.0502925738692283
-0.0469562523066997
-0.0413806214928627
-0.0341314598917961
-0.0258254706859588
-0.0170718505978584
-0.0084206853061914
-0.0003216192126274
0.0069064814597368
0.0130915008485317
0.0181996673345565
0.0223056972026824
0.0255579873919487
0.0281474329531192
0.0302797593176364
0.0321519039571285
0.0339331440627574
0.0357525274157524
0.037693802267313
0.039795696735382
0.0420564636588096
0.0444435589015483
0.0469003990292549
0.0493321940302848
0.0515666380524635
0.053314559161663
0.0541596263647079
0.053590603172779
0.0510802567005157
0.0461979880928993
0.038723774254322
0.02873045951128
0.0166149772703647
0.0030734129250049
-0.0109781790524721
-0.0245228838175535
-0.0365730337798595
-0.0462853051722049
-0.053046815097332
-0.0565260089933872
-0.0566859580576419
-0.0537607036530971
-0.0482052192091941
-0.0406337529420852
-0.0317511111497879
-0.0222788713872432
-0.0128850247710943
-0.0041253305971622
0.0035964190028607
0.0100439991801977
0.0151427313685417
0.0189579464495182
0.0216623544692993
0.0234979130327701
0.0247370786964893
0.0256468579173088
0.026461774483323
0.0273692272603511
0.0285014025866985
0.0299275293946266
0.0316511318087577
0.0336194932460784
0.0357398055493831
0.0378845259547233
0.0398710742592811
0.0414226949214935
0.0421424396336078
0.0415305346250534
0.0390488281846046
0.0342188887298107
0.0267355889081954
0.0165678169578313
0.0040154345333576
-0.0102934874594211
-0.0254667606204748
-0.0404608473181724
-0.0542161017656326
-0.0657868385314941
-0.0744435787200927
-0.0797351002693176
-0.0815117135643959
-0.0799143761396408
-0.0753328651189804
-0.0683430135250091
-0.0596352443099021
-0.0499391481280326
-0.0399494469165802
-0.0302644874900579
-0.0213442724198102
-0.0134886121377348
-0.006838091649115
-0.0013975917827337
0.0029312917031347
0.0063209957443177
0.0089884931221604
0.0111634768545627
0.0130630927160382
0.0148772206157445
0.0167576000094413
0.018806928768754
0.021072382107377
0.0235490947961807
0.0261936411261558
0.0289379134774208
0.0316899754106998
0.0343132801353931
0.0365844592452049
0.0381515845656394
0.0385304801166057
0.0371581315994262
0.0334944389760494
0.0271489694714546
0.0180000644177198
0.0062724649906158
-0.0074500814080238
-0.0222837943583726
-0.0371591374278068
-0.0509610138833522
-0.0626686215400695
-0.0714726895093917
-0.076851800084114
-0.0786014050245285
-0.0768240168690681
-0.0718928351998329
-0.0643935576081276
-0.055047258734703
-0.0446242056787014
-0.0338628217577934
-0.0234044194221496
-0.0137483179569244
-0.0052300356328487
0.0019774606917053
0.0078467661514878
0.0124716376885771
0.01603714376688
0.0187852494418621
0.0209803581237792
0.0228790510445833
0.0247032903134822
0.0266169905662536
0.028713472187519
0.0310186147689819
0.0335052236914634
0.0361125953495502
0.0387658029794693
0.0413874611258506
0.0438927337527275
0.0461598858237266
0.0479836985468864
0.0490389131009578
0.048880960792303
0.046993713825941
0.0428813472390174
0.036187969148159
0.0268084872514009
0.0149562507867813
0.0011748634278774
-0.0137065481394529
-0.0286690667271614
-0.042633693665266
-0.0545970015227794
-0.0637463107705116
-0.0695414021611213
-0.0717552453279495
-0.0704700201749801
-0.0660383775830268
-0.0590232834219932
-0.0501240603625774
-0.0400951169431209
-0.0296671465039253
-0.0194848217070102
-0.0100685255602002
-0.0017926441505551
0.0051265023648738
0.0106286164373159
0.0147911217063665
0.0178011246025562
0.0199210252612829
0.0214483216404914
0.0226758308708667
0.0238584615290164
0.0251887068152427
0.0267850700765848
0.028696920722723
0.0309214442968368
0.0334217064082622
0.0361355394124984
0.0389768779277801
0.0418363288044929
0.0445714741945266
0.0469751022756099
0.0487372763454914
0.049433559179306
0.0485592521727085
0.0456079468131065
0.0401774533092975
0.0320780724287033
0.0214152354747056
0.0086237508803606
-0.0055575449950993
-0.0201659500598907
-0.0341317504644393
-0.0464141592383384
-0.0561347864568233
-0.0626777186989784
-0.0657396242022514
-0.0653335824608802
-0.0617551654577255
-0.0555211938917636
-0.0472946912050247
-0.0378071516752243
-0.0277830474078655
-0.0178738534450531
-0.0086113279685378
-0.0003791530616581
0.0065986518748104
0.0122512560337781
0.016643114387989
0.0199450943619012
0.0223923996090888
0.0242423042654991
0.0257413536310195
0.0270998179912567
0.0284747276455163
0.0299658700823783
0.0316238813102245
0.0334615297615528
0.0354604721069335
0.0375766605138778
0.0397491492331028
0.0419056676328182
0.0439503528177738
0.0457279570400714
0.0469795316457748
0.0473166182637214
0.0462390407919883
0.0432079806923866
0.0377603806555271
0.029632095247507
0.0188575312495231
0.0058197509497404
-0.0087663624435663
-0.0239379554986953
-0.0386133417487144
-0.0517337247729301
-0.0623916834592819
-0.0699288547039032
-0.0739904642105102
-0.0745343342423439
-0.07180155813694
-0.0662641003727912
-0.0585619695484638
-0.049431025981903
-0.0396231412887573
-0.0298298019915819
-0.0206226781010627
-0.0124183427542448
-0.0054649538360536
0.0001531874295324
0.0044950423762202
0.0077300267294049
0.0100982068106532
0.0118694473057985
0.0133083192631602
0.0146482596173882
0.0160742923617362
0.0177105590701103
0.0196119397878646
0.0217660889029502
0.0241090022027492
0.026549095287919
0.0289907194674015
0.0313490591943264
0.0335488319396972
0.03549799695611
0.0370406657457351
0.0379126816987991
0.0377268642187118
0.0360065102577209
0.0322690606117248
0.026141146197915
0.0174747742712497
0.0064281485974788
-0.0065183043479919
-0.0206088814884424
-0.0349023565649986
-0.0483875647187233
-0.0601057633757591
-0.0692600980401039
-0.0752972289919853
-0.0779502615332603
-0.0772431939840316
-0.0734644159674644
-0.0671142637729644
-0.0588349439203739
-0.0493345260620117
-0.0393118038773536
-0.0293893013149499
-0.0200696215033531
-0.0117190796881914
-0.0045644333586096
0.0013054562732577
0.0059295743703842
0.009452030993998
0.0120874177664518
0.0140841053798794
0.0156952515244483
0.0171561054885387
0.0186616778373718
0.0203480180352926
0.0222868639975786
0.0244933329522609
0.0269375573843717
0.0295571610331535
0.0322702527046203
0.0349851921200752
0.037603098899126
0.0400051437318325
0.0420209541916847
0.0433939546346664
0.0437659882009029
0.0426950678229332
0.0397154502570629
0.0344360284507274
0.0266506746411323
0.0164278484880924
0.0041540502570569
-0.0094852745532989
-0.0235836617648601
-0.0371288582682609
-0.0491341352462768
-0.0587623678147792
-0.0654158294200897
-0.0687821134924888
-0.0688428357243537
-0.0658491998910904
-0.0602689757943153
-0.0527159422636032
-0.0438737571239471
-0.034424889832735
-0.0249905250966548
-0.0160843878984451
-0.008083252236247
-0.0012143272906541
0.0044422252103686
0.0089371725916862
0.0124221825972199
0.0151090594008564
0.0172313563525676
0.0190168712288141
0.0206667520105838
0.0223402138799428
0.0241478756070137
0.0261506754904985
0.0283619053661823
0.0307554379105567
0.0332799404859542
0.0358719788491725
0.0384630039334297
0.040978580713272
0.0433224849402904
0.0453404411673545
0.0467771589756011
0.0472568534314632
0.0463120900094509
0.0434621423482894
0.0383209958672523
0.0307064931839704
0.0207216180860996
0.008785331621766
-0.004395923577249
-0.0179102998226881
-0.0307596605271101
-0.0419884622097015
-0.0507946610450744
-0.0566104911267757
-0.0591487139463424
-0.0584086552262306
-0.0546493828296661
-0.0483456514775753
-0.0401290096342563
-0.0307135470211505
-0.0208170861005783
-0.0110899470746517
-0.0020603369921445
0.0058976840227842
0.0125729255378246
0.0179067980498075
0.021971583366394
0.0249409731477499
0.027052778750658
0.0285702459514141
0.0297526344656944
0.0308349393308162
0.0320075154304504
0.0333959683775901
0.0350523479282856
0.0369632318615913
0.0390690006315708
0.041284043341875
0.0435124486684799
0.0456528775393962
0.0475798286497592
0.04910309612751
0.0499310567975044
0.0496636219322681
0.0478269755840301
0.043950330466032
0.0376718901097774
0.0288474299013614
0.0176272168755531
0.0044770240783691
-0.0098596038296818
-0.0244450122117996
-0.0382608398795127
-0.0503337308764457
-0.0598516352474689
-0.066250592470169
-0.0692610144615173
-0.0689129903912544
-0.0655067712068557
-0.0595560930669307
-0.0517145060002803
-0.0426964275538921
-0.0332019217312336
-0.0238527804613113
-0.0151493614539504
-0.0074517657049
-0.000976932933554
0.004196950700134
0.0081191882491111
0.0109468158334493
0.0129155190661549
0.0143028702586889
0.0153903467580676
0.0164295900613069
0.0176154691725969
0.0190705824643373
0.0208433046936988
0.0229153633117675
0.0252183098345994
0.027658911421895
0.0301414225250482
0.0325728319585323
0.0348480157554149
0.0368171334266662
0.0382449999451637
0.0387833528220653
0.0379778891801834
0.0353231057524681
0.0303602516651153
0.0227944068610668
0.0125986002385616
7.500126957893372e-05
-0.0141468625515699
-0.0291751250624656
-0.0439656823873519
-0.0574527755379676
-0.0686789453029632
-0.076906643807888
-0.0816926062107086
-0.0829136818647384
-0.0807491540908813
-0.0756313204765319
-0.0681750029325485
-0.0590965077280998
-0.0491336174309253
-0.0389771126210689
-0.0292182862758636
-0.0203128792345523
-0.0125615764409303
-0.0061066057533025
-0.0009429976344108
0.0030580325983464
0.0061136297881603
0.0084840841591358
0.0104311350733041
0.0121895000338554
0.0139497760683298
0.0158501006662845
0.0179747175425291
0.0203560683876276
0.0229786857962608
0.0257871765643358
0.0287006516009569
0.031629778444767
0.0344851501286029
0.037162534892559
0.0395025089383125
0.0412438735365867
0.0419982112944126
0.0412677563726902
0.0385173894464969
0.0332895033061504
0.0253305733203887
0.014692798256874
0.0017809034325182
-0.0126695875078439
-0.0276764705777168
-0.0421364046633243
-0.0549664497375488
-0.0652369186282157
-0.0722736120223999
-0.0757159069180488
-0.0755274295806884
-0.0719654262065887
-0.065524160861969
-0.0568671785295009
-0.0467523895204067
-0.0359523519873619
-0.0251793060451746
-0.0150248650461435
-0.0059211198240518
0.0018732752650976
0.0082664089277386
0.0133129488676786
0.0171828586608171
0.0201239790767431
0.0224252771586179
0.0243809185922145
0.0262557882815599
0.0282594431191682
0.030530210584402
0.0331260524690151
0.036026943475008
0.0391530469059944
0.0423909723758697
0.0456188470125198
0.0487245544791221
0.051608569920063
0.0541597828269004
0.0562046989798545
0.05745754763484
0.0575060471892356
0.0558497570455074
0.0519890822470188
0.0455454140901565
0.036380473524332
0.0246779378503561
0.0109603889286518
-0.0039574848487973
-0.0190626978874206
-0.0332684814929962
-0.0455490238964557
-0.0550620034337043
-0.061238344758749
-0.0638239532709121
-0.062874361872673
-0.0587174519896507
-0.0518972650170326
-0.0431045666337013
-0.0330981872975826
-0.0226241890341043
-0.012345440685749
-0.0027961693704128
0.005638170056045
0.0127291632816195
0.0184050519019365
0.0227363631129264
0.0259089358150959
0.0281866937875747
0.0298686474561691
0.0312487557530403
0.0325829721987247
0.0340655632317066
0.0358181186020374
0.0378921590745449
0.0402792021632194
0.0429220795631408
0.0457313358783721
0.0486042648553848
0.0514285378158092
0.0540601015090942
0.0562824718654155
0.0577666833996772
0.0580595433712005
0.0566189028322696
0.0528940819203853
0.0464371517300605
0.0370209515094757
0.0247342567890882
0.0100272055715322
-0.0063109640032052
-0.023241214454174
-0.0396087989211082
-0.0542891770601272
-0.0663198977708816
-0.0750032216310501
-0.0799642726778984
-0.0811582580208778
-0.0788387581706047
-0.0735026374459266
-0.0658196583390235
-0.0565518885850906
-0.0464708097279071
-0.0362846739590168
-0.0265843104571104
-0.0178086943924427
-0.0102316699922084
-0.0039680073969066
0.0010093990713357
0.0048455623909831
0.0077686998993158
0.0100454781204462
0.0119392219930887
0.0136813819408416
0.0154533348977565
0.0173748303204774
0.0195021610707044
0.0218357536941766
0.0243320390582084
0.0269180163741111
0.0295077636837959
0.0320186987519264
0.0343838185071945
0.0365471951663494
0.0384276658296585
0.0398564040660858
0.0405218228697776
0.0399606972932815
0.0376132652163505
0.0329318009316921
0.0255151633173227
0.0152354873716831
0.0023204758763313
-0.0126340575516223
-0.0287229493260383
-0.0448450595140457
-0.0598454102873802
-0.0726591423153877
-0.0824351757764816
-0.0886222645640373
-0.0910069122910499
-0.0897027775645256
-0.0851032212376594
-0.0778136402368545
-0.0685726478695869
-0.058168388903141
-0.047358438372612
-0.0368021577596664
-0.0270137079060077
-0.0183400698006153
-0.0109610892832279
-0.0049034506082534
-6.377260433509946e-05
0.003759675193578
0.0068301251158118
0.0094340303912758
0.011844745837152
0.014294009655714
0.0169515535235404
0.0199118740856647
0.0231931395828723
0.0267490856349468
0.0304881501942873
0.0342947430908679
0.0380491875112056
0.0416434630751609
0.0449876524507999
0.0479943826794624
0.0505322962999343
0.0523662231862545
0.0531212650239467
0.0523004494607448
0.0493637174367904
0.0438496172428131
0.0355025827884674
0.0243704039603471
0.0108489608392119
-0.0043368432670831
-0.0202118754386901
-0.0356702879071235
-0.0496134459972381
-0.0610853098332881
-0.0693798959255218
-0.0741008594632148
-0.0751726999878883
-0.0728140473365783
-0.0674842223525047
-0.0598149038851261
-0.0505350157618522
-0.0403942801058292
-0.0300950668752193
-0.0202413313090801
-0.0113038150593638
-0.0035971933975815
0.0027309469878673
0.0076939095743
0.0114392796531319
0.0142085505649447
0.0162931159138679
0.0179933197796344
0.0195838082581758
0.0212866459041833
0.0232545305043458
0.0255656260997056
0.0282294526696205
0.0312021523714065
0.0344020910561084
0.037718191742897
0.0410213395953178
0.0441858991980552
0.04710204154253
0.0496551543474197
0.0516757145524024
0.0528905019164085
0.052906759083271
0.0512454211711883
0.0474252961575984
0.0410802885890007
0.0320737846195697
0.0205768533051013
0.0070918258279562
-0.0075868656858801
-0.0224706195294857
-0.0365103892982006
-0.0487297438085079
-0.0583292916417121
-0.0647577568888664
-0.0677530840039253
-0.0673495382070541
-0.0638481751084327
-0.0577590204775333
-0.0497277043759822
-0.040459856390953
-0.0306527949869632
-0.0209384225308895
-0.0118377963081002
-0.0037273494526743
0.0031805168837308
0.008834259584546
0.0133147789165377
0.0167962498962879
0.0195108372718095
0.021716371178627
0.0236640069633722
0.0255694761872291
0.0275932401418685
0.0298318192362785
0.0323177650570869
0.0350274704396724
0.0378975048661232
0.04084337875247
0.0437752567231655
0.0466133058071136
0.0492995157837867
0.0517857186496257
0.0539857968688011
0.0557146370410919
0.0566504076123237
0.0563414767384529
0.0542617999017238
0.0499080270528793
0.0429206602275371
0.0331962294876575
0.0209572501480579
0.0067627411335706
-0.0085450895130634
-0.023947549983859
-0.0383807346224784
-0.0508603677153587
-0.0605859719216823
-0.0670209378004074
-0.069939412176609
-0.0694289803504943
-0.0658520385622978
-0.0597789473831653
-0.0519048273563385
-0.0429623685777187
-0.0336462743580341
-0.0245577618479728
-0.0161663759499788
-0.008787227794528
-0.0025784280151128
0.0024424390867352
0.0063715577125549
0.009388081729412
0.011721596121788
0.013616937212646
0.0152978459373116
0.0169391334056854
0.0186548810452222
0.0205000825226306
0.0224802419543266
0.0245665274560451
0.0267122946679592
0.028864461928606
0.0309696272015571
0.0329786464571952
0.034846294671297
0.0365148484706878
0.0378747284412384
0.0387168228626251
0.0387069210410118
0.037401258945465
0.0343049839138984
0.0289684124290943
0.0211048312485218
0.0106971208006143
-0.001942828297615
-0.0161820910871028
-0.0311380345374345
-0.0457914918661117
-0.0591163262724876
-0.0702032595872879
-0.0783595517277717
-0.0831724777817726
-0.08453119546175
-0.0826070308685302
-0.0778033137321472
-0.0706947445869445
-0.0619652345776557
-0.0523392856121063
-0.0425080806016922
-0.0330633297562599
-0.0244536977261304
-0.0169673562049865
-0.0107332002371549
-0.0057359226047992
-0.0018440331332385
0.0011534756049513
0.0035083875991404
0.0054781096987426
0.0072978609241545
0.0091614611446857
0.0112112537026405
0.0135338604450225
0.0161562375724315
0.0190470553934574
0.0221308395266532
0.0253087878227233
0.0284772980958223
0.0315401665866375
0.0344049260020256
0.0369533002376556
0.0389931313693523
0.0402188040316104
0.0402118004858493
0.0384941361844539
0.0346228964626789
0.028302427381277
0.0194840915501117
0.0084213707596063
-0.0043346202000975
-0.0179904848337173
-0.0316027626395225
-0.0441939979791641
-0.0548711977899074
-0.0629234537482261
-0.0678872838616371
-0.0695780292153358
-0.0680882558226585
-0.0637563690543174
-0.0571109764277935
-0.0487988591194152
-0.0395099967718124
-0.0299094319343566
-0.0205776970833539
-0.0119681572541594
-0.0043908525258302
0.0019859373569488
0.0071295420639216
0.0111294360831379
0.0141697395592927
0.0164910554885864
0.0183512698858976
0.0199935231357812
0.021623458713293
0.0233935676515102
0.0253942999988794
0.0276549831032753
0.030155187472701
0.0328416898846626
0.0356440693140029
0.0384837538003921
0.0412781834602355
0.0439400672912597
0.0463590659201145
0.0483605116605758
0.0496631450951099
0.0498707368969917
0.0485160835087299
0.0451459363102912
0.0394215323030948
0.0312130339443683
0.020667565986514
0.0082324706017971
-0.0053744846954941
-0.0192447230219841
-0.032392781227827
-0.0438815467059612
-0.0529369488358497
-0.0590313449501991
-0.061922512948513
-0.0616506785154342
-0.0585038810968399
-0.0529627874493598
-0.0456341058015823
-0.0371800437569618
-0.0282504633069038
-0.0194253455847501
-0.0111741852015256
-0.0038330480456352
0.0024026930332183
0.0074741858989
0.0114477491006255
0.0144896898418664
0.0168248265981674
0.0186955016106367
0.0203327629715204
0.021935487166047
0.023654805496335
0.0255861636251211
0.0277696903795003
0.0301978625357151
0.0328277722001075
0.035595379769802
0.0384291484951972
0.0412561371922493
0.0439887717366218
0.0464870780706405
0.0485134273767471
0.0497087836265563
0.0496078804135322
0.0476979725062847
0.0435170456767082
0.0367720127105712
0.0274421870708465
0.0158344525843858
0.0025733821094036
-0.0114701772108674
-0.0252920296043157
-0.0378828160464763
-0.0483496487140655
-0.0560127273201942
-0.0604639649391174
-0.0615856051445007
-0.0595343969762325
-0.0547022111713886
-0.0476621836423873
-0.0391001068055629
-0.0297339763492345
-0.0202372148633003
-0.0111813945695757
-0.003001382574439
0.0040220683440566
0.0097657814621925
0.0142532289028167
0.0176277682185173
0.0201147571206092
0.0219806972891092
0.0234943181276321
0.0248961299657821
0.0263803862035274
0.0280819330364465
0.030065294355154
0.0323259234428405
0.0348047688603401
0.037409171462059
0.0400353148579597
0.0425816364586353
0.0449380055069923
0.0469455160200595
0.0483459718525409
0.0487563535571098
0.0476882718503475
0.044611744582653
0.0390581227838993
0.0307463705539703
0.0196945928037166
0.0062728533521294
-0.0088203940540552
-0.0246427655220031
-0.0401273518800735
-0.0542146563529968
-0.0659760385751724
-0.0747101679444313
-0.0800004005432128
-0.0817297399044036
-0.0800618752837181
-0.0754005163908004
-0.0683322474360466
-0.0595557875931263
-0.0498069189488887
-0.0397871658205986
-0.0301007907837629
-0.0212099086493253
-0.013416945002973
-0.0068694651126861
-0.0015749162994325
0.0025793996173888
0.0058000371791422
0.008354615420103
0.0105321761220693
0.0126008791849017
0.0147739816457033
0.0171920284628868
0.0199214369058609
0.0229639299213886
0.0262710265815258
0.0297618545591831
0.0333418399095535
0.0369120016694068
0.0403536669909954
0.0434848479926586
0.046008177101612
0.0474840775132179
0.047356192022562
0.0450338870286941
0.0400128103792667
0.0320027135312557
0.0210290700197219
0.0074802078306674
-0.0079113552346825
-0.0241471752524375
-0.0400843508541584
-0.0545758232474327
-0.0666031688451767
-0.0753860995173454
-0.0804589092731475
-0.0817010402679443
-0.079317919909954
-0.0737840309739112
-0.0657638981938362
-0.05602453276515
-0.0453513860702514
-0.0344757959246635
-0.0240173116326332
-0.0144445998594164
-0.0060586342588067
0.0010034451261162
0.0067507782950997
0.011314702220261
0.0149182779714465
0.0178348701447248
0.0203418284654617
0.0226847492158412
0.0250575188547372
0.0275915712118148
0.0303533021360635
0.033352643251419
0.0365569218993186
0.0399021506309509
0.0433020405471324
0.0466571375727653
0.0498553812503814
0.0527468211948871
0.0550927631556987
0.0565220825374126
0.0565337426960468
0.0545558184385299
0.0500471219420433
0.0426223203539848
0.0321715921163558
0.0189406126737594
0.0035474912729114
-0.0130725996568799
-0.0297836493700742
-0.0453960224986076
-0.0588148906826972
-0.069164402782917
-0.0758689269423484
-0.0786881148815155
-0.077710747718811
-0.0733133479952812
-0.0660947412252426
-0.0567996688187122
-0.0462395548820495
-0.035214252769947
-0.0244398862123489
-0.0144917871803045
-0.0057702120393514
0.0015103928744792
0.0073129842057824
0.0117544494569301
0.0150700863450765
0.0175706595182418
0.0195959992706775
0.0214691441506147
0.0234575606882572
0.0257494300603866
0.0284498333930969
0.0315880142152309
0.0351252630352973
0.038967989385128
0.0429876744747161
0.0470340177416801
0.0509243793785572
0.054406888782978
0.0571208968758583
0.0585871785879135
0.0582440793514251
0.0555310919880867
0.0500059276819229
0.0414648354053497
0.0300334598869085
0.0162030309438705
0.0007988265715539
-0.0151160256937146
-0.0303804166615009
-0.0438840612769126
-0.0546949431300163
-0.0621507540345191
-0.0659088343381881
-0.0659534111618995
-0.0625645667314529
-0.0562583804130554
-0.0477118976414203
-0.0376857556402683
-0.0269504897296428
-0.0162189491093158
-0.0060906577855348
0.0029877582564949
0.0107456324622035
0.0170880127698183
0.0220686756074428
0.0258511938154697
0.0286734215915203
0.0308161899447441
0.0325717069208622
0.0342096537351608
0.0359450057148933
0.0379174537956714
0.0401885248720645
0.0427518226206302
0.0455480702221393
0.0484824441373348
0.0514383576810359
0.0542699620127677
0.0567642971873283
0.0585898160934448
0.0592658296227455
0.0581875741481781
0.0547179095447063
0.0483245626091957
0.0387234985828399
0.0259878244251012
0.0105931274592876
-0.0066138189285993
-0.0245159715414047
-0.0418718010187149
-0.0574744939804077
-0.0702941715717315
-0.0795806646347045
-0.0849186927080154
-0.0862390175461769
-0.0837954357266426
-0.0781147181987762
-0.069922462105751
-0.0600537955760955
-0.0493618175387382
-0.038633607327938
-0.028523527085781
-0.0195095613598823
-0.0118730589747428
-0.0057021183893084
-0.0009162798523902
0.0026926007121801
0.0054098209366202
0.0075490269809961
0.0094165531918406
0.0112864291295409
0.0133736869320273
0.015807993710041
0.0186254158616065
0.0217841751873493
0.0251915119588375
0.0287283826619386
0.0322653576731681
0.0356624275445938
0.0387442260980606
0.0412546135485172
0.0428166314959526
0.0429313667118549
0.0410332083702087
0.0365939550101757
0.0292507465928792
0.0189255829900503
0.0058984942734241
-0.0091917961835861
-0.0254142116755247
-0.0416568219661712
-0.0567628890275955
-0.0696698725223541
-0.0795292407274246
-0.0857905969023704
-0.0882397145032882
-0.0869887471199035
-0.0824275165796279
-0.07515150308609
-0.0658829659223556
-0.0553936809301376
-0.0444298684597015
-0.0336452983319759
-0.0235569588840007
-0.0145291974768042
-0.0067749237641692
-0.0003612996079027
0.0047789355739951
0.008822426199913
0.0120167192071676
0.0146391578018665
0.0169609654694795
0.0192168522626161
0.0215826705098152
0.0241657886654138
0.0270080137997865
0.0300965048372745
0.0333776697516441
0.036772221326828
0.0401888191699981
0.0435291938483715
0.0466776005923748
0.0494700893759727
0.0516498461365699
0.0528335496783256
0.0525178760290145
0.0501420572400093
0.0451995432376861
0.0373676046729087
0.0266171675175428
0.0132754351943731
-0.001974880695343
-0.0181640442460775
-0.0341574922204017
-0.0488033406436443
-0.0610776394605636
-0.0702038407325744
-0.0757246240973472
-0.0775206536054611
-0.0757884755730629
-0.0709871053695678
-0.0637597739696502
-0.0548460371792316
-0.0450003668665885
-0.0349237695336341
-0.025210665538907
-0.0163142513483762
-0.0085307592526078
-0.0019991435110569
0.0032880492508411
0.0074638612568378
0.0107520893216133
0.0134200463071465
0.01573421433568
0.0179295819252729
0.0201904252171516
0.0226401668041944
0.0253399163484573
0.028293577954173
0.0314575210213661
0.034754455089569
0.0380906984210014
0.0413720160722732
0.0445081107318401
0.0473920665681362
0.0498540960252285
0.0516152381896972
0.0522701665759086
0.0513168983161449
0.0482405833899974
0.0426349975168705
0.034325186163187
0.0234547778964042
0.0105133112519979
-0.0037043443880975
-0.0181973315775394
-0.0318930819630622
-0.0437855795025825
-0.0530510768294334
-0.0591275095939636
-0.0617546029388904
-0.0609745308756828
-0.0570958815515041
-0.0506341904401779
-0.0422453731298446
-0.0326565615832805
-0.0225949864834547
-0.0127225443720817
-0.0035823341459035
0.0044390596449375
0.0111275613307952
0.0164353847503662
0.0204574950039386
0.0233945995569229
0.025510910898447
0.0270960293710231
0.0284312069416046
0.0297601819038391
0.0312686152756214
0.0330704413354396
0.0352010689675807
0.0376240983605384
0.0402519926428794
0.0429715737700462
0.0456647537648677
0.0482159033417701
0.0504938885569572
0.0523067452013492
0.0533544570207595
0.0532163865864276
0.0513915754854679
0.047388482838869
0.0408439263701438
0.0316375419497489
0.0199669450521469
0.006359139457345
-0.0083841010928154
-0.0232870317995548
-0.0373238325119018
-0.0495452880859375
-0.0591860152781009
-0.0657358542084693
-0.0689709335565567
-0.0689479261636734
-0.0659691542387008
-0.0605275891721248
-0.0532400049269199
-0.0447771064937114
-0.0357991941273212
-0.0268999263644218
-0.018559655174613
-0.0111182443797588
-0.0047720279544591
0.0004151705652475
0.0044950544834136
0.0076116328127682
0.0099716233089566
0.0118117928504943
0.0133666889742016
0.0148402564227581
0.0163875333964824
0.0181088298559188
0.0200501717627048
0.0222064703702926
0.0245316997170448
0.0269574970006942
0.0294132716953754
0.031831756234169
0.0341276451945304
0.036157302558422
0.0376776121556758
0.0383234471082687
0.0376254543662071
0.0350755080580711
0.0302271656692028
0.0228088311851024
0.0128218121826648
0.0005942899733781
-0.0132297948002815
-0.0277663096785545
-0.0420071333646774
-0.0549469329416751
-0.0656988397240638
-0.0735887214541435
-0.0782202780246734
-0.0794998183846473
-0.0776165425777435
-0.0729889273643493
-0.0661935359239578
-0.0578898750245571
-0.0487501807510852
-0.0393989570438861
-0.0303661916404962
-0.02205815538764
-0.0147440806031227
-0.0085544427856802
-0.0034903017804026
0.0005568761844187
0.0037765549495816
0.0064021376892924
0.0086706327274441
0.0107900314033031
0.0129214832559227
0.0151736596599221
0.0176020227372646
0.0202105399221181
0.0229594036936759
0.0257789548486471
0.0285857319831848
0.0312981754541397
0.0338483974337577
0.0361784882843494
0.0382101126015186
0.0397968292236328
0.0406852811574935
0.0405070781707763
0.0388142690062522
0.0351604670286178
0.029211476445198
0.0208544693887233
0.0102722812443971
-0.0020412504673004
-0.0153299402445554
-0.0286725312471389
-0.0411040335893631
-0.051737368106842
-0.0598641149699687
-0.0650213360786438
-0.0670217871665954
-0.0659478828310966
-0.0621132440865039
-0.0560063049197196
-0.0482299029827117
-0.0394378378987312
-0.0302689485251903
-0.0212873369455337
-0.0129378465935587
-0.0055237375199794
0.0007939562201499
0.0059825470671057
0.010114224627614
0.0133382026106119
0.0158536024391651
0.0178817752748727
0.0196379553526639
0.0213096383959054
0.0230454038828611
0.0249478742480278
0.0270671546459198
0.0294005926698446
0.0319026336073875
0.0345018804073333
0.0371204540133476
0.0396874770522117
0.0421369522809982
0.0443852879106998
0.0462923012673854
0.0476225987076759
0.0480345711112022
0.0471146814525127
0.0444521531462669
0.0397341400384902
0.0328369848430156
0.0238878857344388
0.0132789090275764
0.0016338143032044
-0.0102626988664269
-0.0215635411441326
-0.0314664132893085
-0.0393048152327537
-0.0446104072034359
-0.0471477136015892
-0.0469220876693725
-0.0441589131951332
-0.039259199053049
-0.0327407680451869
