bvp
0.0096943415701389
0.0107879862189292
0.0115925138816237
0.0123109137639403
0.0131093924865126
0.0141028063371777
0.0153509099036455
0.0168615989387035
0.0186003670096397
0.0205045752227306
0.022496722638607
0.0244853626936674
0.0263468287885189
0.0278971772640943
0.0288769546896219
0.0289676394313573
0.0278413388878107
0.0252293497323989
0.0209880582988262
0.0151454396545887
0.0079219928011298
-0.0002779811620712
-0.0089088454842567
-0.0173531360924243
-0.0250012502074241
-0.0313241742551326
-0.0359285548329353
-0.0385906063020229
-0.0392658673226833
-0.0380737781524658
-0.035264104604721
-0.0311754532158374
-0.0261924304068088
-0.0207046139985322
-0.0150745566934347
-0.0096192164346575
-0.0045973705127835
-0.0001972839236259
0.0034725768491625
0.0063868621364235
0.0085981180891394
0.0102207539603114
0.0114070577546954
0.0123225087299942
0.0131260324269533
0.0139575917273759
0.014932133257389
0.0161380916833877
0.0176400542259216
0.0194788202643394
0.0216597840189933
0.0241323858499526
0.0267667490988969
0.0293292365968227
0.0314711444079875
0.0327535234391689
0.0327111184597015
0.0309371948242187
0.0271703489124774
0.0213667079806327
0.0137379607185721
0.0047424407675862
-0.0049666389822959
-0.0146242957562208
-0.0234545692801475
-0.0307701136916875
-0.0360555537045002
-0.0390240922570228
-0.0396356172859668
-0.0380759127438068
-0.0347103923559188
-0.0300226546823978
-0.0245449896901845
-0.0187922418117523
-0.0132084665820002
-0.0081293582916259
-0.0037621022202074
-0.0001848991960287
0.0026363711804151
0.0048206504434347
0.0065375338308513
0.0079712877050042
0.0092886313796043
0.010613459162414
0.0120152244344353
0.0135152507573366
0.0151036884635686
0.016758244484663
0.0184596274048089
0.0201994404196739
0.0219765380024909
0.0237763039767742
0.0255320500582456
0.0270838253200054
0.02816117182374
0.0284059327095747
0.0274324994534254
0.0249126609414815
0.0206606276333332
0.0146906431764364
0.007236523553729
-0.0012645949609577
-0.0102193411439657
-0.0189475566148757
-0.0267636328935623
-0.0330580733716487
-0.0373667404055595
-0.0394189432263374
-0.0391608327627182
-0.0367525927722454
-0.0325399078428745
-0.027005037292838
-0.0207040235400199
-0.0141995707526803
-0.0080038961023092
-0.0025347890332341
0.0019214149797335
0.0052345199510455
0.0074323527514934
0.0086786299943923
0.0092323487624526
0.0093990880995988
0.0094835413619875
0.0097488928586244
0.0103876935318112
0.0115054417401552
0.0131172183901071
0.0151580926030874
0.0175019223242998
0.0199759528040885
0.0223593153059482
0.0243683271110057
0.0256515126675367
0.0258174035698175
0.0244970880448818
0.0214240811765193
0.0165060721337795
0.0098668662831187
0.0018498450517654
-0.0070167365483939
-0.0160877704620361
-0.0246877148747444
-0.0321939252316951
-0.0381017178297042
-0.0420655757188797
-0.0439174957573413
-0.0436685383319854
-0.0414971075952053
-0.0377212390303611
-0.0327549837529659
-0.0270553641021251
-0.0210708156228065
-0.0152024030685424
-0.0097779706120491
-0.0050315489061176
-0.0010899970075115
0.0020254158880561
0.0043826531618833
0.0061150817200541
0.0073973224498331
0.008423020131886
0.0093843955546617
0.0104525042697787
0.0117575703188776
0.0133759612217545
0.015328905545175
0.0175816491246223
0.0200267434120178
0.0224551502615213
0.0245402827858924
0.0258584190160036
0.0259492974728345
0.0244026221334934
0.0209484845399856
0.0155306383967399
0.0083448663353919
-0.0001696217805147
-0.0093840844929218
-0.0185664966702461
-0.0269827768206596
-0.0339915230870246
-0.0391140580177307
-0.0420716479420661
-0.0427916534245014
-0.0413921885192394
-0.0381525121629238
-0.0334703661501407
-0.0278117060661315
-0.0216599609702825
-0.0154670160263776
-0.009610884822905
-0.0043681347742676
9.974604472517969e-05
0.0037495074793696
0.0066427122801542
0.0089144436642527
0.0107373418286442
0.0122921941801905
0.0137468855828046
0.0152422599494457
0.0168825425207614
0.0187305584549903
0.0208081901073455
0.0230966508388519
0.0255299285054206
0.0279761254787445
0.0302090980112552
0.031894389539957
0.032617762684822
0.0319552794098854
0.0295584201812744
0.0252305567264556
0.0189830213785171
0.0110624795779585
0.0019393935799598
-0.0077466182410717
-0.0172716751694679
-0.0259196795523166
-0.0330652929842472
-0.0382390841841697
-0.0411669202148914
-0.0417814068496227
-0.0402111671864986
-0.0367520824074745
-0.0318208150565624
-0.025897903367877
-0.0194745659828186
-0.0130103761330246
-0.006898823659867
-0.0014387313276529
0.0031858577858656
0.0069127636961638
0.0097929378971457
0.0119676906615495
0.0136353317648172
0.0150126004591584
0.0162996165454387
0.017656821757555
0.0191966965794563
0.0209837350994348
0.0230362731963396
0.0253302380442619
0.0277974903583526
0.0303070899099111
0.0326364412903785
0.034457691013813
0.0353603176772594
0.034911036491394
0.03273631259799
0.0286078434437513
0.0225095152854919
0.0146684870123863
0.0055435001850128
-0.0042289327830076
-0.0139192016795277
-0.0227988734841346
-0.0302254222333431
-0.0357061102986335
-0.0389392040669918
-0.0398326739668846
-0.0384969003498554
-0.0352162458002567
-0.0304081756621599
-0.0245711598545312
-0.0182254631072282
-0.0118569415062665
-0.0058718877844512
-0.0005674930289387
0.0038812421262264
0.007420452311635
0.0101045351475477
0.0120733836665749
0.0135242454707622
0.0146828992292284
0.0157710369676351
0.016969995573163
0.018396571278572
0.0201000683009624
0.0220708586275577
0.0242527425289154
0.0265580657869577
0.0288777220994234
0.0310737546533346
0.0329539403319358
0.0342487394809722
0.0346177034080028
0.0336932502686977
0.031149435788393
0.0267808362841606
0.0205726623535156
0.0127355195581913
0.0036921091377735
-0.0059731500223279
-0.0155862579122185
-0.024465549737215
-0.0320002064108848
-0.0377150066196918
-0.0413143709301948
-0.042700320482254
-0.0419645197689533
-0.0393606498837471
-0.0352644994854927
-0.0301273800432682
-0.0244270972907543
-0.0186189636588096
-0.0130912130698561
-0.0081350672990083
-0.0039338027127087
-0.0005625514313578
0.0020056292414665
0.0038834856823086
0.0052436897531151
0.0062886988744139
0.0072199832648038
0.0082105053588747
0.0093857543542981
0.0108161978423595
0.0125190326943993
0.0144658209756016
0.016593774780631
0.0188149511814117
0.0210134573280811
0.0230253525078296
0.0246128570288419
0.0254590641707181
0.0252014268189668
0.0234977751970291
0.0201033093035221
0.0149391815066337
0.0081371571868658
4.697777330875397e-05
-0.0087979305535554
-0.0177482850849628
-0.0261251218616962
-0.0333065427839756
-0.0387987494468688
-0.0422813519835472
-0.0436242371797561
-0.0428817793726921
-0.0402735844254493
-0.036153420805931
-0.0309643819928169
-0.0251864325255155
-0.0192856118083
-0.0136686414480209
-0.008646729402244
-0.0044157789088785
-0.0010543093085289
0.0014670472592115
0.0032675433903932
0.0045293308794498
0.0054645221680402
0.0062835207208991
0.0071721104905009
0.0082751167938113
0.0096808737143874
0.0114133460447192
0.0134381875395774
0.0156772024929523
0.0180246606469154
0.0203574821352958
0.0225294716656208
0.0243516862392425
0.0255766417831182
0.0259056091308593
0.0250263307243585
0.0226748064160347
0.0187058616429567
0.0131519343703985
0.0062491353601217
-0.0015808772295713
-0.0097873527556657
-0.0177658982574939
-0.0249335579574108
-0.0307922475039958
-0.0349758863449096
-0.0372797027230262
-0.0376698747277259
-0.0362728983163833
-0.0333473235368728
-0.0292446166276931
-0.024368155747652
-0.0191326960921287
-0.0139232482761144
-0.0090587045997381
-0.0047664642333984
-0.0011729504913091
0.0016886899247765
0.0038622906431555
0.0054516997188329
0.0066032987087965
0.0074861231260001
0.0082685565575957
0.0090956669300794
0.0100739728659391
0.0112655404955148
0.0126890009269118
0.0143245058134198
0.0161205530166625
0.0180022995918989
0.0198814496397972
0.0216608569025993
0.0232204850763082
0.0243878494948148
0.0249219425022602
0.0245329141616821
0.0229318309575319
0.0198937859386205
0.0153194135054945
0.0092795984819531
0.0020312834531068
-0.0060003632679581
-0.0142720257863402
-0.0221943389624357
-0.0292071439325809
-0.0348419547080993
-0.0387657508254051
-0.0408046618103981
-0.0409485585987567
-0.039339642971754
-0.0362452715635299
-0.0320183932781219
-0.0270555578172206
-0.0217576716095209
-0.0164940934628248
-0.0115724215283989
-0.0072167352773249
-0.0035558808594942
-0.0006221049698069
0.0016401103930547
0.0033555501140654
0.00469351420179
0.0058423499576747
0.0069850850850343
0.0082734487950801
0.0098039219155907
0.0116076860576868
0.0136576276272535
0.0158835388720035
0.0181885082274675
0.0204649288207292
0.0226090066134929
0.024531215429306
0.026158332824707
0.0274213775992393
0.0282293930649757
0.0284443777054548
0.0278778076171875
0.0263167265802621
0.0235735066235065
0.0195403546094894
0.0142304860055446
0.0078025911934673
0.0005644499324262
-0.0070546274073421
-0.0145597327500581
-0.0214558541774749
-0.0273056682199239
-0.0317736528813838
-0.0346553400158882
-0.0358906760811805
-0.0355620943009853
-0.0338787697255611
-0.0311482287943363
-0.0277310721576213
-0.0239772163331508
-0.0201630778610706
-0.016452906653285
-0.0128889810293912
-0.0094020217657089
-0.0058246306143701
-0.001906300894916
0.0026401807554066
0.0080514773726463
0.014427401125431
0.0216907411813735
0.0296002440154552
0.037793543189764
0.0458328053355217
0.0532411225140094
0.0595429949462413
0.0643293708562851
0.0673432424664497
0.0685727894306182
0.0683386325836181
0.0673199146986007
0.0664397105574607
0.0665947347879409
0.0683312118053436
0.0716440826654434
0.076016366481781
0.0806557238101959
0.0847850367426872
0.0878570303320884
0.0896185487508773
0.0900034010410308
0.0889115184545517
0.0860209688544273
0.0807607620954513
0.07242251932621
0.0602880828082561
0.0437230393290519
0.02228844165802
-0.0041060969233512
-0.0350593924522399
-0.0695873647928237
-0.1060879901051521
-0.1423805207014084
-0.1758423596620559
-0.2036352008581161
-0.2230035066604614
-0.2316302061080932
-0.2280047833919525
-0.2117251455783844
-0.1836618930101394
-0.1459413915872573
-0.1017212569713592
-0.0547727197408676
-0.008954195305705
0.0323020070791244
0.0663859248161315
0.0917310342192649
0.1078514158725738
0.1152282282710075
0.1150977313518524
0.109187051653862
0.0994340181350708
0.0877224802970886
0.0756652578711509
0.0644624978303909
0.0548387542366981
0.047042965888977
0.0409019105136394
0.0359194763004779
0.0314089953899383
0.0266415476799011
0.0209822505712509
0.0139884836971759
0.005465917289257
-0.0045119747519493
-0.0156206339597702
-0.0273350365459918
-0.0390042774379253
-0.0499387495219707
-0.0594981275498867
-0.0671671405434608
-0.0726110637187957
-0.0757085159420967
-0.0765547528862953
-0.0754309669137001
-0.0727512165904045
-0.0690021589398384
-0.064681775867939
-0.0602419301867485
-0.0560453943908214
-0.0523452907800674
-0.0492832362651824
-0.0468997098505497
-0.045153222978115
-0.0439435057342052
-0.0431321151554584
-0.0425586923956871
-0.0420596040785312
-0.0414910465478897
-0.0407486408948898
-0.0397816747426986
-0.0386090464890003
-0.0373357757925987
-0.0361542180180549
-0.0353168621659278
-0.0350871682167053
-0.0356838926672935
-0.0372298806905746
-0.0397133827209472
-0.0429702699184417
-0.0466947704553604
-0.0504775792360305
-0.0538614690303802
-0.0564058795571327
-0.0577489510178566
-0.0576495975255966
-0.0560024976730346
-0.0528329722583293
-0.0482804924249649
-0.0425741299986839
-0.036002829670906
-0.0288866106420755
-0.0215491503477096
-0.0142904631793499
-0.0073662213981151
-0.0009773150086402
0.0047370344400405
0.0097087211906909
0.01394784450531
0.0175351575016975
0.0205983817577362
0.0232870429754257
0.0257549174129962
0.0281452350318431
0.0305733419954776
0.0331083983182907
0.0357616096735
0.0384882092475891
0.041203137487173
0.0438028052449226
0.0461832582950592
0.0482468903064727
0.0498941168189048
0.0510100461542606
0.0514641031622886
0.0511237494647502
0.0498740822076797
0.0476457402110099
0.0444504395127296
0.0404074490070343
0.0357450097799301
0.0307784155011177
0.0258753858506679
0.0214145220816135
0.0177412964403629
0.015128768980503
0.0137499645352363
0.0136670917272567
0.014837622642517
0.0171306207776069
0.0203466042876243
0.0242346562445163
0.0285042449831962
0.032844241708517
0.0369579493999481
0.0406011417508125
0.0436071902513504
0.0458954013884067
0.0474654957652092
0.0483845993876457
0.0487710833549499
0.0487751811742782
0.0485572889447212
0.0482656732201576
0.0480169355869293
0.0478862151503562
0.0479089245200157
0.0480841323733329
0.0483754388988018
0.0487208887934684
0.0490552447736263
0.0493279546499252
0.0495004616677761
0.0495202802121639
0.0492837056517601
0.0486128889024257
0.0472692288458347
0.0449992977082729
0.0415939167141914
0.0369451195001602
0.0310882795602083
0.0242186840623617
0.0166811645030975
0.0089318342506885
0.0014749132096767
-0.0052042044699192
-0.0106922201812267
-0.0146878324449062
-0.0170293673872947
-0.0177086405456066
-0.0168670359998941
-0.0147678609937429
-0.0117498375475406
-0.0081769470125436
-0.0043972097337245
-0.0007150303572416
0.0026243720203638
0.0054451525211334
0.007650626823306
0.0092237200587987
0.0102107161656022
0.0107017252594232
0.0108183324337005
0.0107002751901745
0.0104861669242382
0.0102955736219882
0.0102189173921942
0.0103141041472554
0.0106060514226555
0.011088466271758
0.0117291929200291
0.012477901764214
0.0132719026878476
0.0140322679653763
0.0146435275673866
0.014923864044249
0.014608846977353
0.013370175845921
0.0108707007020711
0.0068397354334592
0.001148484647274
-0.0061341011896729
-0.0147213377058506
-0.0241300202906131
-0.0337365269660949
-0.0428555645048618
-0.0508255809545517
-0.0570856146514415
-0.0612352527678012
-0.0630705058574676
-0.0625908076763153
-0.0599855557084083
-0.0556085258722305
-0.0499336384236812
-0.0434912592172622
-0.0368035435676574
-0.0303338691592216
-0.0244499370455741
-0.0193996243178844
-0.0153037263080477
-0.0121644027531147
-0.009883914142847
-0.0082912407815456
-0.0071733761578798
-0.0063059460371732
-0.0054797185584902
-0.0045201703906059
-0.0033013108186423
-0.0017574275843799
0.0001112865284085
0.0022437004372477
0.0045314943417906
0.006840594112873
0.0090344585478305
0.0109816500917077
0.0125371236354112
0.0135130835697054
0.0136662581935524
0.0127146271988749
0.0103813484311103
0.0064572393894195
0.0008678771555423
-0.0062741702422499
-0.0146505208685994
-0.0237591918557882
-0.0329716317355632
-0.0416102297604084
-0.0490292347967624
-0.0546858794987201
-0.0581958852708339
-0.0593685694038867
-0.0582159347832202
-0.0549346730113029
-0.0498681515455246
-0.0434599444270134
-0.0362068973481655
-0.0286135971546173
-0.0211472082883119
-0.0141965225338935
-0.0080470852553844
-0.0028761276043951
0.0012453785166144
0.0043511539697647
0.0065701049752533
0.0081018097698688
0.0091824131086468
0.0100504346191883
0.0109187178313732
0.0119554959237575
0.0132735185325145
0.0149260014295578
0.0169099941849708
0.019175961613655
0.0216433927416801
0.0242179110646247
0.0267906207591295
0.0292087271809577
0.0312409047037363
0.032570369541645
0.0328250564634799
0.0316344164311885
0.0287001244723796
0.0238711573183536
0.0172048527747392
0.0089904572814702
-0.0002704844810068
-0.0099171325564384
-0.0192070081830024
-0.0274073034524917
-0.0338810868561267
-0.0381536930799484
-0.0399578511714935
-0.0392567589879035
-0.0362371355295181
-0.0312703438103199
-0.0248529147356748
-0.017540855333209
-0.0098885530605912
-0.002398582175374
0.0045170783996582
0.0105629563331604
0.0155689166858792
0.019484793767333
0.0223675277084112
0.0243603251874446
0.0256638508290052
0.0265071094036102
0.02711933106184
0.0277015939354896
0.0284064225852489
0.0293287374079227
0.0305042192339897
0.0319158472120761
0.0335071086883544
0.0351961553096771
0.0368890278041362
0.0384838543832302
0.0398530438542366
0.040812574326992
0.0411076508462429
0.0404301211237907
0.0384632237255573
0.0349452868103981
0.0297356266528368
0.0228613428771495
0.0145396124571561
0.0051763476803898
-0.0046662176027894
-0.0143340993672609
-0.0231625400483608
-0.0305543467402458
-0.0360449813306331
-0.0393473953008651
-0.0403715446591377
-0.0392201729118824
-0.0361645519733428
-0.0316044688224792
-0.0260180048644542
-0.0199068821966648
-0.0137477479875087
-0.0079563753679394
-0.0028610976878553
0.0013165519339963
0.0044715711846947
0.0066145998425781
0.0078580845147371
0.0083879046142101
0.0084273349493741
0.0082045262679457
0.0079280184581875
0.007769008167088
0.0078493133187294
0.0082352869212627
0.0089402254670858
0.0099356956779956
0.0111627727746963
0.0125334216281771
0.0139198135584592
0.0151345571503043
0.0159159861505031
0.0159373693168163
0.0148450210690498
0.012318723835051
0.0081430422142148
0.0022714491933584
-0.0051356488838791
-0.0137094827368855
-0.0229083746671676
-0.0320822075009346
-0.040551483631134
-0.0476853102445602
-0.0529718250036239
-0.0560760572552681
-0.0568694993853569
-0.0554250031709671
-0.0519898757338523
-0.0469467490911483
-0.0407649353146553
-0.033948328346014
-0.0269847344607114
-0.0202998053282499
-0.0142244352027773
-0.0089797331020236
-0.0046725021675229
-0.0012980592437088
0.0012468488421291
0.003138720523566
0.0045907841995358
0.0058163530193269
0.0070027555339038
0.0082957409322261
0.0097918268293142
0.0115371700376272
0.0135320099070668
0.0157399140298366
0.0180993899703025
0.020531877875328
0.0229340307414531
0.0251494105905294
0.0269385837018489
0.0279767513275146
0.0278914924710989
0.0263308249413967
0.0230396129190921
0.017923604696989
0.0110913086682558
0.0028688092716038
-0.0062197996303439
-0.0155094694346189
-0.0242792088538408
-0.031843714416027
-0.0376315340399742
-0.0412417575716972
-0.0424781665205955
-0.041358359158039
-0.0380957052111625
-0.0330587476491928
-0.0267178136855363
-0.0195883009582757
-0.0121810846030712
-0.0049646031111478
0.0016686934977769
0.0074319643899798
0.0121603775769472
0.015812911093235
0.0184620879590511
0.0202705822885036
0.0214583948254585
0.0222692713141441
0.0229406356811523
0.0236766673624515
0.0246279649436473
0.0258828792721033
0.0274708531796932
0.0293741896748542
0.0315391197800636
0.03387987986207
0.036278061568737
0.0385730750858783
0.0405399575829505
0.0418727174401283
0.0421970561146736
0.0411175414919853
0.0382898710668087
0.0335021242499351
0.0267430040985345
0.0182373709976673
0.0084389857947826
-0.0020183988381177
-0.0123979374766349
-0.0219460278749465
-0.0299788396805524
-0.0359631106257438
-0.0395743288099765
-0.0407178848981857
-0.0395174585282802
-0.0362807437777519
-0.0314489640295505
-0.0255396626889705
-0.0190901458263397
-0.012603897601366
-0.0065058702602982
-0.0011133262887597
0.0033770287409424
0.006887812167406
0.0094505632296204
0.0111909806728363
0.0123041057959198
0.0130164939910173
0.0135499034076929
0.0140987765043973
0.014818312600255
0.0158167481422424
0.0171500481665134
0.0188205745071172
0.020783519372344
0.0229625422507524
0.0252680443227291
0.0276011414825916
0.0298294648528099
0.0317475199699401
0.0330547466874122
0.0333731025457382
0.0323003828525543
0.0294844899326562
0.0247062779963016
0.0179523564875125
0.0094529679045081
-0.0003275526687502
-0.0107417088001966
-0.0210381150245666
-0.0304552130401134
-0.0383128449320793
-0.0440868325531482
-0.0474600046873092
-0.0483452826738357
-0.046875987201929
-0.0433678813278675
-0.0382673814892768
-0.032098438590765
-0.0254117604345083
-0.0187346786260604
-0.0125220036134123
-0.0071152304299175
-0.0027194810099899
0.0005991868674755
0.0028994637541472
0.0043389061465859
0.0051422077231109
0.0055661788210272
0.0058641005307435
0.0062557361088693
0.0069078984670341
0.0079270489513874
0.0093610128387808
0.0112016703933477
0.0133854784071445
0.0158002749085426
0.0183050166815519
0.0207492988556623
0.0229688938707113
0.0247559789568185
0.0258303247392177
0.0258391387760639
0.0243975427001714
0.0211617797613143
0.0159152615815401
0.0086460830643773
-0.0004071220755577
-0.0107570569962263
-0.0217159129679203
-0.0324824228882789
-0.0422526970505714
-0.0503248125314712
-0.0561747550964355
-0.0594992190599441
-0.0602276809513568
-0.0585080049932003
-0.0546707324683666
-0.0491795055568218
-0.0425739847123622
-0.0354096218943595
-0.0282027907669544
-0.0213895142078399
-0.0152984093874692
-0.0101344445720314
-0.0059730587527155
-0.0027698818594217
-0.0003880125004798
0.0013677277602255
0.0027200600598007
0.0038930824957787
0.0050899954512715
0.0064750951714813
0.0081610232591629
0.0102037843316793
0.0126054352149367
0.0153213217854499
0.0182707756757736
0.0213478785008192
0.0244204346090555
0.027308290824294
0.0297513753175735
0.0313913263380527
0.0317893475294113
0.0304915942251682
0.0271289572119712
0.0215182527899742
0.0137348854914307
0.0041381712071597
-0.0066587049514055
-0.0178651362657547
-0.0286146067082881
-0.0380710586905479
-0.0455253906548023
-0.0504685640335083
-0.0526312068104743
-0.0519898384809494
-0.0487466976046562
-0.0432924591004848
-0.0361601896584034
-0.0279690008610487
-0.0193553306162357
-0.010903000831604
-0.0030893087387084
0.0037467833608388
0.0094197764992713
0.0138975353911519
0.0172836035490036
0.0197844263166189
0.0216668583452701
0.0232133399695158
0.0246835071593523
0.0262886304408311
0.0281789880245924
0.0304370149970054
0.0330732986330986
0.0360328629612922
0.0392136871814727
0.0424878560006618
0.0457135811448097
0.0487259142100811
0.0513025671243667
0.0531266406178474
0.0537825673818588
0.0528038032352924
0.0497604273259639
0.0443609692156314
0.0365419387817382
0.0265234429389238
0.0148175079375505
0.0021807388402521
-0.0104839438572525
-0.0222501456737518
-0.0322840213775634
-0.0399338901042938
-0.0447863787412643
-0.0466887950897216
-0.0457408986985683
-0.0422623008489608
-0.0367419496178627
-0.0297773592174053
-0.0220096111297607
-0.0140564916655421
-0.0064523881301283
0.0003951461985707
0.0062303361482918
0.0109503278508782
0.0145803038030862
0.0172397661954164
0.0191157329827547
0.0204379223287105
0.0214478634297847
0.0223669484257698
0.0233746990561485
0.0246001295745372
0.0261195488274097
0.0279574990272521
0.0300920959562063
0.0324637927114963
0.0349867939949035
0.0375596359372139
0.0400609634816646
0.0423181541264057
0.0440604574978351
0.0448934435844421
0.0443274490535259
0.0418592020869255
0.0370806008577346
0.0297866091132164
0.0200555026531219
0.0082780830562114
-0.0048730988055467
-0.018525680527091
-0.0317192748188972
-0.0435238033533096
-0.0531475469470024
-0.060019414871931
-0.0638328269124031
-0.0645553171634674
-0.0624132379889488
-0.0578502304852008
-0.0514611341059207
-0.0439135693013668
-0.0358712598681449
-0.0279292352497577
-0.0205652005970478
-0.0141089688986539
-0.0087317116558551
-0.004455441609025
-0.0011800527572631
0.0012801028788089
0.0031589539721608
0.0047058509662747
0.0061582215130329
0.0077163381502032
0.0095207784324884
0.0116421692073345
0.0140859354287385
0.0168033689260482
0.0197070986032485
0.0226926691830158
0.0256554521620273
0.0284886732697486
0.0310572236776351
0.0331549383699893
0.0344691127538681
0.0345830880105495
0.0330331921577453
0.0294084381312131
0.0234613455832004
0.0151935648173093
0.0048925746232271
-0.0068836491554975
-0.0193667858839035
-0.0316732078790664
-0.0429176688194274
-0.0523215234279632
-0.0592936426401138
-0.0634788274765014
-0.0647768899798393
-0.0633321404457092
-0.0594971626996994
-0.0537795275449752
-0.0467777326703071
-0.0391127690672874
-0.031364232301712
-0.0240206643939018
-0.0174507461488246
-0.0118907820433378
-0.0074400003068149
-0.0040654796175658
-0.0016235751099884
0.0001044226810336
0.0013741124421358
0.0024441904388368
0.003543856088072
0.0048407018184661
0.0064153699204325
0.0082477964460849
0.0102177038788795
0.0121254110708832
0.0137364910915493
0.0148329334333539
0.0152364168316125
0.0147878797724843
0.0133053380995988
0.0105564864352345
0.0062665794976055
0.0001659491099417
-0.0079291118308901
-0.0180285200476646
-0.029906990006566
-0.0430861376225948
-0.0568622127175331
-0.0703748166561126
-0.0827056765556335
-0.0929874181747436
-0.1004991978406906
-0.1047383099794387
-0.1054657250642776
-0.1027182340621948
-0.0967829003930091
-0.0881444588303566
-0.0774205178022384
-0.0652920678257942
-0.0524362660944461
-0.0394709296524524
-0.0269116498529911
-0.0151398256421089
-0.0043878033757209
0.0052559040486812
0.013826910406351
0.0214567631483078
0.0283419955521821
0.0347106233239173
0.0407836884260177
0.0467419885098934
0.0527095422148704
0.0587511956691741
0.0648764446377754
0.0710471048951149
0.0771894976496696
0.0832047760486602
0.0889628380537033
0.0942709743976593
0.098831795156002
0.1022251844406127
0.1039427816867828
0.1034754812717437
0.1004294231534004
0.0946319326758384
0.0861917436122894
0.0755022913217544
0.0631938949227333
0.0500427559018135
0.0368584245443344
0.024386428296566
0.0132562071084976
0.0039814002811908
-0.0030155517160892
-0.0074024908244609
-0.0089741423726081
-0.0076884664595127
-0.0036666952073574
0.002835638821125
0.0114550534635782
0.0217251144349575
0.033072080463171
0.0448329225182533
0.0563131496310234
0.0668731704354286
0.0760166943073272
0.0834551900625228
0.0891354978084564
0.0932306125760078
0.0961016714572906
0.0982515513896942
0.1002934053540229
0.1029435023665428
0.1070298478007316
0.1134921163320541
0.1233494505286216
0.1376177668571472
0.1571293324232101
0.1822145879268646
0.2123478204011917
0.2459770739078521
0.2806574702262878
0.3134166598320007
0.3412101864814758
0.3613699078559875
0.3719852864742279
0.3721486330032348
0.3620126247406006
0.3426649570465088
0.3158721625804901
0.2837592661380768
0.2484676539897918
0.2118323594331741
0.1751720309257507
0.1392600536346435
0.1044261753559112
0.0706909894943237
0.0378754436969757
0.0056732296943664
-0.0262907445430755
-0.0583719313144683
-0.0907630920410156
-0.1233219504356384
-0.1554411500692367
-0.1860413998365402
-0.2137254625558853
-0.2370644360780716
-0.2549347877502441
-0.2668054401874542
-0.2728905081748962
-0.2741276323795318
-0.2720044553279876
-0.2682954370975494
-0.2647771835327148
-0.2629811763763428
-0.2640200853347778
-0.268496423959732
-0.2764908671379089
-0.2876197397708893
-0.3011422157287597
-0.3160956799983978
-0.3314378261566162
-0.3461745381355285
-0.3594550788402557
-0.3706281781196594
-0.3792643249034881
-0.3851493597030639
-0.3882558941841125
-0.388700395822525
-0.3866943418979645
-0.3825023174285888
-0.3764129877090454
-0.368718534708023
-0.359699010848999
-0.349610686302185
-0.338679701089859
-0.3271015882492065
-0.315043032169342
-0.3026414513587951
-0.2900031208992004
-0.2772046327590942
-0.264298141002655
-0.2513141632080078
-0.2382580041885376
-0.2251058518886566
-0.2118081003427505
-0.1982955336570739
-0.1844850182533264
-0.1702893376350402
-0.1556309461593628
-0.1404552310705185
-0.1247419863939285
-0.1085139065980911
-0.0918392091989517
-0.0748272538185119
-0.0576170608401298
-0.0403671860694885
-0.023255705833435
-0.0064818412065505
0.0097424536943435
0.0252089872956275
0.0397305339574813
0.0531549155712127
0.0653772354125976
0.0763506591320037
0.0860924050211906
0.0946835651993751
0.102264903485775
0.1090279892086982
0.1151996403932571
0.1210190132260322
0.1266984492540359
0.1323487162590026
0.1378829330205917
0.1429697275161743
0.1470953226089477
0.1497206538915634
0.1504687070846557
0.1492761373519897
0.1464630514383316
0.1426976472139358
0.1388621628284454
0.1358633637428283
0.1344438195228576
0.135041281580925
0.1377256959676742
0.1421834975481033
0.1476978808641433
0.1531465202569961
0.1570785492658615
0.1578991413116455
0.154146671295166
0.1448137313127517
0.1296307146549224
0.1092169433832168
0.0850460827350616
0.0592362582683563
0.034221738576889
0.0123917162418365
-0.0042235255241394
-0.0141732394695281
-0.0166975259780883
-0.0117293894290924
0.000200867652893
0.0181314647197723
0.0408650338649749
0.0671553313732147
0.0958537757396698
0.1259940266609192
0.1568088084459304
0.1876964569091797
0.2181642353534698
0.2477727979421615
0.2760973274707794
0.3027043640613556
0.327141672372818
0.3489453792572021
0.3676667213439941
0.3829186856746673
0.3944375813007355
0.4021345376968384
0.4061101377010345
0.4066329300403595
0.404095709323883
0.3989620506763458
0.3917156457901001
0.3828198313713074
0.3726885914802551
0.3616711497306824
0.3500521779060364
0.3380612730979919
0.3258798122406006
0.3136364221572876
0.301388680934906
0.289099633693695
0.2766261696815491
0.2637297511100769
0.2501103579998016
0.2354594469070434
0.2195251286029815
0.2021732628345489
0.1834239065647125
0.163454532623291
0.1425756812095642
0.1211901605129242
0.0997454077005386
0.0786841511726379
0.0583991110324859
0.0391960442066192
0.0212679654359817
0.0046852529048919
-0.0105967372655868
-0.0247192978858947
-0.0378965213894844
-0.050383411347866
-0.0624366402626037
-0.0742768570780754
-0.086062490940094
-0.0978786423802375
-0.1097371876239776
-0.1215845793485641
-0.1333183050155639
-0.1448081731796264
-0.1559155881404876
-0.1665093004703521
-0.1764767169952392
-0.185727059841156
-0.194186270236969
-0.2017954885959625
-0.2085283100605011
-0.2144196778535843
-0.2195832282304763
-0.224207118153572
-0.2285335808992386
-0.2328252345323562
-0.2373188436031341
-0.2421765476465225
-0.2474499642848968
-0.2530661821365356
-0.2588370442390442
-0.2644869089126587
-0.2696910798549652
-0.2741177380084991
-0.2774655520915985
-0.2794950604438782
-0.2800563871860504
-0.2791042029857635
-0.2766903042793274
-0.2729427516460418
-0.2680437266826629
-0.2622072994709015
-0.2556552290916443
-0.2485949546098709
-0.2412047237157821
-0.2336268723011016
-0.2259658426046371
-0.2182877659797668
-0.2106197923421859
-0.202950045466423
-0.1952327638864517
-0.1874044239521026
-0.1794093698263168
-0.1712186336517334
-0.1628293693065643
-0.1542537212371826
-0.145511195063591
-0.1366312652826309
-0.1276666969060897
-0.1187113970518112
-0.1099116206169128
-0.1014629676938057
-0.0935892611742019
-0.0865029022097587
-0.0803586319088935
-0.0752147212624549
-0.0710074231028556
-0.0675481110811233
-0.0645490810275077
-0.0616661980748176
-0.0585441440343856
-0.054858386516571
-0.0503505319356918
-0.0448550134897232
-0.0383153595030307
-0.030785147100687
-0.0224133990705013
-0.0134214404970407
-0.0040756347589194
0.0053428271785378
0.0145683102309703
0.0233775023370981
0.0316078066825866
0.0391619876027107
0.0460000708699226
0.0521293208003044
0.05759809166193
0.062487207353115
0.0668944120407104
0.0709169059991836
0.0746398270130157
0.0781354531645774
0.0814727768301963
0.0847289860248565
0.087989404797554
0.0913272127509117
0.0947644934058189
0.0982301980257034
0.1015380397439003
0.1043922826647758
0.1064139157533645
0.1071838438510894
0.1062982380390167
0.1034258157014846
0.0983581021428108
0.0910376012325286
0.081549733877182
0.0700815320014953
0.0568712875247001
0.0421888493001461
0.0263729840517044
0.00990691781044
-0.0065223574638366
-0.0220282077789306
-0.0356082841753959
-0.0462991967797279
-0.0533623248338699
-0.0564280152320861
-0.0555349141359329
-0.0510608106851577
-0.043600395321846
-0.0338516980409622
-0.022531047463417
-0.010306179523468
0.0022573620080947
0.0147303193807601
0.0268271118402481
0.0383839607238769
0.0493160411715507
0.0595690906047821
0.0690686553716659
0.0776544511318206
0.0850090309977531
0.0906285718083381
0.0938726440072059
0.0940814018249511
0.0907213687896728
0.0835223793983459
0.072578027844429
0.0583905726671218
0.041850060224533
0.0241511315107345
0.0066617131233215
-0.0092329829931259
-0.022283062338829
-0.0314968526363372
-0.0362214893102645
-0.0361876338720321
-0.0315209627151489
-0.0227081775665283
-0.0105180293321609
0.0041016042232513
0.0201292186975479
0.036564216017723
0.0525050312280654
0.0672113597393035
0.0801490992307663
0.0910142585635185
0.0997350886464119
0.1064506396651268
0.1114660874009132
0.1151957288384437
0.1181043460965156
0.1206463947892189
0.1232045143842697
0.1260435134172439
0.129293292760849
0.1329578757286071
0.1369372457265854
0.1410407572984695
0.1449704468250274
0.1482796370983123
0.1503461152315139
0.1503996402025222
0.1476140320301056
0.1412470191717147
0.130797654390335
0.1161451190710067
0.0976342782378196
0.0760811269283294
0.0526918694376945
0.0289195924997329
0.0062900260090827
-0.0137770399451255
-0.0301201418042182
-0.0419393181800842
-0.0488455444574356
-0.0508622601628303
-0.0483849570155143
-0.0421054437756538
-0.0329152792692184
-0.0218056589365005
-0.0097716525197029
0.0022757276892662
0.0135819241404533
0.0235949791967868
0.0319814495742321
0.0386200509965419
0.0435810312628746
0.0470911599695682
0.0494854114949703
0.0511526204645633
0.0524832047522068
0.0538234524428844
0.0554383732378482
0.057488989084959
0.0600300692021846
0.0630232840776443
0.0663520991802215
0.0698213279247284
0.0731257423758506
0.0757929012179374
0.0771426409482956
0.0763167366385459
0.0723945945501327
0.0645665079355239
0.0523216649889946
0.0356051996350288
0.0149009563028812
-0.0087821055203676
-0.0340151712298393
-0.0591237619519233
-0.0823976024985313
-0.1022966057062149
-0.1176152005791664
-0.127584233880043
-0.1319115906953811
-0.1307723671197891
-0.1247561126947403
-0.1147755831480026
-0.1019485592842102
-0.0874699354171752
-0.0724895745515823
-0.0580091029405593
-0.044807955622673
-0.0334035120904445
-0.0240430496633052
-0.016723021864891
-0.0112337172031402
-0.0072207823395729
-0.0042486190795898
-0.0018584057688713
0.0003789216279983
0.0028148964047431
0.0056862011551856
0.0090983211994171
0.0130355879664421
0.017390064895153
0.0219956412911415
0.0266560241580009
0.031153567135334
0.0352238565683364
0.0384979322552681
0.0404482707381248
0.0403893887996673
0.0375553220510482
0.0312365740537643
0.0209430679678916
0.0065570846199989
-0.0115665942430496
-0.0325861647725105
-0.0552482157945632
-0.0780341848731041
-0.0993481948971748
-0.1177112907171249
-0.1319277584552765
-0.1412010043859481
-0.1451907902956009
-0.1440129727125167
-0.138189747929573
-0.1285614967346191
-0.1161731481552124
-0.1021502315998077
-0.0875801742076873
-0.0734132826328277
-0.0603966787457466
-0.0490416437387466
-0.0396141037344932
-0.0321457386016845
-0.0264676883816719
-0.0222604945302009
-0.0191124528646469
-0.0165819525718688
-0.0142554938793182
-0.0117916315793991
-0.0089468508958816
-0.005584992468357
-0.0016733631491661
0.002731867134571
0.0075097158551216
0.0125040486454963
0.0175440087914466
0.0224365070462226
0.0269258692860603
0.0306390076875686
0.0330532416701316
0.0335188060998916
0.0313422381877899
0.0259157791733741
0.0168642774224281
0.0041730999946594
-0.0117370784282684
-0.0300105959177017
-0.0494394861161708
-0.0686140805482864
-0.0861043334007263
-0.1006312891840934
-0.1112052798271179
-0.11721833050251
-0.1184818893671035
-0.1152111142873764
-0.1079655587673187
-0.0975594595074653
-0.0849567055702209
-0.0711641609668731
-0.0571338832378387
-0.0436823815107345
-0.0314331948757171
-0.0207868553698062
-0.0119177065789699
-0.0047931000590324
0.000790923833847
0.0051628835499286
0.0087189562618732
0.0118605680763721
0.0149415284395217
0.0182352140545845
0.021918635815382
0.0260668285191059
0.0306592881679534
0.0356019400060176
0.0407563298940658
0.0459648966789245
0.0510701537132263
0.0559177361428737
0.060324802994728
0.0640225112438201
0.0666141659021377
0.0675827339291572
0.0663504377007484
0.0623782575130462
0.0552890785038471
0.0449869036674499
0.0317378006875515
0.0161866396665573
-0.0006977543234825
-0.0177357606589794
-0.0336834602057933
-0.0473857372999191
-0.0579099915921688
-0.064639151096344
-0.0673135966062545
-0.0660241618752479
-0.0611674636602401
-0.0533772706985473
-0.0434434562921524
-0.0322258621454238
-0.0205689966678619
-0.0092274853959679
0.0011903131380677
0.0102614043280482
0.0177663266658782
0.0236788541078567
0.0281333588063716
0.0313819646835327
0.0337468162178993
0.0355715192854404
0.0371759831905365
0.0388204008340835
0.0406873486936092
0.0428827591240406
0.0454427897930145
0.0483364686369895
0.0514712035655975
0.0547113455832004
0.057905875146389
0.0609129108488559
0.063610553741455
0.0658832937479019
0.0675793439149856
0.0684568211436271
0.0681553781032562
0.0662204101681709
0.062177300453186
0.0556350424885749
0.0463963560760021
0.0345484837889671
0.0205046571791172
0.0049796029925346
-0.0110897310078144
-0.0266576036810874
-0.0406994074583053
-0.0523337796330452
-0.0609142556786537
-0.0660815760493278
-0.0677763745188713
-0.0662176311016082
-0.0618548989295959
-0.0553027316927909
-0.0472667664289474
-0.0384692586958408
-0.029578972607851
-0.0211517475545406
-0.013594539836049
-0.0071586417034268
-0.0019493736326694
0.0020582377910614
0.0049972143024206
0.0070802979171276
0.0085664168000221
0.0097245797514915
0.0108030904084444
0.0120074730366468
0.0134839732199907
0.0153097510337829
0.0174941718578338
0.0199890322983264
0.0227040816098451
0.0255277641117572
0.0283469203859567
0.0310560371726751
0.03354924172163
0.0356884784996509
0.0372582115232944
0.0379369333386421
0.0373098403215408
0.0349291078746318
0.0304088108241558
0.0235276781022548
0.014312332496047
0.0030783805996179
-0.0095820967108011
-0.0228613317012786
-0.0358306281268596
-0.0475532710552215
-0.0572012364864349
-0.0641575455665588
-0.068079687654972
-0.0689118355512619
-0.06685671210289
-0.0623244568705558
-0.0558698177337646
-0.0481247268617153
-0.0397318825125694
-0.0312844924628734
-0.0232783462852239
-0.0160817429423332
-0.0099237654358148
-0.0048976526595652
