bvp
-0.0018074139952659
0.0005673579871654
0.0023448644205927
0.003801129758358
0.0051906229928135
0.0067203687503933
0.0085367010906338
0.0107185887172818
0.0132768182083964
0.0161642543971538
0.0192959755659103
0.0225687082856893
0.0258667673915624
0.0290460605174303
0.0318983122706413
0.0341110192239284
0.0352526903152465
0.034812606871128
0.0322944745421409
0.0273327492177486
0.0197969116270542
0.0098581574857234
-0.0019981283694505
-0.0150191057473421
-0.0282788481563329
-0.0407970920205116
-0.0516601204872131
-0.0601242147386074
-0.0656867697834968
-0.0681203454732894
-0.0674726366996765
-0.0640402659773826
-0.0583243444561958
-0.0509688258171081
-0.0426828116178512
-0.034158319234848
-0.0259994193911552
-0.0186720341444015
-0.0124752204865217
-0.0075333910062909
-0.0038080848753452
-0.0011249389499425
0.00078702904284
0.0022465847432613
0.0035699950531125
0.005030158907175
0.0068305414170026
0.0090909590944647
0.0118443816900253
0.0150476433336734
0.0186018571257591
0.0223742835223674
0.0262130964547395
0.0299420449882745
0.0333284884691238
0.0360434800386428
0.0376506820321083
0.0376469939947128
0.0355491861701011
0.0310031902045011
0.0238851066678762
0.0143652856349945
0.0029193218797445
-0.0097180726006627
-0.0226464122533798
-0.0349170565605163
-0.045649453997612
-0.0541267767548561
-0.0598611980676651
-0.0626244693994522
-0.0624448247253894
-0.0595774725079536
-0.0544567629694938
-0.0476378053426742
-0.0397338829934597
-0.0313552692532539
-0.0230558570474386
-0.0152894360944628
-0.0083770360797643
-0.0024945600889623
0.0023161503486335
0.0061257453635334
0.009095168672502
0.0114497877657413
0.0134476199746131
0.0153455212712287
0.0173670202493667
0.0196769926697015
0.0223695375025272
0.0254673659801483
0.0289262980222702
0.0326437205076217
0.036468781530857
0.0402021929621696
0.0435769036412239
0.0462324805557727
0.0477107763290405
0.0474961139261722
0.0451031811535358
0.0401896610856056
0.0326579958200454
0.0227151699364185
0.010874830186367
-0.0020953591447323
-0.0152694005519151
-0.0276831984519958
-0.0384536832571029
-0.0468751229345798
-0.0524811781942844
-0.0550689809024333
-0.0546880848705768
-0.0516067072749137
-0.0462687462568283
-0.0392413027584552
-0.0311500467360019
-0.0226128026843071
-0.014185057953
-0.0063216937705874
0.0006470689550042
0.0065273097716271
0.0112632792443037
0.014928133226931
0.0176984407007694
0.0198168791830539
0.02155352383852
0.0231716781854629
0.0248998887836933
0.026907343417406
0.0292844548821449
0.0320385694503784
0.0351074486970901
0.0383812747895717
0.0417193584144115
0.0449462011456489
0.0478218272328376
0.0500086583197116
0.0510692447423934
0.0505095422267913
0.0478598363697528
0.0427755042910575
0.0351336449384689
0.0250991526991128
0.0131412521004676
-7.807277143001556e-06
-0.0134462397545576
-0.0262221004813909
-0.0374482050538063
-0.0463970713317394
-0.0525690466165542
-0.055727794766426
-0.0559008531272411
-0.0533491410315036
-0.0485146269202232
-0.0419578477740287
-0.0342935435473918
-0.0261294618248939
-0.0180132947862148
-0.0103899668902158
-0.0035721720196306
0.0022680046968162
0.0070855901576578
0.0109392534941434
0.0139669757336378
0.0163599401712417
0.0183335337787866
0.0200996547937393
0.0218450706452131
0.0237174555659294
0.025817647576332
0.0281961038708686
0.030854744836688
0.0337554439902305
0.0368294119834899
0.0399758666753768
0.0430409237742424
0.0457793213427066
0.0478222221136093
0.0486859567463398
0.0478364080190658
0.0447932258248329
0.0392435267567634
0.0311344489455223
0.0207217037677764
0.0085617378354072
-0.0045508760958909
-0.0176837444305419
-0.0298822335898876
-0.04028295353055
-0.048209361732006
-0.0532334595918655
-0.0551991313695907
-0.0542154908180236
-0.0506267361342906
-0.0449597314000129
-0.0378551036119461
-0.0299919247627258
-0.0220147781074047
-0.0144722107797861
-0.0077748517505824
-0.0021757446229457
0.0022302009165287
0.0054905954748392
0.0077660959213972
0.0092933475971221
0.0103460289537906
0.0111969541758298
0.0120874177664518
0.013204701244831
0.0146635267883539
0.0164972394704818
0.0186661928892135
0.0210788063704967
0.0236151665449142
0.0261413529515266
0.0285001713782548
0.0304781235754489
0.0317736268043518
0.0319947302341461
0.0306973122060298
0.0274602249264717
0.021982530131936
0.0141777452081441
0.0042358469218015
-0.0073703303933143
-0.0199364051222801
-0.0326142087578773
-0.0445142090320587
-0.0548105984926223
-0.0628328844904899
-0.068128228187561
-0.0704926550388336
-0.0699730888009071
-0.0668419227004051
-0.061549499630928
-0.0546624362468719
-0.0467976257205009
-0.0385604500770568
-0.0304921027272939
-0.0230266097933053
-0.0164616089314222
-0.0109511306509375
-0.0065173339098691
-0.0030703525990247
-0.0004335916601121
0.0016240025870501
0.0033527421765029
0.0049895597621798
0.0067304261028766
0.008711265400052
0.0110006788745522
0.0136052165180444
0.0164843387901783
0.0195649545639753
0.0227449964731931
0.0258807763457298
0.0287570003420114
0.0310546923428773
0.0323492661118507
0.0321577824652195
0.0300237573683261
0.0256157331168651
0.0188190471380949
0.0097976326942443
-0.0009934846311807
-0.0128479097038507
-0.0248920619487762
-0.0361984595656394
-0.0459031648933887
-0.0533041954040527
-0.0579272769391536
-0.0595545582473278
-0.0582244992256164
-0.054213099181652
-0.0479924455285072
-0.0401637107133865
-0.031380146741867
-0.022278593853116
-0.0134254582226276
-0.0052743526175618
0.0018636286258697
0.007830174639821
0.0126098021864891
0.0163064822554588
0.0191131122410297
0.0212767366319894
0.0230632983148098
0.024726927280426
0.0264807380735874
0.0284686014056205
0.0307519659399986
0.0333182141184806
0.0361002460122108
0.0389981940388679
0.0418966487050056
0.044665228575468
0.0471347197890281
0.0490623638033866
0.0501138865947723
0.049880675971508
0.0479340367019176
0.043907918035984
0.0375931151211261
0.0290171820670366
0.0184822212904691
0.006548979319632
-0.0060236877761781
-0.0183685030788183
-0.0296134892851114
-0.0389824360609054
-0.0458771847188472
-0.0499337762594223
-0.0510474815964698
-0.0493638888001441
-0.0452408604323864
-0.0391903035342693
-0.0318098366260528
-0.0237168706953525
-0.0154900951310992
-0.0076187970116734
-0.0004710732027888
0.0057132844813168
0.0108178425580263
0.0148402499035
0.0178763791918754
0.0200978405773639
0.0217222459614276
0.022979486733675
0.0240832138806581
0.0252112559974193
0.0264941155910491
0.0280111413449049
0.0297912992537021
0.0318163931369781
0.0340309590101242
0.0363589935004711
0.0387122370302677
0.0409730672836303
0.0429559089243412
0.0443726032972335
0.0448306128382682
0.0438744388520717
0.0410598665475845
0.0360447913408279
0.0286787264049053
0.0190696585923433
0.0076077310368418
-0.0050622136332094
-0.0181124508380889
-0.0306338053196668
-0.0417450517416
-0.0506917610764503
-0.056927353143692
-0.060167483985424
-0.0604052543640136
-0.0578858777880668
-0.0530525408685207
-0.04647983238101
-0.0388060957193374
-0.0306677259504795
-0.0226412340998649
-0.0152011485770344
-0.0086930161342024
-0.0033191815018653
0.0008608776261098
0.0039159464649856
0.0060172663070261
0.0074066175147891
0.0083605665713548
0.0091509856283664
0.0100100832059979
0.0111096873879432
0.0125538017600774
0.0143783073872327
0.0165569595992565
0.0190156456083059
0.0216517150402069
0.0243519768118858
0.0270018968731164
0.0294756442308425
0.0316045880317688
0.0331423804163932
0.0337543524801731
0.0330478027462959
0.0306379254907369
0.0262294262647628
0.0196956470608711
0.011140152812004
0.0009231241419911
-0.0103598460555076
-0.0219437647610902
-0.0329899117350578
-0.0426913201808929
-0.0503690168261528
-0.0555440671741962
-0.0579757280647754
-0.0576663538813591
-0.0548414960503578
-0.0499090664088726
-0.0434002876281738
-0.0359062924981117
-0.0280246026813983
-0.0203128475695848
-0.0132438512519001
-0.0071665626019239
-0.0022818096913397
0.0013612199109047
0.0038505010306835
0.0053839362226426
0.0062320521101355
0.00669531757012
0.0070632928982377
0.0075827506370842
0.0084389708936214
0.009749517776072
0.0115641886368393
0.0138640264049172
0.0165625400841236
0.0195186361670494
0.0225541479885578
0.0254549067467451
0.027953702956438
0.0297167561948299
0.0303522199392318
0.0294473562389612
0.0266346205025911
0.0216762628406286
0.0145430136471986
0.0054610488004982
-0.0050871344283223
-0.0164076630026102
-0.027675112709403
-0.0380340479314327
-0.0467060804367065
-0.05308049172163
-0.0567726716399192
-0.0576469786465168
-0.0558073446154594
-0.0515630170702934
-0.0453781373798847
-0.0378136746585369
-0.0294675529003143
-0.0209184829145669
-0.0126799084246158
-0.0051643224433064
0.0013442980125546
0.0067060990259051
0.0109220715239644
0.0141090042889118
0.0164608396589756
0.01821044459939
0.019596530124545
0.0208361037075519
0.0221061967313289
0.0235335119068622
0.0251904409378767
0.027100009843707
0.0292457714676857
0.0315798893570899
0.0340277776122093
0.0364841297268867
0.0387912541627883
0.0407077260315418
0.0418929904699325
0.0419252477586269
0.0403553135693073
0.0367908738553524
0.0309937335550785
0.0229626037180423
0.0129765924066305
0.0015861829742789
-0.0104473941028118
-0.0222487691789865
-0.0329390466213226
-0.0417424589395523
-0.0480730682611465
-0.0515886954963207
-0.0522085353732109
-0.0500968992710113
-0.0456195287406444
-0.0392871238291263
-0.0316986069083213
-0.0234829820692539
-0.0152378799393773
-0.0074739614501595
-0.0005766628310084
0.0052118971943855
0.0097951721400022
0.0132109085097908
0.015605853870511
0.0172012820839881
0.0182579196989536
0.0190444961190223
0.0198097303509712
0.0207581538707017
0.0220334473997354
0.0237091593444347
0.0257849264889955
0.0281947553157806
0.0308279953896999
0.0335500463843345
0.0362111367285251
0.0386368483304977
0.0406025499105453
0.0418080389499664
0.0418752953410148
0.0403846725821495
0.0369471535086631
0.031295757740736
0.0233727060258388
0.0133872833102941
0.0018260632641613
-0.0105923945084214
-0.023011103272438
-0.034548208117485
-0.0444007329642772
-0.0519269667565822
-0.0567059405148029
-0.0585693009197711
-0.0575997978448867
-0.0540981739759445
-0.0485298670828342
-0.0414652079343795
-0.0335194766521453
-0.0252933297306299
-0.0173195526003837
-0.0100222248584032
-0.0036884155124425
0.0015407176688313
0.0056548519060015
0.008748622611165
0.0109956637024879
0.0126200737431645
0.0138637572526931
0.0149549506604671
0.0160856135189533
0.0173983424901962
0.0189789198338985
0.0208570882678031
0.0230168402194976
0.0254087746143341
0.0279592275619506
0.0305771846324205
0.0331550016999244
0.0355499498546123
0.0375463776290416
0.0388254038989543
0.0389717929065227
0.037527747452259
0.0340828411281108
0.0283740777522325
0.0203694254159927
0.0103154387325048
-0.0012653470039367
-0.0136290937662124
-0.0259031541645526
-0.0371958278119564
-0.0467026829719543
-0.0537916906177997
-0.0580593608319759
-0.0593598596751689
-0.0578081421554088
-0.0537528395652771
-0.047719232738018
-0.0403353087604045
-0.0322577394545078
-0.0241063889116048
-0.0164091438055038
-0.0095617016777396
-0.0038093072362244
0.0007509142160415
0.004154541529715
0.0065450379624962
0.0081426883116364
0.0092128040269017
0.0100343376398086
0.0108653269708156
0.0119079630821943
0.0132856797426939
0.0150405298918485
0.0171476081013679
0.0195370018482208
0.0221136435866355
0.0247697886079549
0.0273845065385103
0.0298032946884632
0.0318041294813156
0.033071182668209
0.0331986844539642
0.0317387767136096
0.0282888691872358
0.0225944500416517
0.0146345300599932
0.0046636899933218
-0.0067956955172121
-0.0190040748566389
-0.0310905836522579
-0.042160902172327
-0.0514050126075744
-0.0581860058009624
-0.0621016696095466
-0.0630139037966728
-0.0610417835414409
-0.0565238669514656
-0.0499637089669704
-0.0419667139649391
-0.0331720188260078
-0.024188682436943
-0.0155476601794362
-0.0076700570061802
-0.0008452143520116
0.0047784717753529
0.0091879144310951
0.0124908965080976
0.0148912761360406
0.0166524667292833
0.0180579684674739
0.0193750113248825
0.0208240654319524
0.022560566663742
0.0246704742312431
0.0271738171577453
0.0300331674516201
0.0331672430038452
0.0364627055823802
0.0397719591856002
0.0428927913308143
0.045540016144514
0.047330766916275
0.0478040128946304
0.0464782454073429
0.0429362133145332
0.0369201563298702
0.0284166987985372
0.017706349492073
0.0053601870313286
-0.0078165056183934
-0.0208815466612577
-0.0328739769756794
-0.0429296940565109
-0.0503792464733123
-0.0548158213496208
-0.0561206527054309
-0.0544464439153671
-0.0501726306974887
-0.0438452027738094
-0.0361080430448055
-0.0276304185390472
-0.0190397873520851
-0.0108699742704629
-0.0035252096131443
0.0027401112020015
0.0078215198591351
0.0117468927055597
0.0146518247202038
0.0167542900890111
0.0183231867849826
0.0196373220533132
0.020945219323039
0.0224368069320917
0.0242292582988739
0.0263666063547134
0.0288305543363094
0.0315558537840843
0.0344458594918251
0.0373886972665786
0.0402678325772285
0.0429513901472091
0.0452562905848026
0.0469084829092025
0.0475297085940837
0.0466683954000473
0.0438708215951919
0.0387745350599288
0.0312044192105531
0.0212491601705551
0.0092964824289083
-0.0039852671325206
-0.0177209824323654
-0.0309421643614768
-0.0427088439464569
-0.0522178187966346
-0.0588889122009277
-0.0624196529388427
-0.0627985149621963
-0.0602765828371048
-0.0553084723651409
-0.0484809167683124
-0.0404462926089763
-0.0318645499646663
-0.0233469922095537
-0.0154044786468148
-0.0084101874381303
-0.0025813654065132
0.00201977789402
0.0054683894850313
0.0079479366540908
0.0097143994644284
0.0110569614917039
0.0122592747211456
0.0135662322863936
0.0151592036709189
0.0171430744230747
0.0195488445460796
0.0223442260175943
0.0254439953714609
0.0287261418998241
0.0320536196231842
0.0352844931185245
0.0382565408945083
0.0407512336969375
0.0424593649804592
0.0429754480719566
0.0418366342782974
0.0386029072105884
0.0329591333866119
0.0248108860105276
0.0143482871353626
0.0020618550479412
-0.0112951900810003
-0.0247949603945016
-0.0374574214220047
-0.0483781099319458
-0.0568326972424984
-0.0623441860079765
-0.0647122785449028
-0.0640102103352546
-0.0605528987944126
-0.0548429489135742
-0.0475039705634117
-0.0392081625759601
-0.0306071415543556
-0.0222759582102298
-0.0146722961217165
-0.0081082442775368
-0.0027373027987778
0.0014371923170983
0.0045344233512878
0.0067614684812724
0.008379858918488
0.0096731977537274
0.010913754813373
0.0123301763087511
0.0140830008313059
0.0162524543702602
0.018840380012989
0.0217849761247634
0.0249807089567184
0.0282970983535051
0.0315929912030696
0.0347168780863285
0.0374840199947357
0.0396367758512496
0.0408148542046546
0.040567398071289
0.038416538387537
0.0339568331837654
0.0269652120769023
0.0174889657646417
0.0058835661038756
-0.0072065498679876
-0.0209153890609741
-0.0342596657574176
-0.0462641194462776
-0.056082148104906
-0.0630869045853614
-0.0669232085347175
-0.0675215944647789
-0.0650824084877967
-0.06003874912858
-0.0529977269470691
-0.0446622669696807
-0.0357492864131927
-0.0269189178943634
-0.0187193565070629
-0.0115478262305259
-0.0056292610242962
-0.001015423098579
0.0023950345348566
0.0048204781487584
0.0065520713105797
0.0079072639346122
0.009187489748001
0.0106475707143545
0.0124755650758743
0.0147787779569625
0.0175802670419216
0.0208288095891475
0.0244173854589462
0.0282041411846876
0.0320283249020576
0.0357096977531909
0.0390247218310833
0.0416716411709785
0.0432516075670719
0.0432893857359886
0.0413008816540241
0.0368943773210048
0.0298787057399749
0.0203472077846527
0.0087093655019998
-0.0043405480682849
-0.0179066658020019
-0.0310046430677175
-0.0426804684102535
-0.0521157868206501
-0.0587095916271209
-0.0621284767985343
-0.0623210221529006
-0.0595007017254829
-0.0541031099855899
-0.0467233955860137
-0.0380428358912467
-0.0287533793598413
-0.0194904003292322
-0.0107815219089388
-0.0030135065317153
0.0035814521834254
0.0089235641062259
0.013072719797492
0.0162030607461929
0.0185646563768386
0.0204409044235944
0.0221107173711061
0.0238187424838542
0.0257525295019149
0.0280263274908065
0.0306747816503047
0.0336601808667182
0.0368928909301757
0.0402591787278652
0.043643943965435
0.0469301789999008
0.0499660670757293
0.0525169968605041
0.0542336255311965
0.0546575598418712
0.0532719120383262
0.049593511968851
0.043288879096508
0.0342794023454189
0.022802498191595
0.0094157978892326
-0.0050539667718112
-0.0196104869246482
-0.0332170017063617
-0.0449245050549507
-0.0539757013320922
-0.0598764643073082
-0.0624314062297344
-0.061740793287754
-0.0581617541611194
-0.05224334821105
-0.0446481332182884
-0.0360736884176731
-0.0271850321441888
-0.0185625236481428
-0.0106646865606307
-0.0038053491152822
0.0018554127309471
0.006305226124823
0.0096570868045091
0.0121174603700637
0.0139525141566991
0.0154498079791665
0.0168758779764175
0.0184440240263938
0.0202996022999286
0.0225158222019672
0.0250966772437095
0.0279890745878219
0.0311008375138044
0.0343171544373035
0.0375140011310577
0.0405682921409606
0.0433529913425445
0.0457066148519516
0.0473902076482772
0.0480624102056026
0.0472948178648948
0.0446299649775028
0.0396724268794059
0.0321951992809772
0.0222323480993509
0.0101282075047492
-0.0034720376133918
-0.0176896043121814
-0.0315245911478996
-0.0439890399575233
-0.0542310290038585
-0.0616278164088726
-0.0658376216888427
-0.0668104961514473
-0.0647660791873931
-0.0601440630853176
-0.0535339936614036
-0.0456012710928916
-0.0370231419801712
-0.0284317769110202
-0.020361129194498
-0.0132055301219224
-0.0071993144229054
-0.0024184649810194
0.0012013837695121
0.00383524550125
0.0057315365411341
0.007172720041126
0.0084385508671402
0.0097758658230304
0.0113758984953165
0.0133593194186687
0.0157734341919422
0.0186000801622867
0.0217634886503219
0.0251383334398269
0.0285688675940036
0.0318969599902629
0.0349813587963581
0.0376909747719764
0.0398704223334789
0.0412970185279846
0.0416572764515876
0.0405626147985458
0.0376090593636035
0.0324697867035865
0.0249948017299175
0.0152876488864421
0.0037374403327703
-0.0090056713670492
-0.0221087224781513
-0.0346643589437007
-0.045802317559719
-0.0547875016927719
-0.0610935762524604
-0.0644444525241851
-0.0648236349225044
-0.0624566636979579
-0.0577701479196548
-0.0513306520879268
-0.0437737107276916
-0.0357355624437332
-0.0277953911572694
-0.0204304605722427
-0.013983380049467
-0.0086455028504133
-0.0044636977836489
-0.0013653254136443
0.0008127698674798
0.0022967047989368
0.0033461479470133
0.0042223930358886
0.005157746374607
0.0063313320279121
0.0078556844964623
0.0097739482298493
0.0120656676590442
0.0146615179255604
0.017463831230998
0.0203666351735591
0.0232672579586505
0.0260561667382717
0.0285807531327009
0.03060251660645
0.031776774674654
0.031671967357397
0.0298298820853233
0.025857325643301
0.0195290502160787
0.0108726508915424
0.0002090828493237
-0.0118623143061995
-0.0245298445224761
-0.0368706211447715
-0.0479646772146225
-0.057001806795597
-0.063367448747158
-0.0667024701833725
-0.0669334232807159
-0.0642631351947784
-0.0591189637780189
-0.0520765744149684
-0.0437823645770549
-0.0348846949636936
-0.0259757582098245
-0.017546709626913
-0.0099588874727487
-0.0034321257844567
0.0019518947228789
0.0062341475859284
0.0095528736710548
0.0121133299544453
0.0141567159444093
0.0159285366535186
0.0176494792103767
0.019494391977787
0.0215810257941484
0.0239679776132106
0.0266606099903583
0.029620474204421
0.032774668186903
0.0360269360244274
0.0392707623541355
0.0423942320048809
0.0452627837657928
0.0476810745894908
0.0493560172617435
0.0498914495110511
0.0488326847553253
0.0457513779401779
0.0403446704149246
0.0325274951756
0.0224967487156391
0.0107435416430234
-0.0019934198353439
-0.0148182567209005
-0.0267901942133903
-0.0370389260351657
-0.0448666624724864
-0.0498210676014423
-0.0517277941107749
-0.0506818890571594
-0.0470078736543655
-0.0412014499306678
-0.0338632240891456
-0.0256344266235828
-0.0171408578753471
-0.0089429812505841
-0.0014915140345692
0.0049059996381402
0.0101015772670507
0.014099670574069
0.0170261468738317
0.0190883763134479
0.0205412544310092
0.0216569378972053
0.0226933676749467
0.0238654613494873
0.0253237523138523
0.0271457955241203
0.0293424986302852
0.0318695306777954
0.0346365123987197
0.0375193953514099
0.0403786338865757
0.0430746003985405
0.0454663634300231
0.0473871305584907
0.0486081391572952
0.0488158985972404
0.0476251542568206
0.0446345433592796
0.0395141765475273
0.0321022756397724
0.0224821157753467
0.011017819866538
-0.0016621449030935
-0.0147379813715815
-0.0273114256560802
-0.0385238341987133
-0.0476547107100486
-0.0541912503540515
-0.0578654557466506
-0.0586609840393066
-0.056792989373207
-0.052663218230009
-0.0467992462217807
-0.0397909395396709
-0.0322320684790611
-0.0246696788817644
-0.0175628270953893
-0.0112517019733786
-0.0059381937608122
-0.0016850857064127
0.0015627440297976
0.003947434015572
0.0056685442104935
0.0069550713524222
0.0080390032380819
0.0091299749910831
0.0103933280333876
0.011937971226871
0.0138136968016624
0.0160143468528985
0.018487986177206
0.0211530942469835
0.0239144135266542
0.0266730729490518
0.0293240547180175
0.0317303389310836
0.0336800813674926
0.0348578058183193
0.034855306148529
0.0332244373857975
0.0295611824840307
0.0236043520271778
0.0153251942247152
0.0049802102148532
-0.0068908706307411
-0.019521377980709
-0.0320153199136257
-0.0434641800820827
-0.0530574992299079
-0.0601694025099277
-0.0644128024578094
-0.065663069486618
-0.064053788781166
-0.0599421262741088
-0.0538494363427162
-0.046391412615776
-0.0382094867527484
-0.0299096591770648
-0.0220110267400741
-0.0149076590314507
-0.0088487369939684
-0.0039367857389152
-0.0001407135277986
0.0026792313437908
0.0047389608807861
0.0062960973009467
0.007617887109518
0.0089514711871743
0.0104954857379198
0.0123792756348848
0.014657063409686
0.0173159874975681
0.0202922187745571
0.0234895907342433
0.0267950221896171
0.0300832875072956
0.0332032740116119
0.0359454303979873
0.0380083881318569
0.0389931201934814
0.0384406708180904
0.0359111055731773
0.031086916103959
0.0238686352968215
0.0144305247813463
0.003227368928492
-0.0090423095971345
-0.0215132255107164
-0.0332619361579418
-0.0434246361255645
-0.0512984246015548
-0.0564103424549102
-0.0585500672459602
-0.0577704571187496
-0.0543613173067569
-0.0487985126674175
-0.0416753813624382
-0.0336288213729858
-0.0252722781151533
-0.0171476416289806
-0.0096963057294487
-0.0032364213839173
0.0020551681518554
0.006146166473627
0.0091355107724666
0.0112257190048694
0.0126826856285333
0.0137911569327116
0.0148170674219727
0.0159811247140169
0.0174411572515964
0.0192836243659257
0.0215272847563028
0.0241383053362369
0.0270513221621513
0.0301831662654876
0.0334247946739196
0.0366101823747158
0.0394766516983509
0.0416412428021431
0.042616706341505
0.0418745279312133
0.0389428026974201
0.0335147902369499
0.0255404561758041
0.0152786187827587
0.0032960486132651
-0.0095898061990737
-0.0224138647317886
-0.0341894887387752
-0.0440312214195728
-0.0512552373111248
-0.0554466247558593
-0.0564842857420444
-0.054524291306734
-0.0499544255435466
-0.0433301925659179
-0.0353012830018997
-0.0265402868390083
-0.0176806896924972
-0.0092665869742631
-0.0017154533416032
0.004705287516117
0.009885149076581
0.0138592366129159
0.0167825873941183
0.0188962053507566
0.0204856321215629
0.0218342989683151
0.0231848321855068
0.024718053638935
0.0265465937554836
0.028717752546072
0.0312205776572227
0.0339942201972007
0.0369396582245826
0.0399331673979759
0.0428284592926502
0.0454338192939758
0.0474727489054203
0.0485589429736137
0.0482159852981567
0.0459504723548889
0.0413553938269615
0.0342111513018608
0.0245655179023742
0.0127761028707027
-0.0005013506743125
-0.0143817998468875
-0.0278654117137193
-0.0399722605943679
-0.049865249544382
-0.0569386035203933
-0.0608637928962707
-0.0615973062813282
-0.0593585334718227
-0.0545826256275177
-0.0478542260825634
-0.0398313738405704
-0.0311752967536449
-0.0224984996020793
-0.0143254185095429
-0.0070574050769209
-0.0009465189650654
0.003913682885468
0.0075767887756228
0.0102158207446336
0.0120851676911115
0.0134759098291397
0.0146722570061683
0.015919180586934
0.0174039639532566
0.0192472748458385
0.0215022787451744
0.0241622012108564
0.0271695964038372
0.0304235778748989
0.0337909162044525
0.0371138751506805
0.0401950031518936
0.0427616797387599
0.044440783560276
0.0447706878185272
0.0432577654719352
0.0394678525626659
0.0331307351589202
0.0242310874164104
0.0130607467144727
0.0002148165367543
-0.0134684415534138
-0.0270098932087421
-0.0394155979156494
-0.0498027801513671
-0.0574989542365074
-0.0621007643640041
-0.0634945109486579
-0.0618423968553543
-0.0575393997132778
-0.0511500239372253
-0.0433354713022708
-0.0347808003425598
-0.026129063218832
-0.0179263614118099
-0.010583359748125
-0.0043575754389166
0.0006490959785878
0.0044826259836554
0.0073123285546898
0.0093867424875497
0.0109824128448963
0.0123629104346036
0.013756918720901
0.015348857268691
0.0172692462801933
0.0195832941681146
0.0222872644662857
0.0253189504146575
0.0285769943147897
0.0319382362067699
0.0352644100785255
0.0383903421461582
0.041093174368143
0.0430596061050891
0.0438746660947799
0.0430501326918602
0.040100559592247
0.0346541814506053
0.0265656374394893
0.0159939210861921
0.0034227082505822
-0.0103808846324682
-0.0244596153497695
-0.0377892293035984
-0.0494048222899436
-0.0585110336542129
-0.0645626410841941
-0.0673068761825561
-0.066785492002964
-0.0633031278848648
-0.0573748499155044
-0.0496609397232532
-0.0408912748098373
-0.0317868962883949
-0.0229893550276756
-0.0150059852749109
-0.0081768110394477
-0.0026644929312169
0.0015359239187091
0.0045710704289376
0.0066904998384416
0.0082015255466103
0.0094248009845614
0.010654566809535
0.0121281333267688
0.0140088982880115
0.0163787044584751
0.0192359946668148
0.022506071254611
0.0260650776326656
0.0297675989568233
0.0334670506417751
0.0370189771056175
0.0402578003704547
0.0429544225335121
0.0447821766138076
0.0453161150217056
0.0440761558711528
0.0406116768717765
0.0346095599234104
0.0259984619915485
0.0150188924744725
0.0022304048761725
-0.0115490090101957
-0.0253475364297628
-0.0381631031632423
-0.0490858852863311
-0.0573973655700683
-0.0626331269741058
-0.0646101981401443
-0.0634226128458976
-0.0594090782105922
-0.0530993454158306
-0.0451462790369987
-0.0362500846385955
-0.0270842444151639
-0.0182339008897542
-0.0101515017449855
-0.0031327581964433
0.0026842849329113
0.0073030777275562
0.0108439773321151
0.0135115031152963
0.0155562851577997
0.0172413326799869
0.0188159421086311
0.0204940401017665
0.0224354416131973
0.0247332379221916
0.0274115335196256
0.0304315313696861
0.0337025448679924
0.0370996221899986
0.0404864363372325
0.0437336526811122
0.046723648905754
0.0493382066488266
0.0514276102185249
0.0527682639658451
0.0530335307121276
0.0518054738640785
0.0486356765031814
0.0431425757706165
0.035119853913784
0.0246262904256582
0.0120322173461318
-0.0019944626837968
-0.016565479338169
-0.0306902807205915
-0.0433988496661186
-0.0538507997989654
-0.0614277683198452
-0.0657954290509224
-0.0669194906949997
-0.0650373622775077
-0.0606001168489456
-0.0542019307613372
-0.0465088374912738
-0.0381904058158397
-0.0298572666943073
-0.022012323141098
-0.0150206796824932
-0.0090970713645219
-0.0043087843805551
-0.0005915330257266
0.0022253019269555
0.0043835463002324
0.006151339970529
0.0077806296758353
0.0094802165403962
0.0114034470170736
0.0136443022638559
0.0162383764982223
0.0191666912287473
0.022363232448697
0.0257290229201316
0.0291506126523017
0.0325155816972255
0.0357203930616378
0.0386660099029541
0.0412351414561271
0.0432554744184017
0.0444638654589653
0.0444921478629112
0.0428981073200702
0.0392473340034484
0.0332243368029594
0.0247376877814531
0.0139857344329357
0.0014661140739917
-0.0120698250830173
-0.025707583874464
-0.0384850688278675
-0.0495076924562454
-0.0580467581748962
-0.0636121779680252
-0.0659899860620498
-0.0652423426508903
-0.0616797097027301
-0.055813267827034
-0.0482898876070976
-0.0398163609206676
-0.031083021312952
-0.022696703672409
-0.0151301994919776
-0.0086924266070127
-0.003522431012243
0.0003963694907724
0.0032085361890494
0.0051501616835594
0.0065086344256997
0.0075833420269191
0.0086517725139856
0.0099422112107276
0.0116090439260005
0.0137152709066867
0.0162340551614761
0.0190684385597705
0.0220796838402748
0.0251188706606626
0.0280562862753868
0.0307998619973659
0.0332951694726944
0.0355012230575084
0.0373404286801815
0.0386411473155021
0.0391083173453807
0.0383451618254184
0.0359249338507652
0.031493566930294
0.0248709470033645
0.0161204766482114
0.0055729746818542
-0.0061962138861417
-0.0184318888932466
-0.0302926637232303
-0.0409531258046627
-0.0496955104172229
-0.0559813901782035
-0.0595005080103874
-0.0601919963955879
-0.0582332946360111
-0.0540017113089561
-0.0480204969644546
-0.0408965945243835
-0.033252228051424
-0.0256610624492168
-0.0186028778553009
-0.0124332793056964
-0.0073616621084511
-0.0034446665085852
-0.0006003892049193
0.0013597309589385
0.0026874258182942
0.0036543076857924
0.0045187631621956
0.0055024679750204
0.0067720995284616
0.0084270145744085
0.0104971211403608
0.0129521442577242
0.0157184358686208
0.018694918602705
0.0217636227607727
0.0247988384217023
0.0276736058294773
0.0302522294223308
0.0323637649416923
0.0337692350149154
0.0341461896896362
0.0331098027527332
0.0302760042250156
0.0253545679152011
0.0182416159659624
0.0090811317786574
-0.0017167776823043
-0.0135008227080106
-0.0254452265799045
-0.0366541370749473
-0.0462849177420139
-0.0536569729447364
-0.0583219416439533
-0.060091808438301
-0.0590324029326438
-0.0554317384958267
-0.0497504919767379
-0.0425604805350303
-0.0344790630042552
-0.0261072181165218
-0.0179769191890954
-0.0105125540867447
-0.0040064444765448
0.0013950066640973
0.0056906854733824
0.0090002194046974
0.0115202758461236
0.013482442125678
0.01512330211699
0.0166608467698097
0.018273789435625
0.0200870614498853
0.0221653301268816
0.0245155505836009
0.0270985122770071
0.0298445280641317
0.032668650150299
0.0354838296771049
0.0382081046700477
0.0407589972019195
0.0430296659469604
0.0448485761880874
0.0459417514503002
0.0459290593862533
0.0443703681230545
0.0408517643809318
0.0350894853472709
0.0270221885293722
0.0168655775487422
0.005117037333548
-0.0074911196716129
-0.0200812462717294
-0.0317441411316394
-0.0416546761989593
-0.0491683296859264
-0.0538824424147605
-0.0556575171649456
-0.054606344550848
-0.0510598979890346
-0.0455158576369285
-0.0385757386684417
-0.0308757424354553
-0.0230176635086536
-0.0155112687498331
-0.0087384954094886
-0.0029382370412349
0.0017941109836101
0.0054922765120863
0.0082916049286723
0.0103961005806922
0.0120455753058195
0.0134860444813966
0.0149450507014989
0.0166069008409976
0.0185886770486831
0.0209303312003612
0.0236032530665397
0.0265287775546312
0.0295985452830791
0.0326922386884689
0.0356917306780815
0.0384936332702636
0.0410157591104507
0.0431813932955265
0.0448747910559177
0.0458903014659881
0.0459101721644401
0.0445328801870346
0.0413483940064907
0.0360355265438556
0.0284542795270681
0.0187151450663805
0.0072076865471899
-0.0054254308342933
-0.0183630678802728
-0.0307090729475021
-0.0416042432188987
-0.0503281839191913
-0.0563748851418495
-0.0594931654632091
-0.0596926622092723
-0.0572192147374153
-0.0525045245885849
-0.0460994020104408
-0.0386037975549697
-0.0306081287562847
-0.0226513314992189
-0.0151869356632232
-0.0085523622110486
-0.0029495125636458
0.0015562009066343
0.0050197155214846
0.007589538116008
0.0094762537628412
0.0109204892069101
0.0121643133461475
0.0134266521781682
0.0148822125047445
0.0166481398046016
0.0187811069190502
0.0212824773043394
0.0241059828549623
0.0271638706326484
0.0303371306508779
0.0334929302334785
0.0364988520741462
0.0392215773463249
0.0415038540959358
0.0431266501545906
0.0437824092805385
0.0430865511298179
0.0406338721513748
0.0360866002738475
0.0292685590684413
0.0202392227947711
0.0093307932838797
-0.0028632446192204
-0.0155543042346835
-0.027865495532751
-0.038946408778429
-0.0480712540447711
-0.0547104105353355
-0.0585696026682853
-0.0595970265567302
-0.0579644478857517
-0.0540288351476192
-0.0482812821865081
-0.0412902794778347
-0.0336460471153259
-0.0259108934551477
-0.0185747183859348
-0.0120142651721835
-0.0064647938124835
-0.0020157834514975
0.0013693626970052
0.0038224793970584
0.0055406866595149
0.0067578051239252
0.0077144643291831
0.0086305458098649
0.009686067700386
0.0110108414664864
0.0126785356551408
0.0147053459659218
0.0170563831925392
0.0196587909013032
0.0224170181900262
0.0252251755446195
0.0279694963246583
0.0305076073855161
0.0326235815882682
0.0339918509125709
0.0341870635747909
0.0327442586421966
0.0292510762810707
0.0234476048499345
0.0153072094544768
0.0050785075873136
-0.0067195063456892
-0.0193488597869873
-0.0319396927952766
-0.0435942187905311
-0.0534905865788459
-0.0609719045460224
-0.0656075328588485
-0.0672240480780601
-0.0659080371260643
-0.0619792267680168
-0.0559374615550041
-0.0483944527804851
-0.0400018654763698
-0.0313850231468677
-0.0230873860418796
-0.0155305415391922
-0.0089926151558756
-0.0036023901775479
0.0006520487368106
0.003899585455656
0.0063517182134091
0.0082661025226116
0.0099146692082285
0.01155268214643
0.0133849950507283
0.0155428098514676
0.0180804822593927
0.0209854152053594
0.0241940356791019
0.0276090577244758
0.0311160050332546
0.0345989912748336
0.0379481762647628
0.0410462357103824
0.0437298119068145
0.045743890106678
0.0467222109436988
0.0462159514427185
0.0437694452702999
0.0390203632414341
0.0317955836653709
0.0221836026757955
0.0105671044439077
-0.0023976806551218
-0.0158518441021442
-0.0288400929421186
-0.0404316969215869
-0.0498311631381511
-0.0564603209495544
-0.0600059702992439
-0.060432281345129
-0.0579591356217861
-0.0530148856341838
-0.0461738109588623
-0.038084864616394
-0.0294025298207998
-0.0207293089479208
-0.0125711318105459
-0.005306189879775
0.0008322577923536
0.0057602003216743
0.0095332320779562
0.0123218651860952
0.0143749415874481
0.0159772597253322
0.0174086857587099
0.0189117193222045
0.0206694714725017
0.0227941758930683
0.025329653173685
0.0282631907612085
0.0315341353416442
0.0350384190678596
0.0386396646499633
0.0421882048249244
0.045534648001194
0.0485213957726955
0.0509484186768531
0.052533134818077
0.0528956279158592
0.0515887029469013
0.0481704473495483
0.0423021055757999
0.0338490344583988
0.0229559559375047
0.0100727323442697
-0.0040741981938481
-0.0185613241046667
-0.0323868580162525
-0.0446005538105964
-0.0544145479798316
-0.0612775310873985
-0.064909279346466
-0.0653037056326866
-0.0627062767744064
-0.0575680062174797
-0.0504827126860618
-0.0421180203557014
-0.0331484824419021
-0.0241939462721347
-0.0157681554555892
-0.0082457289099693
-0.0018476918339729
0.0033551938831806
0.0074203955009579
0.0105024399235844
0.0128221251070499
0.0146361486986279
0.0162062831223011
0.0177702605724334
0.019518956542015
0.0215816255658864
0.0240197591483593
0.0268312357366085
0.0299613140523433
0.033316072076559
0.0367773883044719
0.0402192175388336
0.0435214303433895
0.0465666092932224
0.0492060109972953
0.0512063167989254
0.0522111840546131
0.0517468303442001
0.0492791719734668
0.0443132631480693
0.0365164503455162
0.0258331410586833
0.0125533817335963
-0.0026840604841709
-0.0189513489603996
-0.0351405702531337
-0.0500983335077762
-0.0627557262778282
-0.0722326040267944
-0.0779137760400772
-0.0794976204633712
-0.0770099014043808
-0.070784293115139
-0.0614232756197452
-0.049746073782444
-0.0367219522595405
-0.0233904831111431
-0.0107706617563962
0.0002395748160779
0.0089589022099971
0.0149938892573118
0.018276173621416
0.0190601926296949
0.0178788509219884
0.0154630681499838
0.0126343742012977
0.0101847592741251
0.0087692188099026
0.0088273119181394
0.0105290077626705
0.0137360729277133
0.0179811846464872
0.0224793367087841
0.0261820536106824
0.0278743635863065
0.0263163670897483
0.0204213894903659
0.009436241351068
-0.0069178277626633
-0.028368879109621
-0.0540900267660617
-0.082763448357582
-0.1127080246806144
-0.1420628726482391
-0.1690005511045456
-0.1919267922639846
-0.2096284627914428
-0.2213511914014816
-0.2268098443746566
-0.2261506766080856
-0.2198871076107025
-0.2088029831647873
-0.1937948763370514
-0.1756692230701446
-0.1549729108810424
-0.1319285929203033
-0.1064844205975532
-0.0784508809447288
-0.0476910471916198
-0.0143088772892951
0.0212296843528747
0.0580761954188346
0.0950730144977569
0.1308899074792862
0.1641886532306671
0.1937843412160873
0.2187772840261459
0.238636702299118
0.2532268762588501
0.2627773284912109
0.2678116858005523
0.2690554857254028
0.2673422396183014
0.2635287642478943
0.2584234476089477
0.2527281939983368
0.2469944059848785
0.2415918856859207
0.2366901785135269
0.2322494387626648
0.2280178964138031
0.2235427796840667
0.2182115763425827
0.2113301753997802
0.2022256702184677
0.1903582215309143
0.1754258871078491
0.1574425101280212
0.1367687135934829
0.11408182233572
0.0902913510799408
0.0664245560765266
0.0435041412711143
0.0224361233413219
0.0039250999689102
-0.0115724466741085
-0.0238579548895359
-0.0329744108021259
-0.0391753129661083
-0.0428835712373256
-0.0446413867175579
-0.0450544878840446
-0.0447350181639194
-0.0442447140812873
-0.0440429858863353
-0.0444536879658699
