bvp
-0.1533699929714203
-0.1251381188631057
-0.0973478406667709
-0.0697031319141388
-0.0416415631771087
-0.0124674588441848
0.0184917002916336
0.0517341196537017
0.0874627530574798
0.1255124807357788
0.1653350442647934
0.2060401290655136
0.2464749366044998
0.2853162288665771
0.3211598992347717
0.3526203036308288
0.378455638885498
0.3977046906948089
0.4097951650619507
0.414593905210495
0.4123857915401459
0.4037846326828003
0.3896051943302154
0.370744526386261
0.3481109738349914
0.3226014673709869
0.2950998544692993
0.2664693593978882
0.237521231174469
0.2089569270610809
0.1813034415245056
0.1548676490783691
0.1297207176685333
0.1057100892066955
0.0825018659234047
0.0596638582646846
0.0367818102240562
0.0135790640488266
-0.0099878469482064
-0.0336726158857345
-0.056937001645565
-0.0790155157446861
-0.0990340188145637
-0.1161495298147201
-0.1296859830617904
-0.1392449885606765
-0.144762709736824
-0.1464936137199401
-0.1449390053749084
-0.1407642960548401
-0.1347228586673736
-0.1275600343942642
-0.1198757663369178
-0.1119757294654846
-0.103772796690464
-0.094784028828144
-0.0842294916510582
-0.0712133049964904
-0.0549578294157981
-0.0350372418761253
-0.0115339197218418
0.0149248158559203
0.0432313568890094
0.0719275772571563
0.0993726179003715
0.1239215284585952
0.1440842896699905
0.1586405038833618
0.1667065471410751
0.1677748262882232
0.1617359519004821
0.1488711684942245
0.1298086792230606
0.105456992983818
0.0769298002123832
0.045468084514141
0.0123597085475921
-0.0211466923356056
-0.0539326444268226
-0.0850856006145477
-0.1139295995235443
-0.140004962682724
-0.1630111187696457
-0.1827322095632553
-0.1989750862121582
-0.2115289270877838
-0.2201271206140518
-0.2244252264499664
-0.2240438908338546
-0.2186709642410278
-0.2081519961357116
-0.1925390362739563
-0.1721410602331161
-0.1475922763347625
-0.1198808997869491
-0.0902682915329933
-0.0601013787090778
-0.0306264869868755
-0.0029130540788173
0.0221342518925666
0.0437612868845462
0.0613857023417949
0.0746450275182724
0.0834324806928634
0.0878818705677986
0.0883229598402977
0.0852472484111785
0.0792515277862548
0.0709293410181999
0.0607835054397583
0.0492349192500114
0.0367019772529602
0.0236737355589866
0.0107201784849166
-0.0015682950615882
-0.0126706697046756
-0.0222019180655479
-0.0299425534904003
-0.0358491837978363
-0.0400563776493072
-0.0428640283644199
-0.0446972846984863
-0.0460411310195922
-0.0473723486065864
-0.0490955486893653
-0.0514748319983482
-0.0545803196728229
-0.0582831539213657
-0.0622973106801509
-0.0662462711334228
-0.0697469934821128
-0.0724969953298568
-0.074328139424324
-0.075203001499176
-0.0751753970980644
-0.0743564739823341
-0.0728950724005699
-0.0709542781114578
-0.0686883777379989
-0.0662476494908332
-0.0638146847486496
-0.0616392754018306
-0.0600372105836868
-0.0593492910265922
-0.059881892055273
-0.0618456304073333
-0.0652983784675598
-0.0701001361012458
-0.0758919343352317
-0.082116350531578
-0.0880867317318916
-0.0930837467312812
-0.096442237496376
-0.0976060479879379
-0.096165157854557
-0.0919102057814598
-0.0849032700061798
-0.0755109786987304
-0.0643505156040191
-0.0521535761654377
-0.0396004319190979
-0.0271913632750511
-0.0152025297284126
-0.0037230774760246
0.0072699859738349
0.0178355872631073
0.0279902815818786
0.037616278976202
0.0463824421167373
0.0537433549761772
0.0590654760599136
0.0618655569851398
0.0620809234678745
0.0602473281323909
0.0574678629636764
0.0551565065979957
0.0546706244349479
0.0569783076643943
0.06244508177042
0.0707702040672302
0.0810691863298416
0.0920652672648429
0.1023386642336845
0.1105882227420806
0.1158589273691177
0.1176906004548072
0.1161619648337364
0.1118316724896431
0.1056054159998893
0.0985669940710067
0.0918007269501686
0.0862306281924247
0.0825035870075225
0.0809278115630149
0.0814582258462905
0.0837205946445465
0.0870792493224144
0.090754933655262
0.0939752757549285
0.0961139574646949
0.0967826917767524
0.0958650782704353
0.0934938490390777
0.0899859368801117
0.0857627466320991
0.0812767148017883
0.0769504010677337
0.0731300339102745
0.0700564160943031
0.0678488463163375
0.0664973855018615
0.0658679381012916
0.0657178536057472
0.0657120198011398
0.0654434040188789
0.0644721835851669
0.0623823441565036
0.0588381811976432
0.053625576198101
0.0466748215258121
0.03807083517313
0.0280545111745595
0.0170126836746931
0.0054570734500885
-0.0060080364346504
-0.0167375989258289
-0.0261168889701366
-0.0336309075355529
-0.0389129742980003
-0.041772287338972
-0.0422030240297317
-0.0403729975223541
-0.0365955382585525
-0.0312942937016487
-0.0249714367091655
-0.0181816536933183
-0.0114981038495898
-0.005459610838443
-0.0005089975893497
0.0030620405450463
0.0051495861262083
0.005841901525855
0.0053893346339464
0.0041557569056749
0.0025646407157182
0.0010421425104141
-3.900192677974701e-05
-0.000404892489314
9.495392441749571e-05
0.0014865100383758
0.0036864541471004
0.0065211914479732
0.0097423866391181
0.0130384862422943
0.0160434432327747
0.0183509290218353
0.0195458568632602
0.0192509815096855
0.0171750970184803
0.0131566748023033
0.0072024799883365
-0.0004879981279373
-0.0095255635678768
-0.0193660743534564
-0.0293720252811908
-0.0388885326683521
-0.0473161488771438
-0.0541691035032272
-0.0591157563030719
-0.0619995221495628
-0.0628392919898033
-0.0618102103471756
-0.0592102482914924
-0.0554231293499469
-0.0508810356259346
-0.0460222885012626
-0.0412456803023815
-0.0368715599179267
-0.0331190824508667
-0.0301009006798267
-0.0278294906020164
-0.026231687515974
-0.025171834975481
-0.024481613188982
-0.0239900238811969
-0.0235460810363292
-0.023030899465084
-0.0223602391779422
-0.0214837230741977
-0.0203874073922634
-0.0191007666289806
-0.0177055895328521
-0.0163445472717285
-0.0152247101068496
-0.0146064758300781
-0.0147730931639671
-0.0159867852926254
-0.0184398703277111
-0.0222076401114463
-0.0272135064005851
-0.0332186669111251
-0.0398418977856636
-0.0466045066714286
-0.0529881119728088
-0.05849539488554
-0.0627096742391586
-0.0653430148959159
-0.0662610754370689
-0.065485805273056
-0.0631804168224334
-0.0596177168190479
-0.0551378391683101
-0.0501060113310813
-0.0448772497475147
-0.0397660620510578
-0.0350195840001106
-0.0308007262647151
-0.0271852761507034
-0.0241710357367992
-0.0216933656483888
-0.0196405667811632
-0.0178729034960269
-0.0162487477064132
-0.0146467462182044
-0.0129753891378641
-0.0111739244312047
-0.0092109460383653
-0.0070832595229148
-0.0048162601888179
-0.0024684015661478
-0.0001418106257915
0.0020054653286933
0.0037587061524391
0.0048676524311304
0.0050864517688751
0.0042232442647218
0.002189103513956
-0.0009699165821075
-0.0050687808543443
-0.0098021561279892
-0.0147773288190364
-0.0195581167936325
-0.0237140245735645
-0.0268676206469535
-0.0287345014512538
-0.0291496999561786
-0.028078120201826
-0.0256099626421928
-0.0219419598579406
-0.0173480045050382
-0.0121444473043084
-0.0066537735983729
-0.0011707250960171
0.004062513820827
0.0088674332946538
0.013131346553564
0.0168078392744064
0.0199134778231382
0.0225162245333194
0.024718664586544
0.026641845703125
0.0284106582403183
0.0301395449787378
0.0319202356040477
0.0338131263852119
0.0358417257666587
0.0379898399114608
0.0402005277574062
0.0423722825944423
0.0443498045206069
0.0459187850356102
0.0468185134232044
0.0467756688594818
0.0455521792173385
0.0429954677820205
0.0390803143382072
0.0339330509305
0.0278293490409851
0.0211648009717464
0.0144070507958531
0.0080389454960823
0.0025018034502863
-0.001852847635746
-0.0047964313998818
-0.0062366593629121
-0.006214153021574
-0.0048889014869928
-0.0025161691009998
0.0005894806236028
0.0040955385193228
0.0076882373541593
0.0110995769500732
0.0141242202371358
0.0166272576898336
0.0185459740459918
0.0198858175426721
0.0207086391746997
0.0211169403046369
0.0212383009493351
0.0212105903774499
0.0211689621210098
0.0212315656244754
0.0214818976819515
0.0219579115509986
0.0226554870605468
0.0235380865633487
0.0245422758162021
0.0255753863602876
0.0265044160187244
0.02714404463768
0.0272593796253204
0.0265910364687442
0.0248984396457672
0.0220116861164569
0.0178776141256093
0.0125870369374752
0.0063797254115343
-0.0003750592004507
-0.0072250608354806
-0.0136982826516032
-0.0193634554743766
-0.0238752234727144
-0.0270030759274959
-0.0286450423300266
-0.0288249775767326
-0.0276769269257783
-0.0254232957959175
-0.0223481431603431
-0.0187640339136123
-0.0149777494370937
-0.0112620471045374
-0.0078335646539926
-0.0048375437036156
-0.0023457016795873
-0.0003668703138828
0.0011393558233976
0.0022517601028084
0.0030758066568523
0.0037280891556292
0.0043211597949266
0.004952719900757
0.0056982487440109
0.006605390459299
0.0076912096701562
0.0089447209611535
0.0103336684405803
0.0118103139102458
0.0133115984499454
0.0147512201219797
0.0160016380250453
0.0168751422315835
0.0171264093369245
0.0164864100515842
0.0147151229903101
0.0116563597694039
0.0072823646478354
0.0017194842221215
-0.0047502857632935
-0.0117157055065035
-0.0186877753585577
-0.0251631438732147
-0.0306855328381061
-0.0348957404494285
-0.0375626347959041
-0.0385943874716758
-0.0380384437739849
-0.0360716730356216
-0.0329726040363311
-0.0290796812623739
-0.0247482247650623
-0.0203120280057191
-0.016053456813097
-0.0121856927871704
-0.0088453600183129
-0.006091727875173
-0.0039127366617321
-0.0022373525425791
-0.0009502694010734
9.093619883060457e-05
0.0010376693680882
0.0020358748733997
0.0032093869522213
0.0046379324048757
0.0063450704328715
0.008304183371365
0.010452602058649
0.0127066364511847
0.0149763282388448
0.0171770118176937
0.0192325245589017
0.0210647601634264
0.0225691217929124
0.0235884245485067
0.0239066109061241
0.0232729036360979
0.0214508064091205
0.0182777028530836
0.0137147530913352
0.0078724054619669
0.0010125385597348
-0.0064707617275416
-0.0140929771587252
-0.0213354080915451
-0.027703870087862
-0.0327807292342186
-0.0362643226981163
-0.0379948392510414
-0.0379641354084014
-0.0363066866993904
-0.0332756675779819
-0.0292097888886928
-0.0244930367916822
-0.0195104293525218
-0.0146088283509016
-0.0100705474615097
-0.0060975179076194
-0.0028025805950164
-0.0002097897231578
0.0017358381301164
0.0031520295888185
0.0041996221989393
0.0050610397011041
0.0059168357402086
0.0069217514246702
0.008185438811779
0.0097640911117196
0.011664479970932
0.013856197707355
0.0162852313369512
0.0188814625144004
0.0215593613684177
0.024218825623393
0.0267460867762565
0.0290054455399513
0.0308212749660015
0.0319646224379539
0.0321613699197769
0.0311288312077522
0.0286321155726909
0.0245423093438148
0.0188815053552389
0.0118452766910195
0.0037980191409587
-0.0047578047960996
-0.0132353827357292
-0.0210337322205305
-0.0276115424931049
-0.0325496271252632
-0.0355904027819633
-0.0366509556770324
-0.0358147621154785
-0.0333084128797054
-0.0294665452092885
-0.0246900022029876
-0.0194043610244989
-0.0140205081552267
-0.0088973585516214
-0.0043116156011819
-0.0004388559609651
0.0026542488485574
0.0050057414919137
0.0067381411790847
0.0080254171043634
0.0090602990239858
0.0100304093211889
0.0111020747572183
0.0124074425548315
0.0140337422490119
0.0160172060132026
0.0183444060385227
0.0209618136286735
0.0237889736890792
0.0267298314720392
0.029682882130146
0.0325490720570087
0.0352310910820961
0.0376175418496131
0.0395491085946559
0.0407833456993103
0.0409922264516353
0.0398054458200931
0.0368832871317863
0.0319987013936042
0.0251090340316295
0.016397500410676
0.0062742792069911
-0.0046603232622146
-0.0156823843717575
-0.0260300282388925
-0.0349942855536937
-0.0419999435544014
-0.0466598309576511
-0.0487947836518287
-0.0484328120946884
-0.0457980297505855
-0.0412791110575199
-0.0353738740086555
-0.0286249965429306
-0.0215611364692449
-0.0146499313414096
-0.0082640461623668
-0.0026609543710947
0.0020227208733558
0.0057667363435029
0.008655447512865
0.0108547639101743
0.0125791430473327
0.0140586765483021
0.0155132450163364
0.0171292796730995
0.0190357230603694
0.0212896578013896
0.023881509900093
0.026753194630146
0.0298162847757339
0.0329655855894088
0.0360892191529274
0.0390772521495819
0.0418285578489303
0.0442463345825672
0.0462122559547424
0.0475473925471305
0.047985665500164
0.0471838191151618
0.0447724014520645
0.0404317267239093
0.0339718535542488
0.0254010129719972
0.014966738410294
0.0031563006341457
-0.0093459766358137
-0.0217356607317924
-0.0331836976110935
-0.0429341979324817
-0.0503892973065376
-0.0551679842174053
-0.0571326240897178
-0.0563831701874733
-0.0532246381044387
-0.0481168441474437
-0.0416141562163829
-0.0343046486377716
-0.0267565883696079
-0.0194723829627037
-0.0128517597913742
-0.0071673863567411
-0.0025522890500724
0.0009978262241929
0.0036040192935615
0.0054707089439034
0.0068482784554362
0.0079977307468652
0.0091601740568876
0.0105315959081053
0.0122446054592728
0.0143628716468811
0.01688764244318
0.0197652503848075
0.0228945780545473
0.0261438824236392
0.0293730441480875
0.0324508696794509
0.0352658294141292
0.0377272069454193
0.0397471152245998
0.0412023849785327
0.0418944917619228
0.0415330678224563
0.0397595129907131
0.0362111255526542
0.0306083802133798
0.0228417161852121
0.0130376853048801
0.0015838835388422
-0.0109000541269779
-0.0236365478485822
-0.0357864275574684
-0.0465475693345069
-0.0552422516047954
-0.0613821968436241
-0.0647065117955207
-0.0651936307549476
-0.0630476251244545
-0.0586608052253723
-0.0525590553879737
-0.0453385449945926
-0.0376028269529342
-0.0299063436686992
-0.022708186879754
-0.0163429696112871
-0.0110120736062526
-0.0067864321172237
-0.0036158189177513
-0.0013493681326508
0.0002342257648706
0.0013930443674325
0.0023884391412138
0.0034552030265331
0.0047787791118025
0.0064810030162334
0.0086141992360353
0.011164067313075
0.0140599031001329
0.0171905402094125
0.020426832139492
0.0236424747854471
0.026722690090537
0.0295622106641531
0.0320514552295208
0.0340458378195762
0.0353304371237754
0.0356058850884437
0.0345114096999168
0.031683050096035
0.0268358718603849
0.0198516938835382
0.010843738913536
0.0001755785197019
-0.0115665346384048
-0.0236343219876289
-0.03519918769598
-0.0454500243067741
-0.053694874048233
-0.0594395324587821
-0.0624269880354404
-0.0626434087753295
-0.0602974817156791
-0.0557776317000389
-0.0495977327227592
-0.0423395186662673
-0.0345943234860897
-0.0269084610044956
-0.0197374429553747
-0.0134129989892244
-0.0081271138042211
-0.0039342762902379
-0.0007672533392906
0.0015372307971119
0.003203029744327
0.0044759958982467
0.0055922325700521
0.006755281239748
0.0081213349476456
0.0097921006381511
0.0118133863434195
0.0141781913116574
0.0168344788253307
0.01969800516963
0.0226671267300844
0.0256333537399768
0.0284856166690588
0.0311087816953659
0.0333702974021434
0.0350902900099754
0.0360115766525268
0.0358005613088607
0.034091979265213
0.0305643621832132
0.0250252187252044
0.0174838192760944
0.0081898961216211
-0.0023740604519844
-0.0135438237339258
-0.0245525855571031
-0.0346225500106811
-0.0430569797754287
-0.0493177771568298
-0.0530743077397346
-0.0542197301983833
-0.0528615340590477
-0.0492956601083278
-0.0439673401415348
-0.037416860461235
-0.0302164033055305
-0.0229115299880504
-0.0159736592322587
-0.0097647905349731
-0.0045166350901126
-0.0003244839608669
0.0028430772945284
0.0051194848492741
0.0067071504890918
0.0078436294570565
0.0087725799530744
0.0097203031182289
0.0108734928071498
0.0123579064384102
0.0142263323068618
0.0164615921676158
0.0189924463629722
0.0217162761837244
0.0245198179036378
0.0272927209734916
0.0299308318644762
0.0323208943009376
0.0343065112829208
0.0356567688286304
0.0360629856586456
0.0351721160113811
0.0326502211391925
0.0282617006450891
0.0219417884945869
0.0138395950198173
0.0043238224461674
-0.0060469475574791
-0.0165859144181013
-0.0265600346028804
-0.0352759584784507
-0.0421569347381591
-0.0468002818524837
-0.0490088611841201
-0.0487955883145332
-0.0463643968105316
-0.0420732721686363
-0.0363843999803066
-0.0298077184706926
-0.0228471923619508
-0.0159577168524265
-0.0095138382166624
-0.0037874379195272
0.001063912641257
0.0049957782030105
0.008066183887422
0.0104160476475954
0.0122398706153035
0.0137529019266366
0.0151612889021635
0.0166367869824171
0.0182991698384284
0.0202109105885028
0.0223829001188278
0.0247865319252014
0.0273671671748161
0.030051177367568
0.0327452979981899
0.0353349670767784
0.0376794710755348
0.0395967811346054
0.0408448465168476
0.0411177016794681
0.0400702841579914
0.0373727343976497
0.032783880829811
0.0262263603508472
0.0178416743874549
0.0080053247511386
-0.0027039740234613
-0.0135709568858146
-0.0238320361822843
-0.0327720046043396
-0.039811685681343
-0.0445677749812603
-0.0468775741755962
-0.0467946119606494
-0.0445624403655529
-0.0405705496668815
-0.0353000313043594
-0.0292687881737947
-0.0229816995561122
-0.0168882310390472
-0.0113501492887735
-0.0066213058307766
-0.0028398353606462
-2.9091723263263702e-05
0.0018959401641041
0.0031083249486982
0.0038310564123094
0.0042987773194909
0.0047311298549175
0.0053129941225051
0.0061813266947865
0.0074208597652614
0.009065163321793
0.0110996626317501
0.0134676564484834
0.0160809606313705
0.0188307911157608
0.0215885341167449
0.02418839558959
0.0263997241854667
0.0279119461774826
0.0283478014171123
0.0273081175982952
0.0244461987167596
0.019556188955903
0.0126453200355172
0.0039659710600972
-0.005996102001518
-0.0165707860141992
-0.0269842594861984
-0.036458246409893
-0.0443058237433433
-0.0500051900744438
-0.0532432235777378
-0.0539306029677391
-0.0521927997469902
-0.0483378991484642
-0.0428089387714862
-0.0361332967877388
-0.0288699232041835
-0.021552238613367
-0.0146365016698837
-0.0084667429327964
-0.0032579135149717
0.0009064618498086
0.0040667420253157
0.006369998678565
0.0080396831035614
0.0093369763344526
0.0105251325294375
0.0118402922526001
0.0134683679789304
0.0155308675020933
0.0180784650146961
0.021089905872941
0.0244796425104141
0.0281154438853263
0.0318406596779823
0.035490620881319
0.0388889536261558
0.0418209359049797
0.0440040081739425
0.0450831800699234
0.0446640439331531
0.0423788093030452
0.0379682555794715
0.0313559919595718
0.0226992703974246
0.0124063044786453
0.0011063963174819
-0.0104286409914493
-0.0213866829872131
-0.0310111884027719
-0.0386779122054576
-0.0439497269690036
-0.0466073974967002
-0.0466551259160041
-0.0443031415343284
-0.0399312824010849
-0.0340371504426002
-0.0271763168275356
-0.0199045706540346
-0.0127275772392749
-0.0060597173869609
-0.0001947246491909
0.0047063268721103
0.0086082499474287
0.0115841245278716
0.0137932114303112
0.015453296713531
0.016807947307825
0.0180935971438884
0.0195114966481924
0.0212079510092735
0.0232650842517614
0.0257025398313999
0.0284864529967308
0.0315421409904956
0.0347694419324398
0.038057342171669
0.0412883087992668
0.0443167127668857
0.0469234250485897
0.0487807244062423
0.04946094378829
0.048494778573513
0.0454634465277195
0.040097702294588
0.0323571637272834
0.0224733743816614
0.0109460745006799
-0.0015092814574018
-0.0140482001006603
-0.0257992837578058
-0.0359671674668788
-0.0439175181090831
-0.049231506884098
-0.0517336279153823
-0.0514955557882785
-0.0488106310367584
-0.0441412813961505
-0.0380530431866645
-0.0311487391591072
-0.02400878444314
-0.0171387214213609
-0.0109280589967966
-0.0056278565898537
-0.0013479543849825
0.0019329558126628
0.004347963258624
0.0061113438569009
0.0074806646443903
0.0087211187928915
0.0100732538849115
0.0117218364030122
0.0137737318873405
0.01625407487154
0.0191192012280225
0.0222768019884824
0.0256053078919649
0.0289705768227577
0.0322379171848297
0.0352722518146038
0.0379183590412139
0.0399641133844852
0.0411108769476413
0.0409805364906787
0.0391664430499076
0.0353153198957443
0.0292179808020591
0.0208828467875719
0.0105737401172518
-0.0011960575357079
-0.0137119693681597
-0.0261376835405826
-0.0376136004924774
-0.047359962016344
-0.0547645576298236
-0.0594395361840724
-0.0612451769411563
-0.0602837614715099
-0.0568677708506584
-0.0514708086848259
-0.0446676351130008
-0.0370670557022094
-0.0292493738234043
-0.0217200871556997
-0.0148773677647113
-0.0089883971959352
-0.0041784700006246
-0.0004354952834546
0.002371905837208
0.0044635934755206
0.0061077517457306
0.0075790593400597
0.0091233244165778
0.0109327230602502
0.0131298564374446
0.0157599486410617
0.0187960602343082
0.0221571065485477
0.0257263761013746
0.0293629243969917
0.0329129323363304
0.0362233072519302
0.0391440615057945
0.0415079519152641
0.0430964827537536
0.0436168760061264
0.0427129492163658
0.0400180518627166
0.0352390259504318
0.0282456148415803
0.0191368702799081
0.0082656163722276
-0.0037817750126123
-0.0162454210221767
-0.0282858815044164
-0.0390943959355354
-0.0479910746216774
-0.0544916167855262
-0.0583386942744255
-0.0595047287642955
-0.0581740252673625
-0.0547068044543266
-0.0495890453457832
-0.0433743968605995
-0.0366247445344924
-0.02985754981637
-0.0235041715204715
-0.0178797207772731
-0.0131652373820543
-0.0094034215435385
-0.0065142805688083
-0.0043304241262376
-0.0026361038908362
-0.0012000501155853
0.0001962445676326
0.0017363931983709
0.0035558519884943
0.0057345489040017
0.0082936063408851
0.0111999828368425
0.0143781630322337
0.017722975462675
0.0211127176880836
0.0244233086705207
0.0275392960757017
0.0303504671901464
0.0327217616140842
0.034446433186531
0.0352203324437141
0.0346660763025283
0.0324011296033859
0.0281257424503564
0.0217086467891931
0.0132507607340812
0.0031090155243873
-0.0081282714381814
-0.0197091139853
-0.0308137983083724
-0.0406588092446327
-0.0485868118703365
-0.0541281141340732
-0.0570311546325683
-0.0572695545852184
-0.0550330802798271
-0.050697986036539
-0.0447728745639324
-0.0378314107656478
-0.0304467603564262
-0.0231349859386682
-0.016312638297677
-0.0102722840383648
-0.0051735215820372
-0.0010464056394994
0.0021933254320174
0.0047189695760607
0.0067586880177259
0.0085579361766576
0.0103482343256473
0.0123209059238433
0.0146020855754613
0.0172392763197422
0.0202071703970432
0.0234260968863964
0.0267845522612333
0.0301594380289316
0.0334299057722091
0.0364876873791217
0.039245493710041
0.0416377782821655
0.043607123196125
0.0450732037425041
0.045894555747509
0.0458473563194274
0.0446390211582183
0.0419551692903041
0.0375287309288978
0.0312187783420085
0.0230803191661834
0.013399563729763
0.0026785228401422
-0.0084244916215538
-0.0191781595349311
-0.0288685671985149
-0.0368832573294639
-0.0427753999829292
-0.0463011935353279
-0.0474294796586036
-0.0463250279426574
-0.0433101244270801
-0.0388122797012329
-0.0333105139434337
-0.0272916816174983
-0.0212156623601913
-0.0154809234663844
-0.0103910220786929
-0.006130613386631
-0.0027577159926295
-0.0002149236388504
0.0016440320760011
0.0030212281271815
0.0041411397978663
0.0052196094766259
0.0064376071095466
0.0079220235347747
0.0097386026754975
0.0118979569524526
0.0143633652478456
0.0170548185706138
0.0198589675128459
0.0226486530154943
0.0253019370138645
0.027713406831026
0.0297997742891311
0.0314958505332469
0.0327292159199714
0.0333803184330463
0.0332561582326889
0.0320989973843097
0.0296317227184772
0.025626815855503
0.0199782866984605
0.0127572566270828
0.004234304651618
-0.0051407497376203
-0.0147926732897758
-0.0240913834422826
-0.0324264839291572
-0.0392749868333339
-0.044253833591938
-0.0471521466970443
-0.0479407161474227
-0.0467601642012596
-0.0438914075493812
-0.039713442325592
-0.0346571542322635
-0.0291627366095781
-0.0236402675509452
-0.0184339545667171
-0.0137988766655325
-0.0098933074623346
-0.0067794881761074
-0.0044287098571658
-0.0027322848327457
-0.0015216274186968
-0.0005969442427158
0.0002425769343972
0.0011737206950783
0.0023325309157371
0.0038057724013924
0.0056262020952999
0.0077720833942294
0.0101759834215044
0.0127404555678367
0.0153545513749122
0.0179084353148937
0.0203032493591308
0.0224537011235952
0.0242813415825366
0.0256940927356481
0.0265547186136245
0.0266594849526882
0.0257510691881179
0.0235663838684558
0.0199010074138641
0.0146734854206442
0.0079747326672077
8.648820221424103e-05
-0.0085382675752043
-0.017326220870018
-0.0256545543670654
-0.0329327806830406
-0.0386807024478912
-0.0425801426172256
-0.0444930158555507
-0.0444552227854728
-0.0426525734364986
-0.0393836498260498
-0.0350195802748203
-0.029965341091156
-0.0246220659464597
-0.0193529166281223
-0.0144558260217309
-0.0101438136771321
-0.0065344842150807
-0.0036500527057796
-0.0014255158603191
0.0002726761158555
0.0016148528084158
0.0027765855193138
0.0039188480004668
0.0051755071617662
0.0066445502452552
0.0083824768662452
0.0104015730321407
0.0126733668148517
0.0151380989700555
0.0177160911262035
0.0203189626336097
0.0228591002523899
0.0252560973167419
0.0274404045194387
0.0293500088155269
0.0309082902967929
0.0319849923253059
0.0323708206415176
0.0317921265959739
0.0299630612134933
0.0266579687595367
0.0217824727296829
0.0154214603826403
0.0078512569889426
-0.0004841621848754
-0.0090262182056903
-0.0171727184206247
-0.0243510939180851
-0.0300827492028474
-0.0340316295623779
-0.0360296033322811
-0.0360793992877006
-0.0343411155045032
-0.0311047788709402
-0.0267523806542158
-0.0217141099274158
-0.0164211802184581
-0.0112598799169063
-0.0065368469804525
-0.0024609779939055
0.0008628237992525
0.0034303609281778
0.0053217587992548
0.0066763339564204
0.0076675452291965
0.008480530232191
0.0092918500304222
0.01025025639683
0.0114594381302595
0.0129677159711718
0.0147679718211293
0.0168080255389213
0.0190078951418399
0.0212780125439167
0.0235332660377025
0.0256991423666477
0.0277117788791656
0.0295164175331592
0.0310604721307754
0.0322727225720882
0.0330321229994297
0.0331474281847476
0.0323696210980415
0.0304355472326278
0.0271255783736705
0.0223249923437833
0.0160769447684288
0.0086071398109197
0.000311556039378
-0.0082862908020615
-0.0165988020598888
-0.0240473356097936
-0.0301323216408491
-0.034489769488573
-0.0369253270328044
-0.0374220088124275
-0.0361248217523098
-0.0333078131079673
-0.0293305180966854
-0.0245953872799873
-0.0195139627903699
-0.0144765600562095
-0.0098183192312717
-0.0057876114733517
-0.0025290288031101
-8.32676887512207e-05
0.0016013248823583
0.002649821806699
0.0032375217415392
0.0035644150339066
0.0038284626789391
0.0042008743621408
0.0048092901706695
0.0057323183864355
0.0070018032565712
0.0086052371188998
0.0104878693819046
0.0125627126544713
0.0147273400798439
0.0168784745037555
0.0189219359308481
0.0207730811089277
0.0223390944302082
0.0234880223870277
0.0240250304341316
0.0236949753016233
0.0222159624099731
0.0193366110324859
0.0149029940366745
0.008918453939259
0.0015792403137311
-0.0067303604446351
-0.015485648997128
-0.0240922346711158
-0.0319573879241943
-0.0385520905256271
-0.0434619262814521
-0.0464249849319458
-0.0473522245883941
-0.0463254898786544
-0.0435749292373657
-0.0394436791539192
-0.0343452021479606
-0.0287166610360145
-0.0229749418795108
-0.0174803547561168
-0.0125076966360211
-0.0082289772108197
-0.0047148028388619
-0.0019489675760269
0.000154685229063
0.0017357841134071
0.002968618646264
0.0040399143472313
0.0051260469481348
0.0063742222264409
0.0078894831240177
0.0097277890890836
0.0118969250470399
0.0143643096089363
0.0170671008527278
0.0199233423918485
0.0228438191115856
0.0257376283407211
0.0285037271678447
0.0310085900127887
0.0330586619675159
0.03438501060009
0.0346572026610374
0.0335293486714363
0.0307088904082775
0.0260314308106899
0.019519779831171
0.0114107383415102
0.0021458603441715
-0.0076719028875231
-0.0173509567975997
-0.0261985994875431
-0.0336018614470958
-0.0390897057950496
-0.042375810444355
-0.0433781966567039
-0.0422107242047786
-0.0391511023044586
-0.0345962308347225
-0.0290133096277713
-0.022890007123351
-0.0166859664022922
-0.0107915047556161
-0.005499267950654
-0.0009903088212013
0.0026658438146114
0.0055003892630338
0.0076289288699626
0.0092301256954669
0.0105155007913708
0.0116930613294243
0.0129380291327834
0.0143787059932947
0.0160932075232267
0.0181129910051822
0.0204300861805677
0.0230029709637165
0.0257615633308887
0.0286155007779598
0.0314648002386093
0.034204788506031
0.0367145985364913
0.0388271585106849
0.040297731757164
0.0407990999519825
0.039956197142601
0.0374110378324985
0.032902643084526
0.0263438336551189
0.0178737118840217
0.007870165631175
-0.0030812388285994
-0.0142546314746141
-0.0248736403882503
-0.0342050865292549
-0.0416397675871849
-0.0467520654201507
-0.0493352003395557
-0.0494073629379272
-0.0471865385770797
-0.0430440083146095
-0.0374538376927375
-0.0309451110661029
-0.0240522995591163
-0.017264399677515
-0.0109809897840023
-0.0054818671196699
-0.0009138286113739
0.0027045868337154
0.0054639913141727
0.0075378734618425
0.0091532273218035
0.0105574149638414
0.0119842812418937
0.0136261079460382
0.0156160797923803
0.0180242471396923
0.0208612028509378
0.0240795686841011
0.0275789350271224
0.0312240105122327
0.0348667949438095
0.0383549444377422
0.0415174029767513
0.044132150709629
0.0458969250321388
0.0464310944080352
0.0453233458101749
0.042213324457407
0.0368800237774848
0.029313463717699
0.0197556316852569
0.0087016932666301
-0.0031461152248084
-0.0149688245728611
-0.0259401798248291
-0.0353245362639427
-0.0425494760274887
-0.0472522154450416
-0.049299094825983
-0.0487786494195461
-0.045974027365446
-0.0413205288350582
-0.0353514403104782
-0.0286391712725162
-0.0217398721724748
-0.0151441590860486
-0.009235069155693
-0.0042589623481035
-0.000317589379847
0.0026175128296017
0.0046782037243247
0.0060700760222971
0.007041813340038
0.0078531168401241
0.0087434938177466
0.0099059846252202
0.0114690540358424
0.0134888933971524
0.0159523244947195
0.0187888462096452
0.0218891687691211
0.025123331695795
0.0283498875796794
0.0314070582389831
0.0340794995427131
0.0360588654875755
0.0369376838207244
0.0362560749053955
0.0335883870720863
0.0286433063447475
0.0213494542986154
0.0119049465283751
0.0007796962745487
-0.0113292718306183
-0.0235794782638549
-0.0350882746279239
-0.0450425632297992
-0.0527892038226127
-0.0578936971724033
-0.0601679384708404
-0.0596728175878524
-0.056702621281147
-0.0517528019845485
-0.0454715900123119
-0.0386022329330444
-0.0319210514426231
-0.0261742323637008
-0.022023431956768
-0.0199948325753211
-0.0203990992158651
-0.0232174023985862
-0.0280071031302213
-0.0338889434933662
-0.0396362394094467
-0.0438429117202758
-0.0451324768364429
-0.0423761904239654
-0.0348802879452705
-0.0224876999855041
-0.0055697243660688
0.0150477373972535
0.038163561373949
0.0622933506965637
0.0858153998851776
0.1071537658572197
0.124941162765026
0.1381485909223556
0.1461941748857498
0.1489958018064499
0.1469041854143142
0.1405145972967147
0.1304523646831512
0.117248311638832
0.1013392359018325
0.0831439271569252
0.0631509721279144
0.041978795081377
0.0203868839889764
-0.0007664896547794
-0.0206033289432525
-0.0383180268108844
-0.0532651990652084
-0.0650292709469795
-0.073462501168251
-0.0786825567483902
-0.0810283124446868
-0.0809821262955665
-0.0790805891156196
-0.0758424326777458
-0.0717250406742096
-0.0670977458357811
-0.0622200667858123
-0.0572313964366912
-0.0521669276058673
-0.0469988323748111
-0.0416849702596664
-0.0362086147069931
-0.0305995903909206
-0.0249357540160417
-0.0193311031907796
-0.0139164309948682
-0.0088155837729573
-0.0041222022846341
0.0001133698970079
0.0038779024034738
0.0071671176701784
0.0099407043308019
0.0120779778808355
0.0133591778576374
0.0134863536804914
0.0121399611234664
0.0090572014451026
0.0041107665747404
-0.0026352349668741
-0.0109076630324125
-0.0202513560652732
-0.0300936736166477
-0.0398222953081131
-0.0488492399454116
-0.0566523000597953
-0.0628032758831977
-0.0669904649257659
-0.069032996892929
-0.0688840746879577
-0.0666242465376854
-0.0624466352164745
-0.0566358305513858
-0.049541562795639
-0.0415466204285621
-0.0330314859747886
-0.0243436619639396
-0.0157773252576589
-0.0075630480423569
0.0001338450238108
0.0072088208980858
0.0136111322790384
0.0193329006433486
0.0243932381272315
0.028826531022787
0.0326819755136966
0.036028541624546
0.0389578975737094
0.041583240032196
0.0440322682261467
0.0464317835867404
0.0488816313445568
0.051416128873825
0.0539604909718036
0.0563029870390892
0.0581038482487201
0.0589500144124031
0.0584456324577331
0.0563064143061637
0.0524251125752925
0.0469001643359661
0.0400330126285553
0.0322950407862663
0.0242678821086883
0.0165699031203985
0.0097828842699527
0.0043886909261345
0.000721970340237
-0.0010574837215244
-0.0009703617542982
0.0007981357630342
0.0039310944266617
0.0080227944999933
0.0126274935901165
0.0173086319118738
0.0216790810227394
0.0254300273954868
0.0283522848039865
0.0303484685719013
0.0314317643642425
0.0317092426121234
0.03135347366333
0.0305726304650306
0.0295841190963983
0.0285899303853511
0.0277554113417863
0.0271951034665107
0.0269652232527732
0.0270619522780179
0.0274255294352769
0.0279437024146318
0.0284443031996488
0.0286814123392105
0.028335403650999
0.0270404331386089
0.0244376882910728
0.020244475454092
0.0143218412995338
0.006718136370182
-0.0023232102394104
-0.0123861208558082
-0.0229262933135032
-0.0333323031663894
-0.0429936833679676
-0.0513631850481033
-0.0580050349235534
-0.0626295208930969
-0.065116137266159
-0.0655193030834198
-0.0640506371855735
-0.0610429495573043
-0.0569062232971191
-0.0520808771252632
-0.0469900593161582
-0.0419945642352104
-0.0373583696782588
-0.0332344062626361
-0.02967144921422
-0.0266336780041456
-0.024027295410633
-0.0217302851378917
-0.01961674913764
-0.0175716131925582
-0.0154996383935213
-0.0133299324661493
-0.0110159702599048
-0.0085357632488012
-0.0058919414877891
-0.0031078308820724
-0.0002258196473121
0.0026804879307746
0.0054789409041404
0.0079519636929035
0.0097957253456115
0.0106590278446674
0.0102121457457542
0.0082259587943553
0.0046420916914939
-0.0003887303173542
-0.0065171234309673
-0.0132503379136323
-0.0200306661427021
-0.026312094181776
-0.0316215492784976
-0.0356015339493751
-0.0380316972732543
-0.0388309732079505
-0.0380478464066982
-0.0358447469770908
-0.0324774384498596
-0.0282675046473741
-0.0235680416226387
-0.0187254324555397
-0.014042817056179
-0.009754879400134
-0.0060180202126502
-0.0029092673212289
-0.0004289411008358
0.0014903265982866
0.0029657622799277
0.0041420115157961
0.0051699308678507
0.0061864806339144
0.0072971573099493
0.0085686510428786
0.0100328512489795
0.0116944275796413
0.0135379675775766
0.0155316302552819
0.0176190249621868
0.0196960289031267
0.0215855613350868
0.0230350941419601
0.0237501896917819
0.023453127592802
0.0219465047121047
0.019166026264429
0.0152099477127194
0.0103356596082448
0.0049250237643718
-0.0005698576569557
-0.0056884763762354
-0.0100200893357396
-0.0132478643208742
-0.0151737304404377
-0.0157246813178062
-0.0149489995092153
-0.0130086708813905
-0.0101599413901567
-0.0067165922373533
-0.0030067176558077
0.0006651957519352
0.0040461951866745
0.0069523556157946
0.0092791859060525
0.0110048186033964
0.0121808089315891
0.012912486679852
0.0133382715284824
0.0136101860553026
0.0138741238042712
0.0142551232129335
0.0148474695160985
0.0157041735947132
0.0168313886970281
0.0181937236338853
0.0197231788188219
0.0213210564106702
0.0228493530303239
0.0241202414035797
0.024899760261178
0.0249320436269044
0.0239773374050855
0.0218563005328178
0.0184926483780145
0.0139420414343476
0.0084002129733562
0.0021890895441174
-0.0042814607731997
-0.0105697931721806
-0.0162592213600873
-0.0210026763379573
-0.0245515517890453
-0.0267699472606182
-0.0276369675993919
-0.0272370055317878
-0.0257383175194263
-0.0233662985265254
-0.0203789453953504
-0.0170442592352628
-0.0136165311560034
-0.0103147318586707
-0.0073050614446401
-0.0046874587424099
-0.0024939165450632
-0.0007019415497779
0.0007482941728085
0.0019404301419854
0.0029678475111722
0.0039184694178402
0.0048648305237293
0.0058606024831533
0.0069385226815938
0.008108826354146
0.0093599865213036
0.0106587866321206
0.0119430609047412
0.0131065873429179
0.0139886550605297
0.0143823763355612
0.0140635427087545
0.0128331091254949
0.0105627235025167
0.0072313593700528
0.0029469234868884
-0.0020518861711025
-0.0074195899069309
-0.0127483000978827
-0.0176195222884416
-0.0216566231101751
-0.0245709121227264
-0.0261907652020454
-0.0264695137739181
-0.0254760384559631
-0.0233742371201515
-0.0203949976712465
-0.0168059691786766
-0.012886706739664
-0.0089074335992336
-0.005105466581881
-0.0016640610992908
0.0012983027845621
0.0037298775278031
0.0056434078142046
0.007107323501259
0.0082270875573158
0.0091221537441015
0.0099078752100467
0.0106845712289214
0.0115307671949267
0.0124999089166522
0.0136201158165931
0.0148933678865432
0.0162915363907814
0.0177493430674076
0.0191536135971546
0.0203337483108043
0.0210671555250883
0.0211056228727102
0.0202158614993095
0.0182265825569629
0.0150733478367328
0.0108291953802108
0.0057103103026747
5.244556814432144e-05
-0.0057344981469213
-0.0112191587686538
-0.015998400747776
-0.0197419375181198
-0.0222299005836248
-0.0233735144138336
-0.0232107732445001
-0.0218821465969085
-0.0195991117507219
-0.0166142396628856
-0.0131946103647351
-0.0095996195450425
-0.0060618463903665
-0.0027686627581715
0.0001502940431237
0.0026264954358339
0.0046499799937009
0.0062619857490062
0.0075432788580656
0.0085974866524338
0.009529142640531
0.0104246754199266
0.0113447867333889
0.0123261548578739
0.0133854066953063
0.014522555284202
0.015724653378129
0.0169692654162645
0.0182235296815633
0.0194304399192333
0.02048284932971
0.0212038457393646
0.0213545188307762
0.0206744074821472
