bvp
-0.0005762316286563
-0.0100741032510995
-0.0195396151393651
-0.0282468535006046
-0.0355506911873817
-0.0409635864198207
-0.0441999025642871
-0.0451860576868057
-0.0440441071987152
-0.041057962924242
-0.0366280302405357
-0.0312190242111682
-0.025309644639492
-0.0193468648940324
-0.0137038882821798
-0.008649013005197
-0.0043329987674951
-0.0007912376895546
0.0020438428036868
0.0043150321580469
0.0062006297521293
0.0078798346221446
0.0095107732340693
0.0112171825021505
0.0130805084481835
0.0151381473988294
0.0173892714083194
0.0198040753602981
0.022328071296215
0.0248710568994283
0.0272781997919082
0.0293021202087402
0.0306025519967079
0.0307850688695907
0.0294723007827997
0.0263863243162632
0.0214169770479202
0.0146628934890031
0.0064408117905259
-0.0027415435761213
-0.0122474199160933
-0.0213933289051055
-0.0295322835445404
-0.0361235812306404
-0.0407821871340274
-0.0433062389492988
-0.0436820350587368
-0.0420681685209274
-0.0387649945914745
-0.0341732203960418
-0.0287443846464157
-0.0229325369000434
-0.0171539485454559
-0.011752507649362
-0.006971938535571
-0.0029435863252729
0.0003067147918045
0.0028404607437551
0.0047848396934568
0.0063073267228901
0.0075885811820626
0.0088015347719192
0.0100971665233373
0.0115930270403623
0.0133642898872494
0.0154342204332351
0.0177576132118701
0.0201957039535045
0.0224959924817085
0.0242999549955129
0.0251863878220319
0.0247405190020799
0.0226370077580213
0.018721031025052
0.0130640361458063
0.0059756422415375
-0.0020304666832089
-0.0103064300492405
-0.0181611590087413
-0.0249536409974098
-0.0301696583628654
-0.0334708392620086
-0.0347132161259651
-0.0339408963918685
-0.0313647389411926
-0.0273278430104255
-0.022258523851633
-0.0166184492409229
-0.0108538102358579
-0.005355255678296
-0.0004273635568097
0.0037332088686525
0.0070472387596964
0.0095471320673823
0.0113561898469924
0.0126573806628584
0.0136601869016885
0.0145723912864923
0.0155785549432039
0.016821326687932
0.0183847639709711
0.0202887821942567
0.0224971715360879
0.0249252766370773
0.0274339448660612
0.0298122055828571
0.0317668542265892
0.0329380147159099
0.0329451076686382
0.0314530953764915
0.0282427836209535
0.0232694186270236
0.0166960358619689
0.0088904472067952
0.000383666716516
-0.0082009974867105
-0.0162327587604522
-0.0231517143547534
-0.0285247471183538
-0.0320778526365757
-0.0337083451449871
-0.0334769524633884
-0.031584195792675
-0.0283392593264579
-0.0241250321269035
-0.0193594135344028
-0.0144538059830665
-0.0097731035202741
-0.0056036706082522
-0.0021318974904716
0.0005658823065459
0.002515573054552
0.0038196160458028
0.0046284138225018
0.0051178527064621
0.005468962714076
0.005849007051438
0.0063975951634347
0.0072172079235315
0.0083663221448659
0.0098547097295522
0.0116359777748584
0.0135904634371399
0.0155030936002731
0.0170564204454422
0.017860822379589
0.0175230782479047
0.0157290436327457
0.0123148569837212
0.0073141176253557
0.0009719524532556
-0.0062796804122626
-0.0138788893818855
-0.0212082527577877
-0.0276710763573646
-0.0327565297484397
-0.0360892191529274
-0.0374617055058479
-0.0368457250297069
-0.0343831814825534
-0.0303619988262653
-0.0251781344413757
-0.0192863475531339
-0.0131491776555776
-0.0071945469826459
-0.0017831339500844
0.0028183332178741
0.006457001902163
0.00910235196352
0.0108392285183072
0.0118439476937055
0.0123482011258602
0.0126028535887599
0.0128486976027488
0.0132908252999186
0.014076204970479
0.015278136357665
0.016885744407773
0.0187957305461168
0.0208051316440105
0.0226082243025302
0.0238132495433092
0.0239926166832447
0.0227608811110258
0.0198593642562627
0.0152210528030991
0.0089979507029056
0.0015502898022532
-0.0065947589464485
-0.0148092284798622
-0.0224456079304218
-0.0289179030805826
-0.0337689742445945
-0.0367123894393444
-0.037644188851118
-0.0366337448358535
-0.0339037254452705
-0.0297984909266233
-0.0247401725500822
-0.019178956747055
-0.0135444840416312
-0.0082038920372724
-0.0034315893426537
0.0006074574775993
0.0038609986659139
0.0063793691806495
0.0082926489412784
0.0097778439521789
0.011022824794054
0.0121976248919963
0.0134395454078912
0.0148460734635591
0.0164685621857643
0.018309362232685
0.0203227363526821
0.0224104095250368
0.0244067404419183
0.0260648634284734
0.0270643532276153
0.0270518232136964
0.0257069487124681
0.0228132028132677
0.0183136630803346
0.0123401368036866
0.0052109360694885
-0.0026003327220678
-0.0105185229331254
-0.0179380197077989
-0.0243024751543998
-0.0291737485677003
-0.0322740152478218
-0.0335013233125209
-0.0329219177365303
-0.0307413320988416
-0.0272653922438621
-0.0228606536984443
-0.0179129987955093
-0.0127885211259126
-0.0078047881834208
-0.0032121776603162
0.0008174832910299
0.0041981404647231
0.0069327997043728
0.0091015603393316
0.0108298119157552
0.0122550716623663
0.0135097075253725
0.0147153977304697
0.0159795619547367
0.0173917450010776
0.0190189629793167
0.0208966918289661
0.0230142697691917
0.025296039879322
0.0275802016258239
0.0296048745512962
0.0310210417956113
0.0314414873719215
0.030511051416397
0.027977131307125
0.0237474348396062
0.0179261546581983
0.0108201801776885
0.0029092924669384
-0.0052170930430293
-0.0129399355500936
-0.0196874737739563
-0.0249984208494424
-0.0285637304186821
-0.0302427876740694
-0.0300598815083503
-0.0281877163797616
-0.0249193776398897
-0.0206287559121847
-0.0157240778207778
-0.0106049375608563
-0.0056293746456503
-0.0010881890775635
0.0028163571842014
0.0059838383458554
0.0084151923656463
0.0101970182731747
0.0114753125235438
0.0124249886721372
0.0132207851856946
0.0140141658484935
0.0149186560884118
0.0160038992762565
0.0172969382256269
0.0187888983637094
0.0204420741647481
0.0221855528652668
0.0238959267735481
0.025379279628396
0.0263720136135816
0.0265650358051061
0.0256480667740106
0.0233679432421922
0.0195902176201343
0.0143493311479687
0.0078726224601268
0.0005672769621014
-0.0070286998525261
-0.0143172796815633
-0.0207185726612806
-0.0257437787950038
-0.0290491580963134
-0.0304657816886901
-0.030007604509592
-0.027859341353178
-0.0243453569710254
-0.019882321357727
-0.0149238184094429
-0.0099086090922355
-0.0052175465971231
-0.0011398177593946
0.0021458184346556
0.0045701190829277
0.0061597889289259
0.0070208441466093
0.0073184464126825
0.0072533329948782
0.0070397201925516
0.0068805813789367
0.0069379871711134
0.007310377433896
0.0080265030264854
0.0090547995641827
0.0103207696229219
0.0117248706519603
0.0131572317332029
0.0145035926252603
0.0156357400119304
0.016392869874835
0.0165732000023126
0.015948437154293
0.0142994485795497
0.0114656444638967
0.0073968283832073
0.0021876282989978
-0.0039211604744195
-0.0105693265795707
-0.0173185467720031
-0.0237020645290613
-0.0292789973318576
-0.0336847193539142
-0.0366675816476345
-0.0381075590848922
-0.038017276674509
-0.0365281254053115
-0.0338665805757045
-0.0303252283483743
-0.026231100782752
-0.0219126213341951
-0.0176672879606485
-0.0137380473315715
-0.0103034973144531
-0.0074740629643201
-0.005287610925734
-0.0037103174254298
-0.0026473877951502
-0.001960651949048
-0.0014913585036993
-0.0010857796296477
-0.0006153238937258
1.363363116979599e-05
0.0008573047816753
0.0019361861050128
0.0032387403771281
0.0047262553125619
0.0063369385898113
0.0079793632030487
0.0095123928040266
0.0107320081442594
0.0113845970481634
0.0112034054473042
0.0099563337862491
0.0074974382296204
0.0038128346204757
-0.0009535672143101
-0.0065053878352046
-0.0124285453930497
-0.0182463657110929
-0.0234837159514427
-0.0277240369468927
-0.0306484848260879
-0.0320607349276542
-0.0319031849503517
-0.0302626900374889
-0.0273585151880979
-0.0235070288181304
-0.0190724991261959
-0.0144217228516936
-0.0098884012550115
-0.0057461373507976
-0.0021908530034124
0.0006678550853393
0.0028059731703251
0.0042743403464555
0.0051819803193211
0.0056775258854031
0.0059299217537045
0.0061106029897928
0.0063756154850125
0.0068450337275862
0.0075881276279687
0.0086219385266304
0.009919230826199
0.0114217726513743
0.0130534563213586
0.0147209716960787
0.0162989124655723
0.0176138021051883
0.0184437688440084
0.0185398459434509
0.0176654737442731
0.0156460124999284
0.0124194119125604
0.0080733345821499
0.0028491315897554
-0.0028881339821964
-0.0086968336254358
-0.0141139207407832
-0.0187129713594913
-0.0221530422568321
-0.0242100730538368
-0.0247908718883991
-0.0239320900291204
-0.0217880308628082
-0.0186088420450687
-0.0147080924361944
-0.010423257946968
-0.0060770977288484
-0.0019464613869786
0.0017587011680006
0.0049025127664208
0.0074175489135086
0.0092992447316646
0.0106031540781259
0.0114335063844919
0.0119244866073131
0.0122231869027018
0.0124733708798885
0.0127995908260345
0.0132952230051159
0.0140155777335166
0.0149773452430963
0.0161647982895374
0.0175392460078001
0.0190484747290611
0.0206316169351339
0.0222095102071762
0.023660123348236
0.0247975997626781
0.0253745801746845
0.0251131020486354
0.0237556211650371
0.0211211033165454
0.0171536095440387
0.011954128742218
0.0057863900437951
-0.0009471774101257
-0.0077548585832118
-0.0141210183501243
-0.0195727422833442
-0.0237320400774478
-0.0263472199440002
-0.0273091234266757
-0.0266567729413509
-0.0245656967163085
-0.0213158801198005
-0.0172505024820566
-0.0127360075712203
-0.008126363158226
-0.003734229132533
0.0001904722303152
0.0034763095900416
0.0060384254902601
0.0078756101429462
0.0090573197230696
0.009706201031804
0.0099806645885109
0.0100567555055022
0.0101057309657335
0.0102692330256104
0.0106434011831879
0.011277480982244
0.0121799260377883
0.0133270742371678
0.0146743329241871
0.0161668788641691
0.0177433043718338
0.0193313062191009
0.0208404343575239
0.022151231765747
0.0231028702110052
0.0234913676977157
0.0230872221291065
0.0216724574565887
0.0190862566232681
0.0152638908475637
0.0102645857259631
0.004287077113986
-0.002335712313652
-0.0091687142848968
-0.0157281886786222
-0.0215440224856138
-0.0262171309441328
-0.0294616539031267
-0.0311286095529794
-0.0312111899256706
-0.0298332907259464
-0.0272243618965148
-0.0236834548413753
-0.019540561363101
-0.0151262218132615
-0.0107499128207564
-0.0066793449223041
-0.0031200293451547
-0.0002004224807024
0.0020359503105282
0.0036285147070884
0.0046836957335472
0.0053484151139855
0.0057829595170915
0.0061421878635883
0.0065636234357953
0.0071546277031302
0.007981396280229
0.009069493971765
0.010413609445095
0.0119842216372489
0.0137282917276024
0.0155731253325939
0.017438244074583
0.0192457996308803
0.0209145415574312
0.0223371461033821
0.0233582537621259
0.0237687602639198
0.0233224295079708
0.0217747092247009
0.0189352594316005
0.0147198215126991
0.0091895367950201
0.0025693266652524
-0.0047629079781472
-0.0123189520090818
-0.0195639990270137
-0.0259847417473793
-0.0311478897929191
-0.0347394496202468
-0.0365856550633907
-0.036661148071289
-0.0350834280252456
-0.0320923663675785
-0.0280184727162122
-0.0232447814196348
-0.0181664712727069
-0.0131529802456498
-0.0085176201537251
-0.0044935308396816
-0.0012140497565269
0.0012917323037981
0.0030813012272119
0.0042728902772068
0.0050227232277393
0.0055026249028742
0.0058787986636161
0.006296956911683
0.0068742474541068
0.0076941736042499
0.0088020302355289
0.0102029684931039
0.0118656754493713
0.01373291015625
0.0157356411218643
0.0178004503250122
0.0198419690132141
0.0217390600591897
0.0233054421842098
0.0242796316742897
0.024348571896553
0.0231977272778749
0.0205744672566652
0.0163516961038112
0.0105776023119688
0.0034964527003467
-0.0044692819938063
-0.0127699356526136
-0.0207976419478654
-0.0279603600502014
-0.0337490998208522
-0.0377862118184566
-0.0398522168397903
-0.0399000868201255
-0.0380589440464973
-0.0346158295869827
-0.0299721099436283
-0.0245879776775836
-0.0189303308725357
-0.0134280109778046
-0.0084333950653672
-0.0041939970105886
-0.0008393265306949
0.001615204848349
0.0032508522272109
0.004220949485898
0.004724184051156
0.004980506375432
0.0052085211500525
0.0055989697575569
0.0062907505780458
0.0073604518547654
0.0088245533406734
0.0106497155502438
0.0127677805721759
0.0150900334119796
0.0175168514251709
0.0199370235204696
0.0222106501460075
0.0241421274840831
0.0254625529050827
0.0258404519408941
0.0249258335679769
0.0224189274013042
0.0181474536657333
0.0121269403025507
0.0045828958973288
-0.0040647154673933
-0.0132447956129908
-0.0222988277673721
-0.0305567309260368
-0.0374145805835723
-0.0424008890986442
-0.0452203080058097
-0.0457731559872627
-0.0441526174545288
-0.0406210869550704
-0.0355703197419643
-0.0294718723744153
-0.0228245481848716
-0.016104144975543
-0.0097217299044132
-0.0039966702461242
0.0008584782481193
0.0047456733882427
0.0076791029423475
0.0097717866301536
0.0112129747867584
0.0122375758364796
0.013090974651277
0.0139949787408113
0.0151217551901936
0.0165821909904479
0.0184270292520523
0.0206529200077056
0.0232113748788833
0.026022769510746
0.0289898812770843
0.0320010930299758
0.034920547157526
0.0375676602125167
0.0396943278610706
0.0409772098064422
0.0410405546426773
0.039511252194643
0.036092922091484
0.0306407324969768
0.0232204012572765
0.0141333388164639
0.0038970382884144
-0.0068115508183836
-0.0172339417040348
-0.0266181472688913
-0.0343072675168514
-0.039815004914999
-0.0428722575306892
-0.0434375703334808
-0.0416779145598411
-0.0379302836954593
-0.0326512828469276
-0.0263607129454612
-0.0195864550769329
-0.0128166694194078
-0.0064616575837135
-0.0008273962885141
0.0038980841636657
0.0076474444940686
0.010465944185853
0.0124917495995759
0.0139273535460233
0.0150057896971702
0.0159571822732687
0.0169826373457908
0.018237667158246
0.0198218952864408
0.0217740423977375
0.0240759197622537
0.0266659259796142
0.0294549837708473
0.0323379822075367
0.0352002568542957
0.0379147455096244
0.0403206497430801
0.0421925671398639
0.0432262681424617
0.0430555306375026
0.0412979871034622
0.037626065313816
0.0318497009575367
0.0239869076758623
0.0143025554716587
0.0033034617081284
-0.0083126258105039
-0.0197435691952705
-0.0301850605756044
-0.0389272980391979
-0.0454312600195407
-0.0493769533932209
-0.0506804250180721
-0.0494790971279144
-0.0460923165082931
-0.0409734584391117
-0.0346627905964851
-0.0277348328381776
-0.0207394603639841
-0.0141489822417497
-0.0083206817507743
-0.0034752357751131
0.000309727853164
0.0030895550735294
0.0050266892649233
0.0063522262498736
0.0073225875385105
0.0081839729100465
0.0091506047174334
0.0103924926370382
0.0120268147438764
0.0141089046373963
0.0166252683848142
0.0194975323975086
0.022599771618843
0.0257818568497896
0.0288919359445571
0.0317915789783
0.0343519151210784
0.0364252924919128
0.0378074944019317
0.0382179766893386
0.0373169332742691
0.0347592569887638
0.0302726291120052
0.0237419381737709
0.0152748618274927
0.0052222441881895
-0.0058522829785943
-0.017238100990653
-0.028163693845272
-0.0378891676664352
-0.0457887686789035
-0.0514124780893325
-0.0545216649770736
-0.055095724761486
-0.0533124357461929
-0.049511007964611
-0.0441462360322475
-0.037738598883152
-0.0308237113058567
-0.0239030458033084
-0.0173990819603204
-0.0116231031715869
-0.0067625413648784
-0.0028846869245171
5.19976019859314e-05
0.0021821120753884
0.0037084398791193
0.0048668133094906
0.0058914963155984
0.0069899894297122
0.0083241639658808
0.0099962344393134
0.0120445368811488
0.0144494324922561
0.0171446576714515
0.0200330801308155
0.023005623370409
0.0259538553655147
0.0287705138325691
0.0313431434333324
0.0335400849580764
0.0351840890944004
0.0360272526741027
0.0357531458139419
0.0340176932513713
0.0305184200406074
0.0250718183815479
0.0176801346242427
0.0085698142647743
-0.001812370494008
-0.0128427371382713
-0.0237889271229505
-0.0338938683271408
-0.0424692258238792
-0.048980675637722
-0.0531022921204566
-0.0547324120998382
-0.0539797022938728
-0.0511306598782539
-0.0466065034270286
-0.0409140735864639
-0.0345925688743591
-0.028159812092781
-0.022065894678235
-0.016658192500472
-0.012157630175352
-0.0086504379287362
-0.0060975020751357
-0.0043558124452829
-0.0032097920775413
-0.0024109501391649
-0.0017148833721876
-0.0009074620902538
0.0001776926219463
0.0016487054526805
0.0035525299608707
0.0058783125132322
0.0085658654570579
0.0115177799016237
0.0146132018417119
0.0177225638180971
0.0207193624228239
0.0234819892793893
0.0258820131421089
0.0277602579444646
0.0288998093456029
0.0290169883519411
0.0277893766760826
0.0249192882329225
0.020213384181261
0.0136539917439222
0.0054415892809629
-0.0040021762251853
-0.0140741076320409
-0.024065813049674
-0.033257607370615
-0.0410066246986389
-0.0468150228261947
-0.050373375415802
-0.0515771955251693
-0.0505173802375793
-0.0474535822868347
-0.042780190706253
-0.0369832962751388
-0.0305861793458461
-0.0240925960242748
-0.0179385859519243
-0.0124560762196779
-0.0078493729233741
-0.0041879685595631
-0.0014178650453686
0.0006125587970018
0.0021194647997617
0.0033476906828582
0.0045356261543929
0.0058860052376985
0.0075470674782991
0.0096025438979268
0.0120655763894319
0.0148808564990758
0.017940578982234
0.0211081989109516
0.0242419503629207
0.0272141024470329
0.0299236550927162
0.0323006995022296
0.0342963263392448
0.0358523689210414
0.0368598438799381
0.0371296815574169
0.0363986045122146
0.0343767628073692
0.0308206547051668
0.0256032049655914
0.0187636278569698
0.0105319544672966
0.0013213297352194
-0.0083147240802645
-0.0177495554089546
-0.0263584293425083
-0.0335865244269371
-0.0390026234090328
-0.0423377081751823
-0.0435049645602703
-0.0425965748727321
-0.0398598946630954
-0.0356601923704147
-0.0304336380213499
-0.0246361140161752
-0.0186999719589948
-0.0130043597891926
-0.0078510744497179
-0.0034421361051499
0.0001323097385466
0.002889949362725
0.0049386615864932
0.0064484886825084
0.0076193735003471
0.0086534991860389
0.009733872488141
0.0110067874193191
0.0125690679997205
0.0144628314301371
0.0166800878942012
0.0191748328506946
0.0218737572431564
0.0246813241392374
0.0274863559752702
0.0301746185868978
0.0326425395905971
0.0348042696714401
0.0365828983485698
0.037881888449192
0.0385508574545383
0.0383712500333786
0.0370764769613742
0.0344034135341644
0.0301613342016935
0.0242985598742961
0.0169467832893133
0.0084311971440911
-0.0007576532661914
-0.010026847012341
-0.0187608674168586
-0.0263968929648399
-0.0324849002063274
-0.0367264673113822
-0.0389899164438247
-0.0393071547150611
-0.0378574207425117
-0.0349376611411571
-0.030922558158636
-0.0262225680053234
-0.0212435442954301
-0.0163494348526
-0.0118333417922258
-0.007899148389697
-0.0046555050648748
-0.0021237528417259
-0.0002519458066672
0.0010719094425439
0.0020037486683577
0.0027218747418373
0.0034048161469399
0.0042112441733479
0.0052622738294303
0.0066323764622211
0.0083501171320676
0.0104003716260194
0.0127261448651552
0.0152365788817405
0.0178244784474372
0.0203862655907869
0.0228309966623783
0.0250772535800933
0.0270491354167461
0.0286690518260002
0.029835507273674
0.030394822359085
0.0301325023174285
0.028797473758459
0.0261528007686138
0.0220370329916477
0.0164204761385917
0.0094419512897729
0.0014137057587504
-0.0072070658206939
-0.0158694609999656
-0.0239923987537622
-0.0310344155877828
-0.0365592911839485
-0.0402825064957141
-0.0420910157263278
-0.0420389436185359
-0.0403250455856323
-0.0372573472559452
-0.0332110226154327
-0.0285854749381542
-0.0237651765346527
-0.019088851287961
-0.0148276556283235
-0.0111684380099177
-0.0082030221819877
-0.0059297010302543
-0.0042676106095314
-0.0030786080751568
-0.0021934416145086
-0.0014383583329617
-0.0006550445687025
0.0002866019494831
0.0014786934480071
0.0029694514814764
0.0047640465199947
0.0068311300128698
0.0091110505163669
0.0115240477025508
0.0139797003939747
0.0163875017315149
0.0186665523797273
0.020750343799591
0.0225789975374937
0.0240721348673105
0.025092439725995
0.0254284348338842
0.0248137488961219
0.0229772515594959
0.0197101645171642
0.0149313639849424
0.0087312255054712
0.0013842592015862
-0.0066713020205497
-0.014884877949953
-0.0226651597768068
-0.0294556804001331
-0.0348001569509506
-0.0383860021829605
-0.0400625988841056
-0.0398441031575202
-0.0379033498466014
-0.0345483645796775
-0.0301777850836515
-0.0252280198037624
-0.0201246291399002
-0.0152423856779932
-0.010875659994781
-0.0072201075963675
-0.0043665156699717
-0.0023062776308506
-0.0009456726256757
-0.0001256670802831
0.0003540297038853
0.0007071518339216
0.0011331820860505
0.0017936148215085
0.0027945889160037
0.0041806492954492
0.0059414003044366
0.0080246366560459
0.0103487251326441
0.0128142498433589
0.0153172025457024
0.0177611000835895
0.0200621709227561
0.0221401937305927
0.023892318829894
0.0251622162759304
0.0257271360605955
0.0253190677613019
0.0236759819090366
0.0206028502434492
0.0160250086337327
0.0100264512002468
0.0028652511537075
-0.0050425129011273
-0.0131687670946121
-0.0209386274218559
-0.0278007090091705
-0.0332894772291183
-0.0370710976421833
-0.0389687903225421
-0.0389686971902847
-0.0372093021869659
-0.0339562445878982
-0.0295653082430362
-0.0244382191449403
-0.0189790800213813
-0.0135597148910164
-0.0084944739937782
-0.0040206760168075
-0.0002829916775226
0.0026760892942547
0.0049123419448733
0.0065599996596574
0.0078033916652202
0.0088459374383091
0.009880393743515
0.0110657475888729
0.0125123681500554
0.0142747042700648
0.0163533799350261
0.0187072660773992
0.0212676487863063
0.023945864289999
0.0266386717557907
0.0292388275265693
0.031648613512516
0.0337889641523361
0.0355946347117424
0.0369879826903343
0.0378423556685447
0.0379621610045433
0.0370965674519538
0.0349829867482185
0.0314071625471115
0.0262656658887863
0.0196161195635795
0.0117025030776858
0.0029443451203405
-0.0061114970594644
-0.0148612018674612
-0.0227194763720035
-0.0291886180639266
-0.0339112170040607
-0.0366996452212333
-0.0375393815338611
-0.0365689918398857
-0.0340451002120971
-0.0303037967532873
-0.0257243961095809
-0.0206930115818977
-0.0155696673318743
-0.0106637384742498
-0.0062143448740243
-0.0023773945868015
0.000775309279561
0.0032476503401994
0.0051077092066407
0.006474764086306
0.0075029144063591
0.0083626434206962
0.0092226630076766
0.0102303242310881
0.0114923985674977
0.0130635779350996
0.014946567825973
0.0171014592051506
0.0194591972976923
0.0219361223280429
0.0244485344737768
0.0269213747233152
0.0292859636247158
0.0314725823700428
0.0334025919437408
0.0349724143743515
0.0360257253050804
0.0363335311412811
0.035607673227787
0.0335479490458965
0.0299054607748985
0.0245479755103588
0.0175127368420362
0.0090323993936181
-0.0004706959880422
-0.0104217790067195
-0.0201602783054113
-0.0290263704955577
-0.0364474207162857
-0.042001686990261
-0.0454504415392875
-0.0467428751289844
-0.0460003204643726
-0.0434857346117496
-0.0395639538764953
-0.0346585288643837
-0.029209055006504
-0.0236314907670021
-0.0182861424982547
-0.0134541690349578
-0.0093211261555552
-0.0059698326513171
-0.0033840108662843
-0.0014638341963291
-5.210656672716141e-05
0.0010383836925029
0.0020022662356495
0.0030202181078493
0.0042388164438307
0.0057575106620788
0.0076240245252847
0.0098367678001523
0.0123535292223095
0.0151030272245407
0.0179958045482635
0.0209327526390552
0.0238128323107957
0.0265440866351127
0.0290528815239667
0.0312734171748161
0.0331094749271869
0.0343907475471496
0.0348565578460693
0.0341804884374141
0.0320293083786964
0.028140427544713
0.0223982408642768
0.0148899694904685
0.0059240362606942
-0.0039958758279681
-0.0142307011410593
-0.0240828096866607
-0.0328793413937091
-0.0400491878390312
-0.0451767779886722
-0.0480322800576686
-0.0485871694982051
-0.0470094121992588
-0.0436298139393329
-0.0388879403471946
-0.0332741439342498
-0.0272768605500459
-0.0213378146290779
-0.015818553045392
-0.0109795425087213
-0.0069696297869086
-0.0038260342553257
-0.0014868262223899
0.0001876126043498
0.0013914727605879
0.0023491019383072
0.00328442431055
0.0043880934827029
0.0057943658903241
0.0075742807239294
0.0097400704398751
0.0122527759522199
0.0150341428816318
0.0179838426411151
0.0209941137582063
0.0239587277173995
0.0267811696976423
0.0293810442090034
0.0316880084574222
0.0336148962378501
0.035019751638174
0.0356808379292488
0.0353020764887332
0.033552411943674
0.0301325730979442
0.0248539503663778
0.0177104640752077
0.0089222807437181
-0.001066303346306
-0.0116339307278394
-0.0220585502684116
-0.0316082648932933
-0.0396315045654773
-0.0456290617585182
-0.0492981784045696
-0.0505480356514453
-0.049488116055727
-0.0463967286050319
-0.0416826270520687
-0.0358438491821289
-0.0294188167899847
-0.0229308977723121
-0.0168358720839023
-0.0114812264218926
-0.0070823337882757
-0.0037165875546634
-0.0013341605663299
0.0002180505543947
0.0011651581153273
0.00176887284033
0.0022910654079169
0.0029635252431035
0.0039678579196333
0.0054249595850706
0.0073901806026697
0.0098498705774545
0.0127256326377391
0.0158932972699403
0.0192080289125442
0.0225250944495201
0.0257141105830669
0.0286630224436521
0.031264528632164
0.0333842374384403
0.0348249860107898
0.0353102833032608
0.0345035083591938
0.0320658721029758
0.0277392212301492
0.0214278846979141
0.0132537651807069
0.0035685836337506
-0.0070758163928985
-0.0179885160177946
-0.0284211859107017
-0.0376556515693664
-0.0450825057923793
-0.0502620972692966
-0.0529620945453643
-0.0531670786440372
-0.0510611720383167
-0.0469916500151157
-0.0414210706949234
-0.0348721109330654
-0.0278715565800666
-0.0209006294608116
-0.0143580287694931
-0.0085401451215147
-0.0036327680572867
0.0002939524129033
0.0032830070704221
0.0054738372564315
0.0070742792449891
0.0083270445466041
0.0094761848449707
0.010737725533545
0.0122775351628661
0.0142002385109663
0.0165478717535734
0.0193038396537303
0.0224025174975395
0.0257446449249982
0.0292116999626159
0.0326744653284549
0.0360008403658866
0.0390633232891559
0.0417307615280151
0.0438358262181282
0.0451397523283958
0.0453242659568786
0.0440225936472415
0.0408862382173538
0.0356711372733116
0.0283183846622705
0.0190057661384344
0.0081547629088163
-0.0036051743663847
-0.0155040938407182
-0.0267248414456844
-0.0365097783505916
-0.0442527309060096
-0.0495545603334903
-0.0522419847548007
-0.0523585714399814
-0.0501379482448101
-0.04596583917737
-0.0403320640325546
-0.0337762236595153
-0.0268335938453674
-0.0199864003807306
-0.0136261777952313
-0.0080288825556635
-0.003341743722558
0.00041439011693
0.0033248993568122
0.0055498448200523
0.0072912736795842
0.008765104226768
0.0101775079965591
0.0117051657289266
0.0134805385023355
0.0155841158702969
0.0180440507829189
0.0208401661366224
0.023910092189908
0.0271589420735836
0.0304726678878068
0.033732321113348
0.0368275456130504
0.039665088057518
0.0421576499938964
0.0441842824220657
0.0455437488853931
0.0459351390600204
0.0449817739427089
0.0422956161201
0.0375679731369018
0.0306610260158777
0.0216717980802059
0.0109524214640259
-0.0009153382852673
-0.0131855802610516
-0.0250407122075557
-0.035690564662218
-0.0444591864943504
-0.0508503653109073
-0.0545907579362392
-0.0556466020643711
-0.0542077831923961
-0.0506433099508285
-0.0454432591795921
-0.0391598492860794
-0.0323520712554454
-0.0255349352955818
-0.0191354379057884
-0.0134614957496523
-0.0086905928328633
-0.0048758345656096
-0.0019606386777013
0.0002019227395066
0.001823968719691
0.0031511369161307
0.0044258246198296
0.0058522685430943
0.0075741442851722
0.0096677038818597
0.0121456934139132
0.014967474155128
0.0180517490953207
0.0212903600186109
0.0245635285973548
0.0277549289166927
0.0307622235268354
0.0334999822080135
0.0358923785388469
0.0378487110137939
0.039224199950695
0.0397892966866493
0.039230853319168
0.0371918193995952
0.0333441719412803
0.027477603405714
0.0195767246186733
0.0098637621849775
-0.0012025944888591
-0.012968985363841
-0.0246605649590492
-0.0354735404253006
-0.0446708127856254
-0.0516664870083332
-0.0560889020562171
-0.0578109174966812
-0.0569420978426933
-0.0537905916571617
-0.0488110557198524
-0.0425503179430961
-0.0355911031365394
-0.0284935235977172
-0.0217417180538177
-0.0157053526490926
-0.010619344189763
-0.0065781762823462
-0.0035435250028967
-0.0013682972639799
0.0001663281582295
0.0013123410753905
0.002322569489479
0.0034247748553752
0.0048014842905104
0.0065770582295954
0.0088119227439165
0.0115016084164381
0.014581436291337
0.0179393552243709
0.0214354172348976
0.0249242819845676
0.0282752141356468
0.0313813425600528
0.0341521054506301
0.0364878177642822
0.0382414162158966
0.0391848087310791
0.0390062145888805
0.0373518951237201
0.0339028313755989
0.0284632593393325
0.0210320428013801
0.0118355974555015
0.0013206843286752
-0.009886248037219
-0.0210480093955993
-0.0314039625227451
-0.0402593612670898
-0.0470608100295066
-0.051448468118906
-0.0532819963991642
-0.0526393614709377
-0.0497916340827941
-0.0451607927680015
-0.0392660237848758
-0.0326630622148513
-0.0258852913975715
-0.0193985067307949
-0.0135720316320657
-0.0086584566161036
-0.0047805835492908
-0.0019319695420563
6.5569765865802765e-06
0.0012379591353237
0.0020140018314123
0.0026002000086009
0.0032443003728985
0.004150791093707
0.0054628774523735
0.0072525218129158
0.0095198694616556
0.0122032072395086
0.0151983778923749
0.0183802787214517
0.0216173380613327
0.0247793272137641
0.0277375876903533
0.030346417799592
0.0324080660939216
0.03364784643054
0.0337224341928958
0.0322651974856853
0.0289600752294063
0.0236258842051029
0.0162860378623008
0.0072027696296572
-0.0031336322426795
-0.014056546613574
-0.0248026475310325
-0.0346057377755641
-0.0427901744842529
-0.0488461591303348
-0.0524736009538173
-0.0535928010940551
-0.0523291938006877
-0.0489812158048152
-0.04397564381361
-0.0378143563866615
-0.0310216229408979
-0.0240975655615329
-0.0174776762723922
-0.0115017155185341
-0.0063942559063434
-0.00225485349074
0.0009409831836819
0.0033245009835809
0.0050986176356673
0.0064966455101966
0.0077502280473709
0.009067983366549
0.0106172626838088
0.0125089362263679
0.0147924879565835
0.0174619629979133
0.0204653646796941
0.0237150751054286
0.0271011888980865
0.0305046141147613
0.0338070690631866
0.0368990488350391
0.039676696062088
0.0420117527246475
0.0437049344182014
0.0444602370262146
0.0439056903123855
0.0416590794920921
0.037418894469738
0.0310522131621837
0.0226552505046129
0.0125719737261533
0.0013662786222994
-0.0102437492460012
-0.0214737597852945
-0.0315676927566528
-0.0398837588727474
-0.0459573455154895
-0.0495331399142742
-0.0505715422332286
-0.049237810075283
-0.0458719171583652
-0.0409379377961158
-0.0349636264145374
-0.0284819956868886
-0.0219806600362062
-0.0158621668815612
-0.0104183088988065
-0.0058194454759359
-0.0021162834018468
0.0007483959197998
0.0029189498163759
0.0045984196476638
0.0060159573331475
0.0073959166184067
0.0089310584589838
0.0107596581801772
0.0129517316818237
0.015509677119553
0.0183805488049983
0.0214736424386501
0.0246793068945407
0.0278867818415164
0.0309964753687381
0.0339237302541732
0.0365969464182853
0.0389460697770118
0.0408730581402778
0.0422131717205047
0.0427126623690128
0.0420444458723068
0.0398614816367626
0.0358705520629882
0.0299092829227447
0.0220102854073047
0.0124362427741289
0.0016746143810451
-0.0096098072826862
-0.0206558816134929
-0.0307056941092014
-0.0391001775860786
-0.0453489460051059
-0.0491688027977943
-0.050495121628046
-0.0494689233601093
-0.0464028939604759
-0.0417323224246501
-0.0359605997800827
-0.0296081639826297
-0.0231662672013044
-0.0170550420880317
-0.0115905124694108
-0.0069655939005315
-0.0032474533654749
-0.000391136854887
0.0017361263744533
0.0033265880774706
0.0046014790423214
0.0057803988456726
0.0070550669915974
0.0085704177618026
0.0104154925793409
0.0126255173236131
0.0151897799223661
0.0180572215467691
0.0211404971778392
0.0243254955857992
0.0274877473711967
0.0305085275322198
0.03328388184309
0.0357247330248355
0.0377405881881713
0.039202157407999
0.0399043560028076
0.0395613461732864
0.0378431677818298
0.0344434902071952
0.0291625764220953
0.02198226749897
0.0131068937480449
0.0029587699100375
-0.007865666411817
-0.0186659134924411
-0.0287195220589637
-0.03736437484622
-0.0440707728266716
-0.04849399253726
-0.0505008734762668
-0.0501674711704254
-0.047751311212778
-0.0436471179127693
-0.0383334942162036
-0.0323174409568309
-0.026082869619131
-0.0200470872223377
-0.014532214961946
-0.0097548039630055
-0.0058247372508049
-0.0027474926318973
-0.0004331970121711
0.0012834495864808
0.0026122098788619
0.0037734590005129
0.004970031324774
0.0063654766418039
0.0080696186050772
0.0101340394467115
0.0125557892024517
0.0152860255911946
0.0182441659271717
0.021335544064641
0.0244617499411106
0.0275210104882717
0.0304105225950479
0.0330307334661483
0.0352743119001388
0.0369944348931312
0.0379720218479633
0.0379111133515834
0.0364760980010032
0.0333613641560077
0.0283720605075359
0.0214931312948465
0.0129275294020771
0.0030947439372539
-0.0074078282341361
-0.0178727805614471
-0.0275707654654979
-0.0358442142605781
-0.0421850681304931
-0.0462822467088699
-0.0480376929044723
-0.0475535914301872
-0.045098602771759
-0.0410658195614814
-0.0359281226992607
-0.0301908235996961
-0.0243431627750396
-0.0188130047172307
-0.0139296595007181
-0.0098993433639407
-0.0067979311570525
-0.0045822593383491
-0.003116076812148
-0.002203406067565
-0.0016205145511776
-0.0011418799404054
-0.0005621090531349
0.0002839881926774
0.0015060207806527
0.003152668941766
0.0052168676629662
0.007646013982594
0.0103528760373592
0.0132281510159373
0.0161561127752065
0.0190278105437755
0.0217429473996162
0.0241950843483209
0.0262378454208374
0.0276459604501724
0.0281048640608787
0.0272487625479698
0.0247363932430744
0.0203399918973445
0.0140210827812552
0.0059712408110499
-0.0033917240798473
-0.0134685179218649
-0.0235524661839008
-0.0329181924462318
-0.0409089550375938
-0.0470082573592662
-0.0508849695324897
-0.0524076335132122
-0.0516362637281417
-0.048803687095642
-0.0442861132323741
-0.0385574959218502
-0.0321329608559608
-0.0255135241895914
-0.0191392358392477
-0.0133533896878361
-0.0083811348304152
-0.004323954693973
-0.0011685341596603
0.0011941436678171
0.0029439679346978
0.0043020802550017
0.0055009848438203
0.0067595280706882
0.008258756250143
0.0101199448108673
0.0123949684202671
0.0150700099766254
0.0180770065635442
0.0213094130158424
0.0246391482651233
0.0279334913939237
0.0310714244842529
0.0339548662304878
0.0365047454833984
0.0386335551738739
0.0402029082179069
0.0409933030605316
0.040711835026741
0.0390395484864711
0.0356984287500381
0.0305204447358846
0.0235096123069524
0.014881694689393
0.0050640292465686
-0.0053474935702979
-0.0156606752425432
-0.0251707378774881
-0.0332433506846427
-0.0393870770931243
-0.0433029159903526
-0.0449012331664562
-0.0442871414124965
-0.0417259037494659
-0.0375991687178611
-0.0323564633727073
-0.0264683496206998
-0.0203869119286537
-0.0145109370350837
-0.0091547677293419
-0.0045267166569828
-0.0007228134199976
0.0022642454132437
0.0045283325016498
0.0062294066883623
0.0075665079057216
0.0087474361062049
0.0099633615463972
0.0113706830888986
0.0130789699032902
0.0151468720287084
0.0175851602107286
0.0203590020537376
0.023388884961605
0.0265595242381095
0.0297377780079841
0.032791182398796
0.0356012620031833
0.0380661785602569
0.0400832556188106
0.0415131673216819
0.0421487987041473
0.0417133010923862
0.0398961268365383
0.0364196859300136
0.0311156939715147
0.0239900555461645
0.0152622163295745
0.0053647169843316
-0.0051046041771769
-0.0154638327658176
-0.025035835802555
-0.0332263149321079
-0.0395819917321205
-0.0438241995871067
-0.0458589829504489
-0.0457684062421321
-0.0437864586710929
-0.0402628518640995
-0.0356198772788047
-0.0303072966635227
-0.0247579645365476
-0.0193465054035186
-0.0143577493727207
-0.0099744508042931
-0.0062838532030582
-0.0032898187637329
-0.0009235069155693
0.0009424518793821
0.0024734418839216
0.0038490265142172
0.0052400198765099
0.0067892358638346
0.0085973255336284
0.0107151065021753
0.0131434453651309
0.015839859843254
0.0187288112938404
0.0217157769948244
0.0247062053531408
0.027618370950222
0.0303794704377651
0.0329121463000774
0.0351150743663311
0.0368339158594608
0.0378371030092239
0.0378208234906196
0.0364520214498043
0.033436968922615
0.0285931751132011
0.0219074636697769
0.0135690942406654
0.0039704358205199
-0.0063253166154026
-0.0166425313800573
-0.0262704230844974
-0.0345524065196514
-0.0409695506095886
-0.0451949127018451
-0.0471124351024627
-0.0468074567615985
-0.0445354282855987
-0.040677111595869
-0.0356889180839061
-0.0300539154559373
-0.0242357365787029
-0.0186377502977848
-0.0135733783245086
-0.009249604307115
-0.005760533735156
-0.0030899117700755
-0.0011244255583733
0.0003174742450937
0.0014447545399889
0.002459721872583
0.0035398392938077
0.0048274151049554
0.0064217112958431
0.0083738071843981
0.0106851104646921
0.0133114783093333
0.0161738507449626
0.019172117114067
0.0221969056874513
0.0251376293599605
0.0278871022164821
0.030337031930685
0.0323559008538723
0.0337529778480529
0.0342560485005378
0.0335344821214675
0.0312647446990013
0.0272087417542934
0.0212844870984554
0.0136164529249072
0.0045498153194785
-0.005379076115787
-0.0155088929459452
-0.0251387655735015
-0.033612921833992
-0.0403933636844158
-0.0451130904257297
-0.0475998073816299
-0.0478709265589714
-0.0461141802370548
-0.0426611825823783
-0.0379484891891479
-0.0324657447636127
-0.0267002917826175
-0.0210877992212772
-0.0159748010337352
-0.0115957399830222
-0.0080649917945265
-0.0053814998827874
-0.0034444706980139
-0.0020807853434234
-0.0010783744510263
