bvp
-0.0315423756837844
-0.0279357992112636
-0.023466121405363
-0.0185275450348854
-0.0134942969307303
-0.0086880251765251
-0.0043542687781155
-0.0006461297161877
0.0023796539753675
0.0047497898340225
0.006553731393069
0.0079228337854146
0.0090085938572883
0.0099628614261746
0.0109232738614082
0.0120010133832693
0.0132697662338614
0.0147600043565034
0.0164625477045774
0.0183403305709362
0.0203409623354673
0.0224039293825626
0.0244628190994262
0.0264405608177185
0.028229970484972
0.0296654570847749
0.0305115692317485
0.0304858069866895
0.0293096918612718
0.0267714355140924
0.0227823890745639
0.0174142885953187
0.0109119331464171
0.0036760875955224
-0.0037851550150662
-0.0109245497733354
-0.0172256641089916
-0.0222633779048919
-0.025747025385499
-0.0275397673249244
-0.0276594869792461
-0.0262700859457254
-0.0236587096005678
-0.0201948061585426
-0.0162802878767251
-0.0123032871633768
-0.0086024655029177
-0.005441440269351
-0.0029909207951277
-0.0013205448631197
-0.0004038992337882
-0.0001351828686892
-0.000351829919964
-0.0008583709131926
-0.0014487188309431
-0.0019262051209807
-0.0021245821844786
-0.0019297732505947
-0.0012917348649352
-0.0002199145965278
0.0012311078608036
0.0029780445620417
0.0049220798537135
0.0069538312964141
0.008945420384407
0.0107294740155339
0.0120808901265263
0.0127235949039459
0.0123671647161245
0.0107621792703866
0.0077621769160032
0.0033762641251087
-0.002210987266153
-0.0086597008630633
-0.015518139116466
-0.0222755074501037
-0.0284196473658084
-0.0334931537508964
-0.0371411219239234
-0.0391446836292743
-0.0394351854920387
-0.0380895473062992
-0.0353117324411869
-0.0314045436680316
-0.0267329327762126
-0.0216806400567293
-0.0166078470647335
-0.0118191363289952
-0.0075446963310241
-0.0039300955832004
-0.0010303428862243
0.0011871482711285
0.0028255793731659
0.0040345378220081
0.0049882708117365
0.0058662584051489
0.006832321640104
0.0080152163282036
0.0094960359856486
0.0113030578941106
0.0134130073711276
0.0157589726150035
0.0182412825524806
0.0207301974296569
0.023052055388689
0.0249697901308536
0.0261844880878925
0.0263729505240917
0.0252497382462024
0.0226331762969493
0.0184981599450111
0.0130003308877348
0.0064671230502426
-0.0006386254099197
-0.0077761895954608
-0.0143950683996081
-0.0200000237673521
-0.0242030303925275
-0.0267562624067068
-0.0275652389973402
-0.0266863796859979
-0.0243118703365325
-0.0207408834248781
-0.0163401663303375
-0.0115016223862767
-0.0066022491082549
-0.0019692759960889
0.0021472130902111
0.0055921478196978
0.0083118909969925
0.0103476485237479
0.0118165053427219
0.0128839593380689
0.0137342028319835
0.0145454667508602
0.0154738500714302
0.0166400410234928
0.0181149523705244
0.0199129860848188
0.0219990573823452
0.0243019796907901
0.0267233923077583
0.0291339196264743
0.0313581004738807
0.0331631302833557
0.0342656187713146
0.0343637429177761
0.0331943333148956
0.0305982958525419
0.0265693832188844
0.0212725978344678
0.0150315724313259
0.0082867825403809
0.0015315948985517
-0.0047561950050294
-0.0101698860526084
-0.014411287382245
-0.0173109956085681
-0.0188316125422716
-0.019055301323533
-0.0181600917130708
-0.0163912009447813
-0.0140319671481847
-0.0113762430846691
-0.0087037030607461
-0.0062581812962889
-0.0042276736348867
-0.0027269627898931
-0.0017900397069752
-0.0013767946511507
-0.0013865288347005
-0.0016722832806408
-0.0020599956624209
-0.0023746374063193
-0.0024673398584127
-0.0022339602001011
-0.0016193534247577
-0.0006112335249781
0.0007673036307096
0.0024617630988359
0.0043863160535693
0.0064166514202952
0.0083754528313875
0.0100222555920481
0.0110576627776026
0.0111464159563183
0.0099673839285969
0.0072853369638323
0.0030188802629709
-0.0027192709967494
-0.0096195936203002
-0.0172091163694858
-0.0249117203056812
-0.0321234948933124
-0.0382893271744251
-0.0429663993418216
-0.0458655059337616
-0.0468673557043075
-0.0460150130093097
-0.0434888787567615
-0.039575807750225
-0.0346376746892929
-0.0290742702782154
-0.0232812110334634
-0.0176115725189447
-0.0123470658436417
-0.0076814536005258
-0.0037170194555073
-0.000471366365673
0.0021096977870911
0.004135844297707
0.0057534989900887
0.007124459836632
0.0084029603749513
0.009718494489789
0.0111680915579199
0.0128104956820607
0.0146598322317004
0.0166861321777105
0.0188230797648429
0.0209713671356439
0.0229884330183267
0.0246739126741886
0.0257718432694673
0.0260000005364418
0.0251012090593576
0.0229014083743095
0.0193562693893909
0.0145764192566275
0.0088274888694286
0.0025053112767636
-0.0039072805084288
-0.0098988618701696
-0.0149978194385766
-0.0188312772661447
-0.0211606435477733
-0.0218967050313949
-0.0210959315299987
-0.0189392361789941
-0.0157021824270486
-0.0117223113775253
-0.007363349199295
-0.0029777428135275
0.0011283291969448
0.0047212652862071
0.0076535209082067
0.0098663130775094
0.0113840643316507
0.0122994687408208
0.012750107795
0.0128938537091016
0.0128905866295099
0.0128892678767442
0.0130145270377397
0.0133539019152522
0.0139528336003422
0.0148182064294815
0.0159233473241329
0.0172071605920791
0.0185637157410383
0.0198270268738269
0.0207657497376203
0.0211014058440923
0.0205502193421125
0.0188741385936737
0.0159267839044332
0.0116908038035035
0.0063029495067894
5.597155541181564e-05
-0.0066304528154432
-0.013264836743474
-0.0193490330129861
-0.0244383141398429
-0.0281893052160739
-0.0303924698382616
-0.0309870578348636
-0.0300567112863063
-0.0278040245175361
-0.024510296061635
-0.020495506003499
-0.0160881616175174
-0.0116028981283307
-0.0073193893767893
-0.0034613516181707
-0.0001806593936635
0.0024507022462785
0.0044403984211385
0.0058648972772061
0.0068486724048852
0.0075395908206701
0.0080867307260632
0.00862383749336
0.0092588933184742
0.0100679118186235
0.011092877946794
0.012345322407782
0.0138087403029203
0.0154289994388818
0.0170965306460857
0.0186354406177997
0.0198083855211734
0.0203380715101957
0.0199438221752643
0.0183893013745546
0.0155336540192365
0.0113750742748379
0.0060726129449903
-6.304960697889328e-05
-0.0066054295748472
-0.0130653046071529
-0.0189504548907279
-0.0238208696246147
-0.0273373164236545
-0.0293009653687477
-0.0296721924096345
-0.0285609997808933
-0.0261949971318244
-0.0228779315948486
-0.0189489684998989
-0.0147458277642726
-0.0105724278837442
-0.0066737364977598
-0.0032209346536546
-0.0003074195701628
0.0020449517760425
0.0038717635907232
0.0052511575631797
0.0062924940139055
0.0071222870610654
0.0078631257638335
0.0086152870208024
0.0094492873176932
0.0104060834273695
0.011500627733767
0.0127263311296701
0.0140588926151394
0.0154598355293273
0.0168764851987361
0.0182319749146699
0.0194081217050552
0.0202340837568044
0.0204922258853912
0.0199470501393079
0.018391927704215
0.0156969334930181
0.0118450075387954
0.0069525772705674
0.0012709144502878
-0.0048363180831074
-0.0109379207715392
-0.016591127961874
-0.021395307034254
-0.0250363685190677
-0.0273162350058555
-0.0281639639288187
-0.0276321824640035
-0.0258816741406917
-0.023154005408287
-0.0197360888123512
-0.0159252937883138
-0.0120038595050573
-0.0082235960289835
-0.0047921007499098
-0.001856903778389
0.000505241099745
0.0022884695790708
0.0035478631034493
0.0043832045048475
0.0049212188459932
0.0052976734004914
0.0056401677429676
0.0060553960502147
0.0066222827881574
0.0073894779197871
0.0083772586658597
0.0095815965905785
0.0109743075445294
0.0125009967014193
0.0140846166759729
0.0156316012144088
0.0170302595943212
0.0181404054164886
0.0187849383801221
0.0187570191919803
0.0178480464965105
0.0158896185457706
0.0127974450588226
0.0086047006770968
0.0034751575440168
-0.0023043206892907
-0.0083476919680833
-0.0142119610682129
-0.0194563865661621
-0.0237035565078258
-0.0266856215894222
-0.0282679591327905
-0.0284500196576118
-0.0273485537618398
-0.0251716282218694
-0.0221892334520816
-0.0187009703367948
-0.0150037398561835
-0.0113653317093849
-0.0080053638666868
-0.0050821602344512
-0.0026855776086449
-0.0008365921676158
0.0005062603740952
0.0014330634148791
0.0020616666879504
0.0025163542013615
0.00291269691661
0.0033472655341029
0.0038905723486095
0.0045856363140046
0.0054513113573193
0.0064856400713324
0.0076681454665958
0.0089629450812935
0.0103231901302933
0.0116964224725961
0.0130260959267616
0.0142434844747185
0.0152519857510924
0.0159093290567398
0.0160204675048589
0.0153602641075849
0.0137237953022122
0.0109806051477789
0.0071156183257699
0.0022503219079226
-0.0033581310417503
-0.0093403346836566
-0.0152590405195951
-0.0206665657460689
-0.0251628998667001
-0.028442995622754
-0.0303238555788993
-0.0307494811713695
-0.0297818016260862
-0.0275875348597764
-0.0244209002703428
-0.0205954723060131
-0.0164478216320276
-0.012302242219448
-0.0084401313215494
-0.0050757923163473
-0.0023420271463692
-0.0002853195182979
0.0011299727484583
0.0020067295990884
0.0024920743890106
0.0027522421441972
0.0029484606347978
0.0032201269641518
0.0036801230162382
0.0044103185646235
0.0054486915469169
0.006782358046621
0.0083573292940855
0.0100962752476334
0.0119140669703483
0.0137292761355638
0.0154689541086554
0.0170613750815391
0.0184176750481128
0.0194118432700634
0.0198720023036003
0.0195912793278694
0.0183593779802322
0.0160100348293781
0.0124705620110034
0.0077950158156454
0.0021727462299168
-0.0040835402905941
-0.0105665763840079
-0.0168196819722652
-0.0223930217325687
-0.0268988385796546
-0.0300522856414318
-0.031693622469902
-0.0317958295345306
-0.0304580274969339
-0.0278844535350799
-0.024354949593544
-0.020191092044115
-0.0157195664942264
-0.0112390965223312
-0.0069982390850782
-0.0031860116869211
7.00242817401886e-05
0.0027059391140937
0.0047234073281288
0.0061850426718592
0.0072021707892417
0.0079185608774423
0.0084918132051825
0.0090739205479621
0.0097950277850031
0.0107522821053862
0.0120015554130077
0.0135536827147006
0.0153801497071981
0.0174260586500167
0.0196204204112291
0.0218795388936996
0.0241103656589984
0.0262145362794399
0.0280813090503215
0.0295660011470317
0.0304703675210475
0.0305447038263082
0.0295167043805122
0.0271404329687356
0.0232554785907268
0.0178409833461046
0.0110473912209272
0.0031984532251954
-0.0052352780476212
-0.0136866411194205
-0.0215598456561565
-0.0283080618828535
-0.0335014685988426
-0.0368657372891902
-0.0382912307977676
-0.0378274768590927
-0.0356679931282997
-0.0321194157004356
-0.0275596063584089
-0.0223955586552619
-0.0170223824679851
-0.0117858089506626
-0.0069571863859891
-0.0027238857001066
0.0008125770837068
0.003636160865426
0.0058080852031707
0.00744622759521
0.0086994897574186
0.0097269862890243
0.0106825027614831
0.0117006134241819
0.0128859672695398
0.0143066272139549
0.0159907229244709
0.0179299190640449
0.0200885199010372
0.0224119648337364
0.0248337425291538
0.0272806491702795
0.029675543308258
0.0319350734353065
0.0339508280158042
0.0355533175170421
0.0364876054227352
0.036426268517971
0.0350166670978069
0.0319491550326347
0.0270331222563982
0.0202619358897209
0.0118489395827054
0.0022253645583987
-0.0080018024891614
-0.0181233435869216
-0.0274142622947692
-0.0352183878421783
-0.041021429002285
-0.0445014089345932
-0.0455517619848251
-0.0442786216735839
-0.0409726873040199
-0.0360609740018844
-0.0300489347428083
-0.0234620068222284
-0.0167949683964252
-0.010473795235157
-0.0048284940421581
-7.520057260990143e-05
0.0036902055144309
0.0064856633543968
0.0084258308634161
0.0096967089921236
0.0105255972594022
0.0111524257808923
0.0118033224716782
0.0126650212332606
0.0138658937066793
0.0154685843735933
0.0174728129059076
0.0198268182575702
0.0224437024444341
0.0252158902585506
0.0280280672013759
0.0307709835469722
0.0333459191024303
0.0356475934386253
0.0375282205641269
0.0387620963156223
0.0390384942293167
0.0379960015416145
0.0352853909134864
0.0306424163281917
0.0239604394882917
0.0153500968590378
0.0051666595973074
-0.0060088448226451
-0.0174334049224853
-0.0282955672591924
-0.0378178507089614
-0.0453478284180164
-0.0504243485629558
-0.0528136864304542
-0.0525164231657981
-0.0497502386569976
-0.0449127107858657
-0.038527313619852
-0.0311837755143642
-0.0234831571578979
-0.0159861873835325
-0.0091636748984456
-0.0033559435978531
0.0012508202344179
0.0046257795765995
0.0068724635057151
0.0081954719498753
0.0088643971830606
0.0091759171336889
0.0094170710071921
0.0098364148288965
0.0106223626062273
0.0118900034576654
0.0136825321242213
0.0159798320382833
0.0187045745551586
0.021732710301876
0.0249143317341804
0.0280930306762456
0.0311049725860357
0.033752754330635
0.0357711277902126
0.0368128232657909
0.036472350358963
0.0343450605869293
0.0301085896790027
0.023609584197402
0.0149320885539054
0.0044269659556448
-0.0073057268746197
-0.019480712711811
-0.0312267132103443
-0.04169687256217
-0.0501672141253948
-0.0561094246804714
-0.0592317208647728
-0.0594889372587204
-0.057066686451435
-0.052343726158142
-0.0458388850092887
-0.038152378052473
-0.0299075730144977
-0.0216937307268381
-0.0140124391764402
-0.0072350106202065
-0.0015793158672749
0.0028880864847451
0.0062278094701468
0.0085949562489986
0.0102096600458025
0.0113301891833543
0.0122233685106039
0.0131352609023451
0.014268385246396
0.0157668367028236
0.017708359286189
0.0201030652970075
0.0228993967175483
0.0259976871311664
0.0292686913162469
0.0325717888772487
0.0357640571892261
0.0386850945651531
0.0411154590547084
0.0427396073937416
0.0431484654545784
0.0418877862393856
0.0385397896170616
0.0328203104436397
0.0246670581400394
0.0142942313104867
0.0021990593522787
-0.010881146416068
-0.0240538045763969
-0.0363815762102603
-0.0469959713518619
-0.0551937595009803
-0.060503002256155
-0.0627166703343391
-0.0618974864482879
-0.0583521202206611
-0.0525767095386981
-0.04518723487854
-0.0368486791849136
-0.0282102599740028
-0.0198498237878084
-0.0122306142002344
-0.0056734699755907
-0.0003455834230408
0.0037342829164117
0.0066761719062924
0.0086881965398788
0.0100403921678662
0.011030038818717
0.0119482539594173
0.0130461826920509
0.0145071474835276
0.0164325572550296
0.0188435800373554
0.0216930918395519
0.0248811468482017
0.0282732117921113
0.0317205600440502
0.0350779183208942
0.0382095724344253
0.0409725978970527
0.0431781113147735
0.0445543080568313
0.0447418317198753
0.0433341600000858
0.0399500131607055
0.0343171507120132
0.0263549610972404
0.0162396747618913
0.0044274069368839
-0.0083810873329639
-0.0213263295590877
-0.0335001349449157
-0.0440545007586479
-0.0522950887680053
-0.0577497966587543
-0.0602050721645355
-0.0597077496349811
-0.0565367005765438
-0.0511525049805641
-0.0441345982253551
-0.0361173748970031
-0.0277334228157997
-0.0195625647902488
-0.0120851080864667
-0.0056464467197656
-0.0004388960078358
0.0034988885745406
0.0062649664469063
0.0080638863146305
0.0091699454933404
0.0098884711042046
0.0105183515697717
0.011317434720695
0.0124769071117043
0.0141125218942761
0.0162673722952604
0.0189154930412769
0.0219674911350011
0.0252837985754013
0.028695834800601
0.0320316553115844
0.0351360887289047
0.0378713831305503
0.0400908030569553
0.041596557945013
0.0421118810772895
0.041290171444416
0.0387637056410312
0.0342223048210144
0.0275023709982633
0.0186605658382177
0.0080125089734792
-0.0038761012256145
-0.0162507332861423
-0.0282664876431226
-0.0390949808061122
-0.0480184331536293
-0.0545017048716545
-0.0582372397184371
-0.0591596104204654
-0.0574316196143627
-0.0534094721078872
-0.0475936271250247
-0.0405698306858539
-0.0329465195536613
-0.0252956189215183
-0.018102778121829
-0.0117319282144308
-0.0064083924517035
-0.0022204210981726
0.000866531394422
0.0029886765405535
0.0043588113039731
0.0052372012287378
0.0058985948562622
0.0065977806225419
0.0075395172461867
0.0088612670078873
0.0106307351961731
0.01285180170089
0.0154732763767242
0.0183995179831981
0.0215051807463169
0.0246547069400548
0.0277167968451976
0.0305609609931707
0.0330355241894722
0.0349372625350952
0.0359897837042808
0.0358511507511138
0.0341589450836181
0.0306027829647064
0.0250055007636547
0.0173914954066276
0.0080229043960571
-0.0026071537286043
-0.0138242896646261
-0.0248535722494125
-0.0349124372005462
-0.0433005169034004
-0.0494767278432846
-0.0531138852238655
-0.0541216135025024
-0.0526359677314758
-0.0489839725196361
-0.0436350218951702
-0.0371451899409294
-0.0300967916846275
-0.0230409651994705
-0.0164504535496234
-0.0106836082413792
-0.0059620630927383
-0.0023656552657485
0.0001562777906656
0.0017621181905269
0.0026898644864559
0.0032220762223005
0.0036396933719515
0.0041788164526224
0.0050089489668607
0.006230722181499
0.0078817969188094
0.0099448785185813
0.0123572451993823
0.0150237306952476
0.0178316105157136
0.0206623543053865
0.023397509008646
0.0259127989411354
0.0280529782176017
0.0296010002493858
0.030269555747509
0.02972480840981
0.0276356637477874
0.0237437412142753
0.0179425422102212
0.0103390011936426
0.0012733563780784
-0.0087066674605011
-0.018908604979515
-0.0285834148526191
-0.0370212607085704
-0.0436343401670455
-0.0480158068239688
-0.0499712415039539
-0.049521654844284
-0.0468815229833126
-0.0424171686172485
-0.0365948677062988
-0.0299310814589262
-0.0229467041790485
-0.0161211937665939
-0.0098511194810271
-0.0044201561249792
1.6548088751733303e-05
0.0034313558135181
0.0059080463834106
0.0076167276129126
0.0087835481390357
0.009657023474574
0.0104747945442795
0.0114359520375728
0.0126846674829721
0.0143068684265017
0.0163320899009704
0.0187336467206478
0.0214334055781364
0.0243163127452135
0.0272490829229354
0.0300978664308786
0.0327384732663631
0.0350476279854774
0.0368725582957267
0.037997156381607
0.0381332822144031
0.0369517356157302
0.0341464541852474
0.029513232409954
0.0230208523571491
0.0148552469909191
0.005421026609838
-0.004703089594841
-0.0148394722491502
-0.0242963768541812
-0.032446801662445
-0.0387915074825286
-0.0430017709732055
-0.0449406877160072
-0.0446625240147113
-0.0423912480473518
-0.0384814143180847
-0.0333696231245994
-0.0275263730436563
-0.021411070600152
-0.0154304690659046
-0.009907117113471
-0.0050651710480451
-0.0010306758340448
0.0021625973749905
0.004566335119307
0.0063070328906178
0.0075658108107745
0.0085505507886409
0.0094673093408346
0.010495888069272
0.0117729706689715
0.0133817344903945
0.0153469173237681
0.0176393557339906
0.020188758149743
0.022898931056261
0.0256641041487455
0.0283819809556007
0.0309546068310737
0.0332757234573364
0.0352088809013366
0.0365629270672798
0.0370809994637966
0.0364585556089878
0.0343905016779899
0.0306376982480287
0.0250973980873823
0.0178563185036182
0.0092090908437967
-0.0003623981028795
-0.0102420998737216
-0.0197530314326286
-0.0282378811389207
-0.0351382121443748
-0.0400605611503124
-0.0428119748830795
-0.0433987155556678
-0.0419991835951805
-0.0389254465699195
-0.0345792286098003
-0.0294046904891729
-0.0238434448838233
-0.0182964541018009
-0.0130947735160589
-0.0084802769124507
-0.0045965127646923
-0.0014894129708409
0.0008849818259477
0.0026481989771127
0.0039763245731592
0.0050641181878745
0.0060910638421773
0.0072024594992399
0.0085017867386341
0.0100477151572704
0.0118558220565319
0.0139050176367163
0.0161465592682361
0.0185130760073661
0.0209263693541288
0.0233064442873001
0.0255814399570226
0.0276927407830953
0.0295937322080135
0.0312404502183198
0.0325633436441421
0.033424787223339
0.0335959196090698
0.0327765047550201
0.0306509416550397
0.0269623920321464
0.0215853005647659
0.0145780239254236
0.0062047252431511
-0.0030791782774031
-0.0126777533441782
-0.0219314806163311
-0.0302028004080057
-0.0369518585503101
-0.0417899787425994
-0.0445080623030662
-0.0450845435261726
-0.0436755828559398
-0.04058638215065
-0.0362267941236496
-0.0310596991330385
-0.0255501754581928
-0.0201204102486372
-0.0151138501241803
-0.0107721732929348
-0.0072257509455084
-0.0044964607805013
-0.0025120787322521
-0.0011293778661638
-0.0001616533409105
0.0005952909705229
0.0013427280355244
0.0022578071802854
0.0034684911370277
0.0050381058827042
0.006968155503273
0.0092110782861709
0.0116835292428731
0.0142791653051972
0.0168840195983648
0.0193934608250856
0.0217236839234828
0.0238138791173696
0.0256215557456016
0.0271073020994663
0.0282037425786256
0.0287830177694559
0.0286465622484684
0.0275436490774154
0.0252132974565029
0.0214468333870172
0.016159227117896
0.0094423694536089
0.0015800166875123
-0.0069750226102769
-0.0156518761068582
-0.0238331519067287
-0.0309354923665523
-0.036481712013483
-0.0401502177119255
-0.0417972542345523
-0.0414565689861774
-0.039321307092905
-0.0357104688882827
-0.0310285165905952
-0.0257257837802171
-0.0202544499188661
-0.0150205921381711
-0.0103470059111714
-0.0064528151415288
-0.0034441137686371
-0.0013138549402356
4.587648436427117e-05
0.0008179714204743
0.0012254094472154
0.0014959939289838
0.0018341541290283
0.002402767073363
0.0033132415264844
0.0046240375377237
0.0063451020978391
0.0084391366690397
0.0108231185004115
0.0133822727948427
0.0159934163093566
0.0185447223484516
0.020943222567439
0.0231068562716245
0.024943146854639
0.0263227112591266
0.027061179280281
0.0269221495836973
0.0256462283432483
0.0230033043771982
0.0188565738499164
0.0132183795794844
0.0062777446582913
-0.0016081149224191
-0.0099510019645094
-0.0181857962161302
-0.0257342159748077
-0.0320725850760936
-0.0367919094860553
-0.0396386571228504
-0.0405308157205581
-0.0395494289696216
-0.0369133725762367
-0.0329451076686382
-0.0280305501073598
-0.0225786697119474
-0.0169847905635833
-0.0115966945886611
-0.0066885966807603
-0.0024486789479851
0.001024137251079
0.0037178453058004
0.0056979195214807
0.0070919720456004
0.0080694183707237
0.0088164145126938
0.0095128817483782
0.0103173730894923
0.0113555509597063
0.0127082774415612
0.014403423294425
0.0164169669151306
0.0186839923262596
0.021114632487297
0.0236075837165117
0.0260581336915493
0.0283637419342994
0.030425775796175
0.0321387760341167
0.0333661176264286
0.0339169166982173
0.0335447788238525
0.0319779813289642
0.0289745591580867
0.0243880972266197
0.0182266272604465
0.010684423148632
0.002136513357982
-0.006897578947246
-0.0158117115497589
-0.0239877626299858
-0.0308757200837135
-0.0360590927302837
-0.0392908863723278
-0.0405009984970092
-0.0397846326231956
-0.0373774319887161
-0.0336183086037635
-0.0289053954184055
-0.0236537437885999
-0.018259035423398
-0.0130680901929736
-0.0083556566387414
-0.0043063145130872
-0.0010035820305347
0.0015677530318498
0.0035016471520066
0.0049391239881515
0.0060402187518775
0.0069663552567362
0.0078668184578418
0.0088659459725022
0.0100539466366171
0.0114829530939459
0.0131673095747828
0.0150863658636808
0.017190396785736
0.0194110386073589
0.0216723643243312
0.0238979682326316
0.0260161459445953
0.0279621463268995
0.029663298279047
0.0310017578303813
0.0317808091640472
0.0317259766161441
0.0305250007659196
0.0278915297240018
0.0236358866095542
0.0177277419716119
0.0103342365473508
0.0018196036107838
-0.0072939489036798
-0.0163912698626518
-0.0248415488749742
-0.032074250280857
-0.0376394018530845
-0.0412449650466442
-0.0427746623754501
-0.0422907248139381
-0.0400172136723995
-0.0363016426563262
-0.0315653644502162
-0.0262542925775051
-0.0207943320274353
-0.0155525468289852
-0.0108080059289932
-0.0067398832179605
-0.0034317686222493
-0.0008813692256808
0.0009888284839689
0.0023157778196036
0.0032746866345405
0.004057016223669
0.0048469817265868
0.0057960585691034
0.0070051439106464
0.0085213286802172
0.0103436913341283
0.0124316839501261
0.0147162824869155
0.0171139165759086
0.0195391830056905
0.0219120513647794
0.0241601448506116
0.0262173507362604
0.028011230751872
0.0294342022389173
0.0303150042891502
0.0304149519652128
0.0294534116983413
0.0271534267812967
0.0233020056039094
0.0178146418184041
0.0107847824692726
0.0025020726025104
-0.0065667433664202
-0.0158298108726739
-0.0246438477188348
-0.03239431604743
-0.0385668501257896
-0.0428003445267677
-0.0449161268770694
-0.0449215173721313
-0.04299071803689
-0.0394292697310447
-0.0346341393887996
-0.0290573090314865
-0.0231674164533615
-0.0174065046012401
-0.0121473204344511
-0.0076575106941163
-0.0040788878686726
-0.0014273566193878
0.0003899452276527
0.0015468425117433
0.0022650682367384
0.0027813734486699
0.0033186050131917
0.0040621082298457
0.0051434929482638
0.0066348053514957
0.0085495701059699
0.0108460746705532
0.0134379584342241
0.0162135139107704
0.0190546587109565
0.0218488946557045
0.02449257299304
0.0268822312355041
0.028890810906887
0.0303379949182271
0.030976615846157
0.0305099040269851
0.0286394190043211
0.0251335315406322
0.0198966525495052
0.0130190765485167
0.0047936108894646
-0.0043082227930426
-0.013692763634026
-0.0227158572524786
-0.0307558868080377
-0.0372799038887023
-0.0418957099318504
-0.0443837456405162
-0.0447075292468071
-0.043004110455513
-0.0395562797784805
-0.0347555764019489
-0.0290629789233207
-0.0229619834572076
-0.0169039480388164
-0.0112615618854761
-0.0063046384602785
-0.0021947082132101
0.0010130116716027
0.003363162279129
0.0049859024584293
0.0060738902539014
0.0068536172620952
0.0075554624199867
0.0083851478993892
0.0095004271715879
0.0109985070303082
0.0129142561927437
0.015225252136588
0.0178625341504812
0.0207275487482547
0.0237105283886194
0.0267014559358358
0.0295892544090747
0.0322480946779251
0.0345113351941108
0.0361442491412162
0.0368381813168525
0.0362427607178688
0.0340313091874122
0.0299765598028898
0.0240144748240709
0.0162855554372072
0.0071462667547166
-0.0028574932366609
-0.0130516402423381
-0.0227141324430704
-0.0311606060713529
-0.0378261990845203
-0.0423289537429809
-0.0445002168416976
-0.0443800613284111
-0.0421878956258297
-0.0382804572582244
-0.0331032909452915
-0.0271403696388006
-0.0208687651902437
-0.0147198410704731
-0.0090457797050476
-0.0040954127907752
-3.666616976261139e-06
0.003205687738955
0.0056073032319545
0.0073553570546209
0.0086576621979475
0.0097404802218079
0.0108128059655427
0.0120421852916479
0.0135428067296743
0.0153730157762765
0.0175413154065608
0.0200150497257709
0.0227274373173713
0.0255869887769222
0.0284906458109617
0.0313350558280944
0.0340198576450347
0.0364363193511962
0.0384392961859703
0.0398163497447967
0.040276501327753
0.03947114944458
0.0370491668581962
0.0327387303113937
0.0264328196644783
0.0182482041418552
0.0085396412760019
-0.0021313838660717
-0.0130636878311634
-0.023504426702857
-0.0327417068183422
-0.0401855073869228
-0.0454237163066864
-0.0482498556375503
-0.0486659593880176
-0.0468625724315643
-0.0431811437010765
-0.0380682907998561
-0.0320273451507091
-0.025570273399353
-0.0191717650741338
-0.0132275577634572
-0.0080240480601787
-0.0037226574495434
-0.0003577843308448
0.0021500964649021
0.0039673121646046
0.0053121279925107
0.0064190849661827
0.0075096641667187
0.0087725520133972
0.010349472053349
0.0123219909146428
0.0147024355828762
0.0174374543130397
0.0204258821904659
0.0235423296689987
0.0266582649201154
0.0296574719250202
0.0324429981410503
0.0349312871694564
0.0370290726423263
0.0385962016880512
0.039414070546627
0.0391845703125
0.0375685058534145
0.0342552959918975
0.0290474295616149
0.0219335723668336
0.0131242563948035
0.0030448604375123
-0.0077048609964549
-0.0184186771512031
-0.0283696129918098
-0.0368962511420249
-0.0434755869209766
-0.0477723143994808
-0.0496584810316562
-0.0492076911032199
-0.0466711185872554
-0.042438369244337
-0.036988291889429
-0.0308348461985588
-0.0244718641042709
-0.0183280948549509
-0.0127417463809251
-0.0079471366479992
-0.0040656263008713
-0.0011053595226258
0.0010262485593557
0.0024992297403514
0.0035308899823576
0.0043536066077649
0.0051849083974957
0.0062035908922553
0.0075354967266321
0.0092492494732141
0.0113570755347609
0.0138193760067224
0.0165572874248027
0.0194681026041507
0.0224348157644271
0.0253341682255268
0.0280450675636529
0.0304434597492218
0.0323758870363235
0.0336285680532455
0.0339179448783397
0.0329163894057273
0.0303117018193006
0.0258844308555126
0.0195785388350486
0.0115461461246013
0.0021570324897766
-0.0080287484452128
-0.0183228254318237
-0.0279985629022121
-0.036389272660017
-0.0429663583636283
-0.0473836325109005
-0.0494925901293754
-0.0493383258581161
-0.0471410155296325
-0.0432620197534561
-0.0381574369966983
-0.0323262810707092
-0.026257500052452
-0.0203828364610672
-0.0150434412062168
-0.0104705011472105
-0.0067761670798063
-0.0039543858729302
-0.0018973844125866
-0.0004288055934011
0.0006591728888452
0.0015759551897644
0.0025110240094363
0.0036198496818542
0.0050152768380939
0.0067611448466777
0.0088684875518083
0.011299324221909
0.013979765586555
0.0168155524879694
0.0197039879858493
0.0225435830652713
0.0252405665814876
0.0277017168700695
0.0298046953976154
0.0313593260943889
0.0320904329419136
0.0316618084907531
0.0297383554279804
0.026066368445754
0.0205465368926525
0.013282312080264
0.0045937839895486
-0.0050076339393854
-0.0148790767416358
-0.0243276190012693
-0.0326958857476711
-0.0394353419542312
-0.0441567860543727
-0.0466553568840026
-0.0469147227704525
-0.0450964607298374
-0.0415149629116058
-0.0365956649184227
-0.0308209098875522
-0.0246751680970191
-0.0185983013361692
-0.0129494415596127
-0.0079847332090139
-0.0038484348915517
-0.0005735694430768
0.0019057993777096
0.003731247736141
0.0050936192274093
0.0062069641426205
0.0072815287858247
0.0084955058991909
0.0099701303988695
0.0117596574127674
0.013859299942851
0.0162202529609203
0.0187641959637403
0.021397441625595
0.0240234397351741
0.026551341637969
0.0289015397429466
0.0310044325888156
0.0327830128371715
0.0341200232505798
0.0348272025585174
0.0346425250172615
0.0332689955830574
0.0304386373609304
0.025976862758398
0.01985814422369
0.0122435055673122
0.0034858109429478
-0.0059009846299886
-0.0153029058128595
-0.0240838937461376
-0.0316625423729419
-0.0375744551420211
-0.0415141619741916
-0.0433554202318191
-0.0431498698890209
-0.0411057546734809
-0.0375516787171363
-0.0328903421759605
-0.0275516137480735
-0.0219557341188192
-0.0164843797683715
-0.0114516858011484
-0.0070789773017168
-0.0034826351329684
-0.0006784272845834
0.00140290427953
0.0028964679222553
0.0039794873446226
0.0048424042761325
0.0056645711883902
0.0065989010035991
0.0077600604854524
0.0092161521315574
0.0109895374625921
0.0130637856200337
0.0153878051787614
0.0178786776959896
0.0204314775764942
0.0229351501911878
0.025282984599471
0.0273673664778471
0.0290588643401861
0.0301816500723361
0.0305038876831531
0.0297558680176734
0.0276750996708869
0.0240675844252109
0.0188681222498416
0.0121837295591831
0.0043102409690618
-0.0042873285710811
-0.01303156837821
-0.021309807896614
-0.0285515710711479
-0.0342931933701038
-0.0382201634347438
-0.0401850454509258
-0.0402073562145233
-0.0384589247405529
-0.0352334678173065
-0.0309053100645542
-0.0258861668407917
-0.0205852556973695
-0.0153750479221344
-0.0105622159317135
-0.0063645020127296
-0.0028998218476772
-0.0001912615261971
0.001817844575271
0.003245105035603
0.0042485585436224
0.0050061661750078
0.0056955972686409
0.006473496556282
0.0074585154652595
0.0087234284728765
0.0102938329800963
0.0121498713269829
0.0142336264252662
0.0164639074355363
0.0187533032149076
0.0210207886993885
0.0231949649751186
0.0252060927450656
0.0269698817282915
0.0283659361302852
0.029217330738902
0.0292874686419963
0.0283073764294385
0.0260294657200574
0.0222888067364692
0.0170537196099758
0.0104577904567122
0.0028071850538253
-0.0054437769576907
-0.0137456106022
-0.021520372480154
-0.0282272733747959
-0.0334233008325099
-0.0368159115314483
-0.0382920205593109
-0.0379133187234401
-0.0358888395130634
-0.032538503408432
-0.028251701965928
-0.023443404585123
-0.0185132138431072
-0.0138125838711857
-0.0096204290166497
-0.0061245681717991
-0.0034119121264666
-0.0014729008544236
-0.0002164470497518
0.0005111211794428
0.0009009396890178
0.0011507183080539
0.0014379614731296
0.0019030494149774
0.0026410301215946
0.0037013995461165
0.0050933938473463
0.0067915539257228
0.0087404381483793
0.0108625423163175
0.0130690038204193
0.0152673721313476
0.0173632595688104
0.0192515365779399
0.0207950379699468
0.021805003285408
0.0220426134765148
0.0212466213852167
0.0191810373216867
0.0156931355595588
0.0107676023617386
0.0045598810538649
-0.0026022281963378
-0.0102499686181545
-0.017832051962614
-0.0247860662639141
-0.0306068919599056
-0.0349021553993225
-0.0374283380806446
-0.0381045676767826
-0.0370054133236408
-0.0343372821807861
-0.0304072760045528
-0.0255907904356718
-0.0202950611710548
-0.0149170812219381
-0.0098041668534278
-0.0052256872877478
-0.0013564797118306
0.0017290185205638
0.0040502292104065
0.0057036755606532
0.006841417402029
0.0076464214362204
0.0083072138950228
0.0089967995882034
0.0098582664504647
0.0109967794269323
0.0124729368835687
0.0142943076789379
0.0164139065891504
0.0187421292066574
0.021165819838643
0.023567384108901
0.0258403718471527
0.0278965719044208
0.0296579226851463
0.0310300197452306
0.0318685546517372
0.0319642350077629
0.031062951311469
0.0289156399667263
0.0253422036767005
0.0202929880470037
0.0138874575495719
0.006416467949748
-0.0016865991055965
-0.0098956795409321
-0.0176561344414949
-0.0244514252990484
-0.0298596732318401
-0.0335928201675415
-0.0355147048830986
-0.0356403142213821
-0.0341210626065731
-0.0312183797359466
-0.0272700153291225
-0.0226550325751304
-0.0177567861974239
-0.0129217999055981
-0.0084274159744381
-0.0044707460328936
-0.0011685108765959
0.001443512737751
0.0034066690132021
0.0048265098594129
0.0058528343215584
0.0066565107554197
0.0074069122783839
0.0082522463053464
0.0093038361519575
0.0106260767206549
0.0122341020032763
0.0141001297160983
0.0161669068038463
0.0183630436658859
0.0206131152808666
0.0228409245610237
0.0249713063240051
0.0269324164837598
0.0286500267684459
0.030024915933609
0.0309034921228885
0.0310666039586067
0.0302496440708637
0.0281890761107206
0.024683266878128
0.0196523033082485
0.0131810186430811
0.0055329436436295
-0.0028682227712124
-0.0114834588021039
-0.0197219830006361
-0.0270153731107711
-0.0328882448375225
-0.0370111167430877
-0.0392264239490032
-0.0395467542111873
-0.0381343103945255
-0.0352699048817157
-0.0313131548464298
-0.0266594141721725
-0.0217014588415622
-0.0167964659631252
-0.0122377146035432
-0.0082347355782985
-0.0049026515334844
-0.0022602751851081
-0.0002420293167233
0.0012750765308737
0.0024401620030403
0.0034045246429741
0.0043082148768007
0.0052739814855158
0.0064019169658422
0.0077614784240722
0.0093857338652014
0.0112717039883136
0.0133849130943417
0.0156667008996009
0.0180431902408599
0.0204336643218994
0.0227595791220664
0.0249540694057941
0.0269589405506849
0.0286971218883991
0.0300345942378044
0.0307602267712354
0.0305988918989896
0.029255524277687
0.0264776665717363
0.0221197549253702
0.0161931570619344
0.0088920928537845
0.0005901609547436
-0.0081959553062915
-0.0168695673346519
-0.0248277112841606
-0.0315314456820488
-0.0365641601383686
-0.0396718606352806
-0.0407817214727401
-0.0399953983724117
-0.0375598855316638
-0.0338275134563446
-0.0292122643440961
-0.0241441912949085
-0.0190275758504867
-0.0142078585922718
-0.0099470037966966
-0.0064082238823175
-0.0036531738005578
-0.0016512414440512
-0.0002967440523207
0.0005725277587771
0.0011568330228328
0.001668656244874
0.0022988165728747
0.0031884624622762
0.0044184951111674
0.0060132090002298
0.0079494100064039
0.0101687395945191
0.0125920362770557
0.0151311047375202
0.0176975484937429
0.0202079229056835
0.0225776024162769
0.0246988050639629
0.026411585509777
0.0274881459772586
0.0276455786079168
0.0265847723931074
0.0240464024245739
0.0198762603104114
0.0140845952555537
0.0068777161650359
-0.0013501179637387
-0.010059761814773
-0.0186328403651714
-0.0264478456228971
-0.0329538621008396
-0.0377297028899192
-0.040521927177906
-0.0412604957818985
-0.0400519669055938
-0.0371512435376644
-0.0329190306365489
-0.027778772637248
-0.0221799220889806
-0.0165607575327157
-0.0113063491880893
-0.0067107127979397
-0.0029544355347752
-0.0001005185768008
0.0018950793892145
0.0031643761321902
0.0039035463705658
0.0043431734666228
0.0047162580303847
0.0052311760373413
0.0060497806407511
0.007274052593857
0.008947430178523
0.0110607873648405
0.0135543309152126
0.0163255594670772
0.0192467868328094
0.0221813358366489
0.0249891877174377
0.0275162011384964
0.0295696910470724
0.0308984331786632
0.0311971940100193
0.0301440078765153
0.027463287115097
0.0229965467005968
0.0167603939771652
0.0089769680052995
6.968853995203972e-05
-0.0093788178637623
-0.0187011584639549
-0.0272311698645353
-0.0343809612095356
-0.0397002585232257
-0.0429134257137775
-0.0439336597919464
-0.0428567714989185
-0.0399353690445423
-0.0355378054082393
-0.0301010124385356
-0.0240853391587734
-0.0179340913891792
-0.0120350774377584
-0.0066866362467408
-0.0020782612264156
0.0017095943912863
0.0046924073249101
0.0069629065692424
0.0086695263162255
0.0099931508302688
0.0111253876239061
0.0122490264475345
0.013519337400794
0.0150487786158919
0.0168996229767799
0.0190847665071487
0.0215734876692295
0.0243000220507383
0.0271753445267677
0.0301014464348554
0.0329789854586124
0.0356927141547203
0.038073468953371
0.0398632138967514
0.0407147035002708
0.0402329973876476
0.0380461402237415
0.0338879041373729
0.0276723410934209
0.0195414144545793
0.009874110110104
-0.0007471253629773
-0.0116057498380541
-0.0219411887228488
-0.031043155118823
-0.0383303612470626
-0.0433991514146328
-0.0460486598312854
-0.0462904013693332
-0.0443327948451042
-0.0405388101935386
-0.0353719666600227
-0.0293419882655143
-0.0229542031884193
-0.0166663266718387
