bvp
-0.0625770986080169
-0.0693082958459854
-0.0723550096154213
-0.0717590153217315
-0.0678504183888435
-0.0611868537962436
-0.0524731017649173
-0.0424775704741478
-0.0319588221609592
-0.0216043479740619
-0.0119787352159619
-0.0034851906821131
0.0036499379202723
0.0093700848519802
0.0137693891301751
0.0170640610158443
0.0195511300116777
0.0215600784868001
0.0234053917229175
0.025345666334033
0.0275563467293977
0.0301204919815063
0.0330368168652057
0.0362387150526046
0.039614550769329
0.0430259741842746
0.0463189706206321
0.0493095330893993
0.0517384931445121
0.0532249771058559
0.0532622002065181
0.0512779653072357
0.0467465221881866
0.0393192134797573
0.0289378147572278
0.0158964619040489
0.0008335327729582
-0.0153428390622138
-0.031575072556734
-0.0467932522296905
-0.0600406341254711
-0.070562832057476
-0.0778524130582809
-0.0816637724637985
-0.0820103958249092
-0.0791396647691726
-0.0734824538230896
-0.0655880495905876
-0.0560573786497116
-0.0454816408455371
-0.0343881770968437
-0.0231912732124328
-0.0121477674692869
-0.0013227853924036
0.0094265388324856
0.0204396471381187
0.0322064161300659
0.0452886372804641
0.0602156147360801
0.0773610547184944
0.0968141034245491
0.1182700246572494
0.1409767121076584
0.1637619435787201
0.1851379573345184
0.203462079167366
0.2171257883310318
0.2247287333011627
0.225189596414566
0.2177955210208892
0.2022572606801986
0.1788064539432525
0.1482751220464706
0.1120732873678207
0.0720435604453086
0.0302358046174049
-0.0113309621810913
-0.050858661532402
-0.0868813246488571
-0.1183034479618072
-0.144392043352127
-0.1647485643625259
-0.1792704164981842
-0.1880937367677688
-0.191512182354927
-0.1898871809244156
-0.1835807561874389
-0.1729368865489959
-0.1583097577095031
-0.1401116102933883
-0.11885417252779
-0.0951722338795661
-0.0698230266571044
-0.043658185750246
-0.0175756439566612
0.0075354129076004
0.0308490991592407
0.0516532361507415
0.0693913474678993
0.0836924239993095
0.094385802745819
0.1015008687973022
0.1052497997879982
0.1059889569878578
0.1041642278432846
0.1002575680613517
0.0947492346167564
0.0880983099341392
0.0807291194796562
0.0729999020695686
0.0651434510946273
0.0572011172771453
0.0489878207445144
0.0401118993759155
0.0300551801919937
0.0183001011610031
0.0044685751199722
-0.011564016342163
-0.0296038538217544
-0.0491426736116409
-0.0694281980395317
-0.0895704254508018
-0.1086555272340774
-0.1258503347635269
-0.1404868364334106
-0.1521224230527877
-0.1605695784091949
-0.1658910065889358
-0.1683671623468399
-0.1684455275535583
-0.1666789054870605
-0.1636604517698288
-0.1599639803171157
-0.1560967713594436
-0.1524671912193298
-0.1493672430515289
-0.1469668596982956
-0.1453097611665725
-0.1443105936050415
-0.1437635123729705
-0.1433666944503784
-0.1427605152130127
-0.1415742039680481
-0.1394743025302887
-0.1362078636884689
-0.1316334158182144
-0.1257408410310745
-0.1186700761318206
-0.1107368096709251
-0.1024521142244339
-0.0945018827915191
-0.0876696109771728
-0.0827172994613647
-0.0802458375692367
-0.0805639624595642
-0.083604872226715
-0.0889132544398307
-0.095699056982994
-0.102942481637001
-0.1095289960503578
-0.1143899410963058
-0.1166266798973083
-0.1156027913093566
-0.1109975576400756
-0.1028186455368995
-0.0913723185658454
-0.0771971642971038
-0.0609846413135528
-0.0435057878494262
-0.0255409404635429
-0.0078083574771881
0.0090948790311813
0.0247258618474006
0.0388032868504524
0.051198199391365
0.0619136616587638
0.071057915687561
0.0788182243704795
0.085438847541809
0.0912002250552177
0.0963934808969497
0.1012894287705421
0.1061149835586547
0.1110442951321601
0.1161865964531898
0.1215492859482765
0.1269799768924713
0.1321188956499099
0.1364031732082367
0.1391443908214569
0.1396607011556625
0.1374212503433227
0.1321672797203064
0.1239881291985511
0.1133401617407798
0.1010036841034889
0.0879836156964302
0.0753788352012634
0.0642500519752502
0.0555030405521392
0.0497981905937194
0.0474980175495147
0.048656478524208
0.0530405938625335
0.0601741224527359
0.0693994909524917
0.0799523144960403
0.0910397991538047
0.1019182503223419
0.1119632199406623
0.1207187324762344
0.1279199123382568
0.1334943771362304
0.1375445127487182
0.1403085738420486
0.1421064287424087
0.1432823240756988
0.1441550105810165
0.1449808925390243
0.1459338963031768
0.1471007466316223
0.1484815776348114
0.1499809324741363
0.1513783931732177
0.1522890925407409
0.1521501243114471
0.1502644270658493
0.1459031403064727
0.1384453624486923
0.1275234967470169
0.1131357625126838
0.0956920906901359
0.0759839564561843
0.0550940260291099
0.0342665687203407
0.0147596597671508
-0.0022955238819122
-0.0160075798630714
-0.0257990583777427
-0.0314367040991783
-0.0330200791358947
-0.0309387668967247
-0.0258093178272247
-0.0183999016880989
-0.0095478743314743
-7.727742195129395e-05
0.0092719681560993
0.017892051488161
0.0253298543393611
0.0312947481870651
0.0356616675853729
0.0384659841656684
0.0398829542100429
0.0401913076639175
0.0397290885448455
0.0388512760400772
0.0378906838595867
0.0371234267950058
0.0367462299764156
0.0368651747703552
0.0374823324382305
0.0384659767150878
0.0395039208233356
0.0400638580322265
0.0394010096788406
0.0366442389786243
0.0309555195271968
0.0217165499925613
0.0086864866316318
-0.0079047158360481
-0.0273440461605787
-0.0485075414180755
-0.0700015127658844
-0.090341567993164
-0.1081355959177017
-0.1222419291734695
-0.1318800747394561
-0.1366829127073288
-0.1366949528455734
-0.1323311477899551
-0.1243069097399711
-0.1135424226522445
-0.1010498106479644
-0.0878229737281799
-0.0747452452778816
-0.0625213533639907
-0.0516406372189521
-0.042373239994049
-0.0347898080945014
-0.0287942364811897
-0.0241659134626388
-0.0206089802086353
-0.017800573259592
-0.0154278576374053
-0.0132116749882698
-0.0109224840998649
-0.0083900466561317
-0.0055057927966117
-0.0022275894880294
0.0013984441757202
0.0051934570074081
0.0087914317846298
0.0116114094853401
0.0128958821296691
0.0118229389190673
0.0076640099287033
-5.3592026233673096e-05
-0.0114158540964126
-0.0260535180568695
-0.0431531183421611
-0.0615442283451557
-0.0798458009958267
-0.0966444462537765
-0.110667660832405
-0.1209211647510528
-0.1267772018909454
-0.1280120909214019
-0.1247954294085502
-0.1176362335681915
-0.1072980165481567
-0.0947000533342361
-0.0808172672986984
-0.0665865093469619
-0.0528269931674003
-0.0401807352900505
-0.0290754660964012
-0.0197140723466873
-0.0120958648622035
-0.0060629062354564
-0.0013519302010536
0.0023589804768562
0.0054080113768577
0.0081130266189575
0.0107430070638656
0.0134979486465454
0.0164995566010475
0.0197931677103042
0.023351714015007
0.0270628333091735
0.0306909456849098
0.0338335484266281
0.0359122306108474
0.0362307429313659
0.0340932160615921
0.0289467796683311
0.0205160975456237
0.0089035928249359
-0.0053707845509052
-0.0214060880243778
-0.0380278006196022
-0.0539393573999404
-0.0678846687078476
-0.078795239329338
-0.0859030783176422
-0.0888075605034828
-0.0874893590807914
-0.0822736322879791
-0.0737573504447937
-0.0627193748950958
-0.0500295758247375
-0.0365680307149887
-0.0231528244912624
-0.0104748010635375
0.0009511187672615
0.0108087733387947
0.0189772155135869
0.025507628917694
0.0305888522416353
0.0345042571425437
0.0375827625393867
0.040150947868824
0.0424938909709453
0.0448300763964653
0.0473027974367141
0.0499857142567634
0.0528909787535667
0.0559648051857948
0.0590649358928203
0.0619274005293846
0.0641429871320724
0.06517094373703
0.0644061565399169
0.0612885355949401
0.0554235130548477
0.0466855391860008
0.035284586250782
0.0217777974903583
0.0070179924368858
-0.0079507380723953
-0.0220273584127426
-0.0341923534870147
-0.0436280444264411
-0.0498034060001373
-0.0525102093815803
-0.0518488958477973
-0.0481793172657489
-0.0420555993914604
-0.0341538228094577
-0.0251955687999725
-0.0158751457929611
-0.0067997463047504
0.0015517752617597
0.0088495519012212
0.0149162113666534
0.0197172500193119
0.0233396813273429
0.0259635504335165
0.0278277732431888
0.0291877370327711
0.0302739087492227
0.0312659107148647
0.0322845876216888
0.033394806087017
0.0346124209463596
0.0359146744012832
0.0372516550123691
0.0385488048195838
0.0396893173456192
0.040479727089405
0.040623489767313
0.0397289805114269
0.037361592054367
0.0331299975514411
0.0267794579267501
0.018266599625349
0.0078046880662441
-0.0041298270225524
-0.0168377291411161
-0.0294796135276556
-0.0411815345287323
-0.0511431246995925
-0.0587322562932968
-0.0635492876172065
-0.06545090675354
-0.0645396783947944
-0.0611298754811286
-0.0556968748569488
-0.0488158911466598
-0.0410947017371654
-0.0331103019416332
-0.0253620408475399
-0.0182423461228609
-0.0120201641693711
-0.0068366760388016
-0.002713106572628
0.0004302896559238
0.002746844664216
0.0044348929077386
0.0057116579264402
0.0067875888198614
0.0078423749655485
0.0090091116726398
0.0103697925806045
0.0119587425142526
0.0137684680521488
0.0157541781663894
0.017838355153799
0.0199150592088699
0.0218451339751482
0.0234378147870302
0.0244322158396244
0.0245010629296302
0.0232889242470264
0.0204802975058555
0.0158797353506088
0.0094807725399732
0.0015020947903394
-0.0076183276250958
-0.0172666497528553
-0.0267269685864448
-0.0352728888392448
-0.0422592982649803
-0.0472009442746639
-0.049822486937046
-0.0500697121024131
-0.0480893440544605
-0.044191762804985
-0.0388047061860561
-0.0324212498962879
-0.0255466904491186
-0.0186506230384111
-0.0121285021305084
-0.0062761483713984
-0.0012781930854544
0.0027913826052099
0.0059588178992271
0.0083325468003749
0.0100768338888883
0.0113784838467836
0.0124173983931541
0.0133479740470647
0.014289136044681
0.0153219513595104
0.0164932757616043
0.0178210660815238
0.019298281520605
0.0208962932229042
0.0225716456770896
0.0242739841341972
0.0259440597146749
0.0274934526532888
0.0287733189761638
0.0295533165335655
0.0295277573168277
0.0283535923808813
0.0257176272571086
0.0214178338646888
0.0154324695467948
0.0079570366069674
-0.0005990057252347
-0.0096557848155498
-0.0185377653688192
-0.0265627037733793
-0.0331258028745651
-0.0377658158540725
-0.0402089245617389
-0.0403876565396785
-0.038429956883192
-0.0346238687634468
-0.0293743386864662
-0.023160820826888
-0.0164892729371786
-0.0098374374210834
-0.0036079660058021
0.0019014496356248
0.0065141059458255
0.0101765850558876
0.0129442401230335
0.0149537837132811
0.0163908898830413
0.0174587853252887
0.0183526240289211
0.0192401222884655
0.0202478244900703
0.0214553661644458
0.0228947978466749
0.0245519019663333
0.0263737179338932
0.0282835587859153
0.0301967244595289
0.0320233963429927
0.0336498767137527
0.0349099896848201
0.0355702191591262
0.0353429093956947
0.0339289680123329
0.0310819391161203
0.0266754031181335
0.0207553710788488
0.013567566871643
0.0055495500564575
-0.0027223322540521
-0.0106192547827959
-0.0175465457141399
-0.0230099093168973
-0.0266605541110038
-0.0283199362456798
-0.0279835984110832
-0.0258079878985881
-0.0220848433673381
-0.0172039680182933
-0.0116067472845315
-0.0057390891015529
-1.159869134426117e-05
0.0052316170185804
0.0097355209290981
0.0133469840511679
0.0160143245011568
0.01777233928442
0.0187222529202699
0.0190153606235981
0.0188386458903551
0.0183984246104955
0.0178992673754692
0.0175184421241283
0.017382975667715
0.01755803078413
0.0180491935461759
0.0188148189336061
0.0197835657745599
0.0208708010613918
0.0219864193350076
0.0230293981730937
0.0238634459674358
0.0242824200540781
0.0239986777305603
0.0226750895380973
0.0199902802705764
0.0157179571688175
0.0097995912656188
0.0023882198147475
-0.0061497297137975
-0.0152735076844692
-0.0243352744728326
-0.0326612256467342
-0.0396350994706153
-0.0447708331048488
-0.0477602444589138
-0.0484892427921295
-0.0470323450863361
-0.0436360090970993
-0.038685604929924
-0.0326542779803276
-0.0260454080998897
-0.0193405896425247
-0.0129575142636895
-0.0072187697514891
-0.0023347996175289
0.0015979288145899
0.0045856330543756
0.0067151193507015
0.0081283077597618
0.0090016163885593
0.0095296707004308
0.0099079385399818
0.0103098871186375
0.0108624044805765
0.0116336345672607
0.0126377483829855
0.0138465585187077
0.015203452669084
0.0166397094726562
0.0180880762636661
0.0194889493286609
0.0207839626818895
0.0218915212899446
0.0226726494729518
0.0229082554578781
0.0223044250160455
0.0205322708934545
0.0172983445227146
0.0124246682971715
0.005910184700042
-0.0020392686128616
-0.0110127739608287
-0.0204299502074718
-0.0296103693544864
-0.0378637835383415
-0.0445764921605587
-0.0492778457701206
-0.0516845248639583
-0.0517191924154758
-0.0495017766952514
-0.0453201383352279
-0.0395874865353107
-0.0327900908887386
-0.0254324208945035
-0.0179935116320848
-0.0108973309397697
-0.0044860038906335
0.0010040011256933
0.0054520471021533
0.0088476436212658
0.011274080723524
0.0128870019689202
0.0138901714235544
0.0145067432895302
0.0149487406015396
0.01539315469563
0.0159691777080297
0.0167544931173324
0.0177784245461225
0.0190315134823322
0.0204766597598791
0.0220565926283597
0.0236990265548229
0.0253154840320348
0.0267837829887866
0.0279187485575675
0.0284510236233472
0.0280327089130878
0.0262804850935935
0.0228522792458534
0.0175358541309833
0.0103209242224693
0.0014343010261654
-0.0086671244353055
-0.0193395428359508
-0.029823649674654
-0.0393361449241638
-0.0471685230731964
-0.0527727603912353
-0.0558155104517936
-0.056196853518486
-0.0540396869182586
-0.0496565327048301
-0.0434996932744979
-0.0361027941107749
-0.0280249491333961
-0.0198011063039302
-0.0118974316865205
-0.0046770796179771
0.001618230715394
0.0068707708269357
0.0110786631703376
0.0143379159271717
0.0168107859790325
0.0186905041337013
0.020176088437438
0.0214543156325817
0.0226822718977928
0.0239743366837501
0.0254003070294857
0.0269926004111766
0.0287543404847383
0.030664512887597
0.0326809473335742
0.0347374454140663
0.0367245450615882
0.0384541600942611
0.0396309308707714
0.0398543514311313
0.0386599488556385
0.0355984643101692
0.030340002849698
0.0227736271917819
0.0130708236247301
0.0016952194273471
-0.0106418393552303
-0.023066746070981
-0.0346511304378509
-0.0445240512490272
-0.0519722700119018
-0.0565124973654747
-0.0579280629754066
-0.0562705136835575
-0.0518296509981155
-0.0450836941599845
-0.0366411432623863
-0.0271764937788248
-0.0173630975186824
-0.0078122355043888
0.0009748749434947
0.0086415857076644
0.0149940680712461
0.0199968703091144
0.023749154061079
0.0264508314430713
0.028361901640892
0.0297615490853786
0.0309153832495212
0.0320516228675842
0.0333458445966243
0.0349103547632694
0.0367852225899696
0.0389419496059417
0.0413046665489673
0.0437728986144065
0.0462234243750572
0.0484798327088356
0.0502669140696525
0.0511875599622726
0.0507471673190593
0.0484249107539653
0.0437764972448349
0.0365451350808143
0.0267518647015094
0.0147405499592423
0.0011663655750453
-0.0130732953548431
-0.0269547160714864
-0.0394633784890174
-0.0497178733348846
-0.057061567902565
-0.0611151345074176
-0.0617920309305191
-0.0592826306819915
-0.0540124326944351
-0.0465785861015319
-0.0376749038696289
-0.0280192568898201
-0.0182896256446838
-0.0090683074668049
-0.0007971441373229
0.0062475018203258
0.0119509985670447
0.0163326673209667
0.0195136200636625
0.0216918997466564
0.0231195949018001
0.0240743309259414
0.0248257517814636
0.0256053693592548
0.0265870168805122
0.0278774574398994
0.0295149181038141
0.0314766243100166
0.0336936935782432
0.0360624603927135
0.038437370210886
0.0405991785228252
0.0422119051218032
0.0428028292953968
0.0417969599366188
0.0386095568537712
0.0327743738889694
0.024070605635643
0.0126112038269639
-0.0011292677372694
-0.0163516514003276
-0.0320250838994979
-0.0470178499817848
-0.0602416694164276
-0.0707800239324569
-0.0779786929488182
-0.0814935341477394
-0.0812985301017761
-0.0776630491018295
-0.0711092054843902
-0.0623475909233093
-0.0521896816790103
-0.0414534211158752
-0.0308819748461246
-0.0210839454084634
-0.0124945770949125
-0.0053578084334731
0.0002686282387003
0.0044869249686598
0.0075194551609456
0.0096632866188883
0.0112453810870647
0.0125843742862343
0.0139604369178414
0.0155896414071321
0.017603900283575
0.0200444236397743
0.0228711906820535
0.0259842984378337
0.0292516406625509
0.0325304232537746
0.0356625467538833
0.0384345613420009
0.0405250899493694
0.0414831191301345
0.0407628007233142
0.0378096476197242
0.032180581241846
0.0236726030707359
0.0124180158600211
-0.0010897908359766
-0.0160413328558206
-0.0314057432115078
-0.0460544899106025
-0.0588962100446224
-0.0690036714076995
-0.0757139846682548
-0.0786876156926155
-0.0779188498854637
-0.0737030506134033
-0.0665778145194053
-0.0572497732937336
-0.0465111397206783
-0.0351555459201335
-0.0239051729440689
-0.0133558614179492
-0.0039439429529011
0.0040645403787493
0.0105671808123588
0.0156082194298505
0.0193538479506969
0.0220580697059631
0.0240227207541465
0.0255585312843322
0.0269490592181682
0.028421239927411
0.0301286336034536
0.032146368175745
0.0344761535525321
0.0370640344917774
0.0398241244256496
0.0426473096013069
0.0453779436647892
0.0477662421762943
0.0494285523891449
0.0498476326465606
0.0484264642000198
0.0445911437273025
0.0379233658313751
0.0282858218997716
0.0159005634486675
0.0013594795018434
-0.0144322272390127
-0.0303651522845029
-0.0452649295330047
-0.0580357201397419
-0.0677824020385742
-0.0738953948020935
-0.0760977268218994
-0.0744571983814239
-0.0693590715527534
-0.0614387206733226
-0.0514889247715473
-0.0403631329536438
-0.028888639062643
-0.0177954025566577
-0.0076639084145426
0.0011057704687118
0.0083034625276923
0.0138997798785567
0.018022459000349
0.0209201090037822
0.0229181312024593
0.0243741404265165
0.0256321839988231
0.0269757658243179
0.0285952091217041
0.0305824019014835
0.0329456143081188
0.03563017770648
0.0385384634137153
0.04154634475708
0.0445037186145782
0.0472050905227661
0.049342792481184
0.0504795536398887
0.0500696972012519
0.0475344657897949
0.042379692196846
0.0343287326395511
0.0234265029430389
0.0100795673206448
-0.0049689644947648
-0.0207161083817482
-0.036016684025526
-0.0497256852686405
-0.0608387701213359
-0.0686037316918373
-0.072587102651596
-0.0726956129074096
-0.0691603571176529
-0.0624884329736232
-0.053386490792036
-0.0426701717078685
-0.0311748888343572
-0.019676323980093
-0.0088283522054553
0.0008758511394262
0.0091224182397127
0.0157794374972581
0.0208829119801521
0.0246074944734573
0.0272279940545558
0.0290752109140157
0.0304901115596294
0.0317840725183486
0.0332089774310588
0.034938171505928
0.0370603762567043
0.0395841225981712
0.0424501374363899
0.0455509386956691
0.0487411618232727
0.0518162362277507
0.0544667914509773
0.0562431402504444
0.0565645582973957
0.0547911562025547
0.0503482297062873
0.0428680442273616
0.0323057174682617
0.0189965106546878
0.0036428812891244
-0.0127606391906738
-0.0290480181574821
-0.0440276861190795
-0.056626409292221
-0.066004991531372
-0.0716355964541435
-0.0733393728733062
-0.0712804645299911
-0.065917819738388
-0.057927556335926
-0.048112615942955
-0.0373141653835773
-0.0263318661600351
-0.0158564131706953
-0.0064208144322037
0.0016251672059297
0.0081195337697863
0.0130745321512222
0.0166479963809251
0.0191047750413417
0.0207726955413818
0.021994262933731
0.0230773612856864
0.0242585055530071
0.0256898738443851
0.0274438448250293
0.0295243691653013
0.0318818688392639
0.0344290807843208
0.0370508581399917
0.039596788585186
0.0418489314615726
0.0434760004281997
0.0440090149641037
0.0428732261061668
0.0394813679158687
0.0333638340234756
0.0242973230779171
0.0123946815729141
-0.0018640384078025
-0.0176638755947351
-0.0339471288025379
-0.0495479255914688
-0.0633396580815315
-0.0743680596351623
-0.0819515138864517
-0.0857371762394905
-0.0857108160853385
-0.0821672976016998
-0.0756522044539451
-0.0668845772743225
-0.0566697046160697
-0.0458118468523025
-0.0350395888090133
-0.0249536018818616
-0.0159954130649566
-0.0084309466183185
-0.0023489696905016
0.0023218905553221
0.0057785576209425
0.0083005363121628
0.010208636522293
0.011825923807919
0.0134380720555782
0.0152607439085841
0.0174243133515119
0.019975570961833
0.0228921510279178
0.026104224845767
0.0295126214623451
0.0329975895583629
0.0364176705479621
0.039591196924448
0.042256973683834
0.044035580009222
0.0444284714758396
0.0428778678178787
0.0388793498277664
0.0321133360266685
0.0225529726594686
0.0105188805609941
-0.003330236300826
-0.0180692337453365
-0.0326239466667175
-0.0459065437316894
-0.0569468699395656
-0.0650054365396499
-0.0696477517485618
-0.0707662403583526
-0.0685575455427169
-0.0634701624512672
-0.0561329051852226
-0.0472748130559921
-0.0376462079584598
-0.0279475189745426
-0.0187723115086555
-0.0105690751224756
-0.0036209290847182
0.0019587327260524
0.0062158238142728
0.0093298889696598
0.0115707488730549
0.0132441408932209
0.0146441766992211
0.0160234477370977
0.0175774041563272
0.0194352678954601
0.0216550212353467
0.0242269299924373
0.0270874388515949
0.030136615037918
0.0332531034946441
0.0363072417676448
0.0391703061759471
0.0417077764868736
0.0437449477612972
0.0450181625783443
0.0451464168727397
0.0436510294675827
0.0400313474237918
0.0338832326233387
0.0250264555215835
0.0135986786335706
8.601043373346329e-05
-0.0147147187963128
-0.0297889448702335
-0.0440349765121936
-0.056409191340208
-0.0660542920231819
-0.0723858848214149
-0.0751326531171798
-0.0743347629904747
-0.070307470858097
-0.0635861977934837
-0.0548646003007888
-0.0449200309813022
-0.0345274955034256
-0.0243811644613742
-0.0150372916832566
-0.0068815359845757
-0.0001188181340694
0.0052192802540957
0.0092518385499715
0.0122104110196232
0.0143908029422163
0.0161065254360437
0.0176522396504879
0.0192788708955049
0.0211780276149511
0.0234690308570861
0.0261881202459335
0.0292918123304843
0.0326780453324317
0.0362124890089035
0.0397499576210975
0.0431480035185813
0.0462642051279544
0.0489263087511062
0.0508836954832077
0.0517739206552505
0.0511373989284038
0.0484881177544593
0.0434220470488071
0.0357322841882705
0.0255010873079299
0.0131409410387277
-0.0006326514994725
-0.0148876626044511
-0.0285952184349298
-0.0407578684389591
-0.050525676459074
-0.0572825483977794
-0.0606950260698795
-0.0607248060405254
-0.0576085336506366
-0.0518106594681739
-0.0439582392573356
-0.0347659289836883
-0.0249595157802104
-0.0152064738795161
-0.0060600414872169
0.002075832337141
0.0089584877714514
0.0145024536177515
0.0187630653381347
0.0219077970832586
0.0241804756224155
0.0258644707500934
0.0272469501942396
0.0285869613289833
0.0300904233008623
0.0318922288715839
0.0340497270226478
0.0365514829754829
0.0393338054418563
0.0422982610762119
0.0453311130404472
0.0483149290084838
0.0511130169034004
0.053527858108282
0.0552588365972042
0.0558866411447525
0.0549047589302063
0.0518033318221569
0.0461838133633136
0.037870142608881
0.026989322155714
0.0140016861259937
-0.0003306344151496
-0.0150332152843475
-0.029046943411231
-0.0413646548986434
-0.0511488690972328
-0.0578169710934162
-0.0610914081335067
-0.0610093884170055
-0.057889424264431
-0.0522650890052318
-0.0448014549911022
-0.0362097285687923
-0.0271747335791587
-0.0183024201542139
-0.0100855734199285
-0.0028824352193623
0.003094935324043
0.0077803912572562
0.0112383551895618
0.0136374626308679
0.0152189694344997
0.0162589568644762
0.0170264337211847
0.0177481584250926
0.0185891948640346
0.0196508523076772
0.0209801420569419
0.0225810408592224
0.0244218837469816
0.0264400318264961
0.0285479240119457
0.0306398458778858
0.0325902663171291
0.0342316180467605
0.0353148654103279
0.0354827903211116
0.0342881977558136
0.0312600806355476
0.0260006915777921
0.0182940009981393
0.0081954021006822
-0.0039298795163631
-0.0174302235245704
-0.0314434729516506
-0.0450072661042213
-0.0571800544857978
-0.0671498253941536
-0.0743159800767898
-0.078336626291275
-0.0791399031877517
-0.076904222369194
-0.0720143616199493
-0.0650039389729499
-0.0564985908567905
-0.0471641942858696
-0.0376529842615127
-0.0285481736063957
-0.0203160848468542
-0.0132728721946477
-0.0075704492628574
-0.0032016094774007
-2.1651387214660645e-05
0.0022154627367854
0.0038118297234177
0.005079667083919
0.0063011664897203
0.007698128465563
0.0094150174409151
0.0115154171362519
0.0139865688979625
0.0167509447783231
0.0196878127753734
0.0226615350693464
0.0255472604185342
0.0282419547438621
0.0306509621441364
0.0326486639678478
0.0340278781950473
0.0344688929617404
0.0335541889071464
0.0308343023061752
0.0259310863912105
0.0186498276889324
0.0090695936232805
-0.0024148598313331
-0.0151192443445324
-0.0281579755246639
-0.0405638590455055
-0.051408689469099
-0.059907104820013
-0.0654951110482215
-0.0678750053048133
-0.0670203119516372
-0.0631476119160652
-0.0566710568964481
-0.0481497719883918
-0.0382330678403377
-0.0276101622730493
-0.0169690456241369
-0.0069582615979015
0.0018627224490046
0.0090832756832242
0.014486514031887
0.0180619228631258
0.0199906378984451
0.0206130295991897
0.0203850232064723
0.0198271572589874
0.0194665547460317
0.0197723805904388
0.0210924297571182
0.0236030854284763
0.0272829160094261
0.0319158732891082
0.0371253155171871
0.0424362570047378
0.0473523698747158
0.0514153912663459
0.0542205087840557
0.055397730320692
0.0545907914638519
0.051461111754179
0.0457293428480625
0.0372437871992588
0.0260509811341762
0.0124461315572261
-0.0030135666020214
-0.0195413026958704
-0.0361954644322395
-0.0519835017621517
-0.0659730061888694
-0.0773877575993537
-0.085674874484539
-0.0905428752303123
-0.0919763669371604
-0.0902203693985939
-0.0857298895716667
-0.0790997818112373
-0.0709901750087738
-0.0620557628571987
-0.05288877338171
-0.0439798906445503
-0.0356949418783187
-0.0282670799642801
-0.0218030102550983
-0.0162998028099536
-0.0116696432232856
-0.0077664330601692
-0.0044082403182983
-0.0013989545404911
0.0014474727213382
0.0042886920273303
0.007248118519783
0.0104135572910308
0.0138347074389457
0.0175245516002178
0.0214632228016853
0.0255924798548221
0.0297892838716506
0.0338206514716148
0.0373050980269908
0.039714016020298
0.0404273830354213
0.0388361439108848
0.0344703383743763
0.0271178763359785
0.0169012546539306
0.0043023638427257
-0.0098646096885204
-0.0245340093970298
-0.0385186076164245
-0.0506738051772117
-0.0600664764642715
-0.0661043226718902
-0.0685899332165718
-0.0676931217312812
-0.0638631433248519
-0.0577140301465988
-0.0499128103256225
-0.041091501712799
-0.0317891836166381
-0.0224221423268318
-0.0132787451148033
-0.0045280531048774
0.0037671998143196
0.01162800937891
0.0191218256950378
0.0263186022639274
0.0332553014159202
0.0399215072393417
0.0462677739560604
0.0522289499640464
0.057753499597311
0.0628282502293586
0.0674884915351867
0.0718114376068115
0.075891375541687
0.0797880366444587
0.0834531486034393
0.0866677463054657
0.0890295952558517
0.0900081470608711
0.0890518575906753
0.0857148841023445
0.0797727182507515
0.0713034272193908
0.0607148930430412
0.0487087778747081
0.0361932702362537
0.0241679660975933
0.0136010721325874
0.0053183883428573
-7.983297109603882e-05
-0.002270258963108
-0.0012278109788894
0.0027866438031196
0.0092733241617679
0.0175635069608688
0.0268971361219882
0.0365015119314193
0.0456690900027751
0.0538264065980911
0.0605800934135913
0.0657325834035873
0.0692712515592575
0.071337454020977
0.0721824243664741
0.0721200704574585
0.0714843571186065
0.0705910846590995
0.0697055235505104
0.0690230503678321
0.0686639621853828
0.068676546216011
0.0690438523888588
0.0696868300437927
0.0704514384269714
0.0710745230317115
0.0711439326405525
0.0700877755880355
0.0672242492437362
0.0618717148900032
0.0534904822707176
0.0418197959661483
0.0269748400896787
0.009475152939558
-0.0098043885082006
-0.0297415852546691
-0.0491034612059593
-0.0666889995336532
-0.0814621299505233
-0.0926563590764999
-0.0998374447226524
-0.1029217988252639
-0.102155677974224
-0.0980628207325935
-0.0913678035140037
-0.0829031839966774
-0.0735143274068832
-0.0639760121703147
-0.0549291670322418
-0.0468445420265197
-0.0400137081742286
-0.0345551222562789
-0.0304270051419734
-0.0274523235857486
-0.0253585316240787
-0.0238238517194986
-0.022519277408719
-0.021142654120922
-0.0194466244429349
-0.0172593668103218
-0.014496061950922
-0.011160634458065
-0.0073386430740356
-0.0031918697059154
0.0010276734828948
0.0049403831362724
0.0080058947205543
0.0095388256013393
0.0087959691882133
0.0051176063716411
-0.0019178166985511
-0.012370653450489
-0.025880217552185
-0.041676178574562
-0.0586573556065559
-0.0755281001329422
-0.0909652113914489
-0.1037775427103042
-0.1130318492650985
-0.1181346774101257
-0.1188682615756988
-0.1153861135244369
-0.108173981308937
-0.0979757159948349
-0.0856920257210731
-0.0722717493772506
-0.0586112886667251
-0.0454732775688171
-0.0334325619041919
-0.0228496752679348
-0.0138680720701813
-0.006434042006731
-0.0003378950059413
0.0047308206558227
0.0091266110539436
0.0131986197084188
0.0172500107437372
0.0215063616633415
0.0260966978967189
0.0310533549636602
0.036329761147499
0.0418249666690826
0.047404583543539
0.0529066957533359
0.0581182241439819
0.0627242848277092
0.0662615224719047
0.068116694688797
0.0675943791866302
0.0640452429652214
0.0570214465260505
0.0464169010519981
0.0325544849038124
0.016193339601159
-0.0015511885285377
-0.0193536095321178
-0.0358520075678825
-0.0498148240149021
-0.0602766722440719
-0.066628560423851
-0.0686549693346023
-0.0665188580751419
-0.0607060529291629
-0.0519454032182693
-0.0411171428859233
-0.0291562844067811
-0.0169595032930374
-0.0053065326064825
0.005197727587074
0.0141564179211854
0.021386083215475
0.0269003063440322
0.0308793429285287
0.0336261093616485
0.0355122126638889
0.0369237996637821
0.0382149666547775
0.0396726354956626
0.041494932025671
0.0437825620174407
0.0465421937406063
0.0497026406228542
0.053138181567192
0.0566846951842308
0.0601329766213893
0.0631914734840393
0.0654383897781372
0.0663078427314758
0.0651398822665214
0.0612897053360939
0.0542687326669693
0.0438807159662246
0.0303132124245166
0.0141612440347671
-0.0036190748214721
-0.0218199491500854
-0.0391357317566871
-0.0543287023901939
-0.0663734674453735
-0.074556216597557
-0.0785246342420578
-0.0782987922430038
-0.0742473602294921
-0.0670269951224327
-0.0574911758303642
-0.0465835928916931
-0.0352321974933147
-0.0242588464170694
-0.0143144838511943
-0.0058402959257364
0.0009465310722589
0.0060404371470212
0.0096123795956373
0.011961955577135
0.0134634673595428
0.0145112890750169
0.0154713913798332
0.0166420824825763
0.0182261038571596
0.0203208830207586
0.0229271464049816
0.0259674880653619
0.0293094534426927
0.032788660377264
0.0362204164266586
0.0393855646252632
0.0419911295175552
0.0436311811208725
0.0437845699489116
0.0418712571263313
0.0373598635196685
0.0298972651362419
0.019424695521593
0.0062460415065288
-0.0089733637869358
-0.0252763628959655
-0.041531678289175
-0.0565725602209568
-0.0693326294422149
-0.0789609998464584
-0.0849036946892738
-0.0869443491101265
-0.0852015912532806
-0.0800872668623924
-0.072237879037857
-0.0624315589666366
-0.0515009835362434
-0.0402515307068824
-0.0293908677995204
-0.0194764267653226
-0.0108867082744836
-0.0038132509216666
0.0017332956194877
0.0059006372466683
0.0089527927339077
0.0112179620191454
0.0130398496985435
0.0147369876503944
0.0165714398026466
0.0187286771833896
0.0213075317442417
0.0243217758834362
0.0277143493294715
0.0313775017857551
0.0351723432540893
0.0389456562697887
0.0425388216972351
0.0457783602178096
0.0484415143728256
0.0502114817500114
0.0506572686135768
0.0492657050490379
0.0455264933407306
0.0390497706830501
0.0296834483742713
0.0175944343209266
0.0032919123768806
-0.0124085349962115
-0.0284710638225078
-0.043763555586338
-0.0571966357529163
-0.0678510665893554
-0.0750770717859268
-0.0785531774163246
-0.0782954394817352
-0.0746223926544189
-0.0680900663137435
-0.0594102218747139
-0.0493661239743232
-0.0387368686497211
-0.0282301865518093
-0.0184265095740556
-0.0097432322800159
-0.0024205304216593
0.0034749452024698
0.0080310823395848
0.0114598264917731
0.014055099338293
0.0161419492214918
0.0180299188941717
0.0199799295514822
0.0221838448196649
0.0247536301612854
0.0277202110737562
0.0310425460338592
0.034624345600605
0.0383339188992977
0.0420235134661197
0.0455466248095035
0.0487694218754768
0.0515660531818866
0.0537889748811721
0.0552233830094337
0.0555530041456222
0.0543644428253173
0.051203116774559
0.0456721261143684
0.0375474207103252
0.0268769413232803
0.0140348458662629
-0.0002879705280065
-0.0151577889919281
-0.0295183528214693
-0.0423282980918884
-0.0526870973408222
-0.0599323324859142
-0.0637008175253868
-0.0639475584030151
-0.060922622680664
-0.0551193282008171
-0.0472073219716548
-0.0379540175199508
-0.0281411502510309
-0.0184885971248149
-0.0095922406762838
-0.0018805379513651
0.0044049541465938
0.0092058693990111
0.0126262456178665
0.0148977627977728
0.0163324810564517
0.0172715820372104
0.0180413033813238
0.0189214553683996
0.0201253648847341
0.0217859093099832
0.0239468365907669
0.026565620675683
0.0295299626886844
0.0326823107898235
0.0358467809855937
0.0388550721108913
0.0415658317506313
0.0438715294003486
0.0456870719790458
0.0469151474535465
0.0473977476358413
0.0468818061053752
0.0450251474976539
0.0414500944316387
0.0358327776193618
0.028003130108118
0.0180266313254833
0.0062447916716337
-0.006736502982676
-0.0201077256351709
-0.0329538658261299
-0.0443732924759388
-0.0535924546420574
-0.0600521042943
-0.063454732298851
-0.063776671886444
-0.0612512938678264
-0.0563257113099098
-0.0495962239801883
-0.0417327210307121
-0.0334019064903259
-0.0252031721174716
-0.0176279116421937
-0.011036742478609
-0.0056449528783559
-0.0015178485773503
0.0014171195216476
0.0033429004251956
0.0045179682783782
0.0052377087995409
0.0057952208444476
0.006448958069086
0.0074005140922963
0.0087787769734859
0.010630564764142
0.0129241552203893
0.0155652472749352
0.0184171758592128
0.0213221311569213
0.024124015122652
0.0266882292926311
0.0289044026285409
0.0306593775749206
0.0317897796630859
0.0320449210703372
0.031087277457118
0.0285387113690376
0.0240613315254449
0.0174515023827552
0.0087229069322347
-0.0018449006602168
-0.0137071199715137
-0.02610469982028
-0.0381590463221073
-0.0489909127354621
-0.0578325614333152
-0.0641129910945892
-0.0675104856491088
-0.0679702758789062
-0.065687395632267
-0.0610603243112564
-0.0546287596225738
-0.0470075570046901
-0.038821842521429
-0.0306494571268558
-0.0229761376976966
-0.0161630026996135
-0.0104247704148292
-0.0058233286254107
-0.0022858073934912
0.0003561591729521
0.0023256982676684
0.0038710054941475
0.0052408468909561
0.0066597256809473
0.008307296782732
0.0103039257228374
0.0127013148739933
0.0154824424535036
0.0185735169798135
0.0218631960451602
0.0252221524715423
0.0285191982984542
0.0316343605518341
0.0344651527702808
0.0369094759225845
0.0388185754418373
0.0399485640227794
0.0399479940533638
0.0383964218199253
0.0348875969648361
0.0291337706148624
0.0210600420832633
0.0108664166182279
-0.0009564030915498
-0.013666782528162
-0.0263625998049974
-0.038101065903902
-0.0480207242071628
-0.0554406270384788
-0.0599237754940986
-0.0613065399229526
-0.0596960186958313
-0.0554350018501281
-0.0490425787866115
-0.0411448702216148
-0.0324064791202545
-0.023466695100069
-0.0148823671042919
-0.0070826131850481
-0.0003435723483562
0.0052135866135358
0.0096056554466485
0.0129594486206769
0.0154793057590723
0.0174144245684146
0.0190288387238979
0.020571831613779
0.0222484599798917
0.0241983700543642
0.0264895148575305
0.0291253048926591
0.0320590622723102
0.0352082997560501
0.0384660735726356
0.0417126901447773
0.0448301918804645
0.0477161295711994
0.0502884201705455
0.0524712316691875
0.0541574582457542
0.0551624745130538
0.0551981776952743
0.0538842305541038
0.0507968179881572
0.0455536916851997
0.0379233956336975
0.0279224440455436
0.0158642344176769
0.0023510353639721
-0.0117848990485072
-0.025583216920495
-0.0380795039236545
-0.0484243482351303
-0.055977389216423
-0.0603637918829917
-0.0614929720759391
-0.0595445223152637
-0.0549236461520195
-0.0481987819075584
-0.0400366857647895
-0.0311355777084827
-0.0221566502004861
-0.0136642176657915
-0.0060830675065517
0.0003238189965486
0.0054555125534534
0.0093551874160766
0.0121809504926204
0.014169386588037
0.0155986296012997
0.0167564861476421
0.0179106518626213
0.0192836038768291
0.0210389699786901
0.0232727602124214
0.026004122570157
0.0291752126067876
0.032664630562067
0.036308966577053
0.0399294346570968
0.0433591678738594
0.046462245285511
0.0491359755396842
0.0512884557247161
0.0527913160622119
0.0534288622438907
0.0528770238161087
0.05073082447052
0.0465769693255424
0.0400955863296985
0.0311628654599189
0.0199221726506948
0.006807008292526
-0.0074858227744698
-0.02206920273602
-0.0359716340899467
-0.0482546277344226
-0.0581215880811214
-0.0650027021765708
-0.0686041265726089
-0.0689174607396125
-0.0661959573626518
-0.0609068423509597
-0.0536670312285423
-0.0451704002916812
-0.0361150801181793
-0.0271411519497632
-0.0187851600348949
-0.0114477453753352
-0.0053718974813818
-0.0006370609626173
0.0028265910223126
0.0052065206691622
0.0067684398964047
0.007818222977221
0.0086652459576725
0.0095868464559316
0.0107998400926589
0.0124419266358017
0.0145637625828385
0.0171356089413166
0.0200677551329135
0.023233899846673
0.0264881290495395
0.0296788532286882
0.0326604805886745
0.0352888777852058
0.0373909994959831
0.0387217067182064
0.0389382466673851
0.0376188047230243
