bvp
0.0089087290689349
0.0013723390875384
-0.0063000600785017
-0.0135565586388111
-0.0198843590915203
-0.0248615536838769
-0.0281939338892698
-0.029736042022705
-0.0294956937432289
-0.0276226215064525
-0.0243842862546443
-0.0201347433030605
-0.0152799719944596
-0.0102371592074632
-0.0053926073014736
-0.0010691937059164
0.0024981438182294
0.0051853209733963
0.006993249990046
0.0080435080453753
0.0085564143955707
0.0088148051872849
0.0091177690774202
0.0097363712266087
0.0108839124441146
0.0127072222530841
0.0152974305674433
0.0187062341719865
0.0229564756155014
0.0280494038015604
0.0339618846774101
0.0406142994761467
0.0478076115250587
0.0551493167877197
0.0619866102933883
0.0673714503645896
0.070116251707077
0.0690002292394638
0.0631017461419105
0.0521358475089073
0.0366593524813652
0.0180553440004587
-0.0017041098326444
-0.0204287711530923
-0.0360958687961101
-0.0471578873693943
-0.0527254939079284
-0.0526218935847282
-0.0473272763192653
-0.0378383062779903
-0.0254711024463176
-0.0116445245221257
0.0023136278614401
0.0153104765340685
0.0265843458473682
0.0357678458094596
0.0429149568080902
0.0484762489795684
0.0532183796167373
0.058098129928112
0.0641128420829773
0.0721498280763626
0.0828336775302887
0.0963690876960754
0.1124175041913986
0.1300641894340515
0.1479048132896423
0.16423861682415
0.177318662405014
0.1855958700180053
0.1879101693630218
0.1836071610450744
0.1725722849369049
0.1551881730556488
0.1322415471076965
0.1048121973872184
0.0741745829582214
0.0417191833257675
0.0088603645563125
-0.0230984389781951
-0.0531175285577774
-0.0805366337299346
-0.1051131784915924
-0.1269809901714325
-0.1465520709753036
-0.1643818467855453
-0.1810275912284851
-0.1969432532787323
-0.2124320119619369
-0.2276400029659271
-0.242559477686882
-0.2570284903049469
-0.2707374989986419
-0.2832518815994262
-0.2940530180931091
-0.3025946617126465
-0.3083635866641998
-0.3109371960163116
-0.3100329339504242
-0.305538922548294
-0.2975222468376159
-0.2862192094326019
-0.2720105648040771
-0.2553830742835998
-0.2368857413530349
-0.2170942276716232
-0.1965921372175216
-0.175960972905159
-0.1557624638080597
-0.1365036964416504
-0.1185899525880813
-0.1022776365280151
-0.0876397937536239
-0.0745533779263496
-0.0627150237560272
-0.0516908392310142
-0.0409932509064674
-0.0301587134599685
-0.0187986865639686
-0.0066166520118713
0.0065949186682701
0.0209579467773437
0.0365030840039253
0.0531574338674545
0.0707353353500366
0.088944673538208
0.1074130684137344
0.1257272660732269
0.1434761881828308
0.1602882891893386
0.1758567988872528
0.1899558752775192
0.2024516463279724
0.2133028507232666
0.2225486934185028
0.2302883863449096
0.236656367778778
0.2417990118265152
0.2458579540252685
0.2489561140537262
0.2511838972568512
0.2525925040245056
0.2531958520412445
0.2529683709144592
0.2518311738967895
0.2496417313814163
0.2462067902088165
0.2413210570812225
0.234819233417511
0.2266261875629425
0.2167915552854538
0.2055003345012664
0.1930579841136932
0.1798557639122009
0.1663273125886917
0.1529011875391006
0.1399513334035873
0.1277584433555603
0.1164929717779159
0.1062171384692192
0.0968993008136749
0.0884359031915664
0.0806759819388389
0.0734433382749557
0.0665536224842071
0.0598275065422058
0.0531036965548992
0.0462527386844158
0.0391875021159648
0.0318683981895446
0.024303950369358
0.0165426209568977
0.0086559429764747
0.0007246956229209
-0.0071667358279228
-0.0149341523647308
-0.0224980562925338
-0.0297871753573417
-0.0367404446005821
-0.0433084592223167
-0.0494604632258415
-0.0552039556205272
-0.0606105662882328
-0.0658270716667175
-0.0710586607456207
-0.076529361307621
-0.0824290961027145
-0.0888632982969284
-0.0958243831992149
-0.1031879931688308
-0.1107267588376998
-0.1181394532322883
-0.1250922381877899
-0.1312621533870697
-0.1363745182752609
-0.14023058116436
-0.1427244842052459
-0.1438467800617218
-0.1436734348535537
-0.1423467099666595
-0.1400559097528457
-0.1370188593864441
-0.1334625482559204
-0.129607617855072
-0.1256586462259292
-0.1217930912971496
-0.1181456446647644
-0.1147949695587158
-0.1117608025670051
-0.109010986983776
-0.1064729988574981
-0.1040470600128173
-0.1016220897436142
-0.0990937128663063
-0.0963780581951141
-0.0934191718697547
-0.090192936360836
-0.0867044404149055
-0.0829739570617675
-0.0790251567959785
-0.074896901845932
-0.0706743970513343
-0.0665131583809852
-0.0626345872879028
-0.0592901483178138
-0.0567073039710521
-0.0550356321036815
-0.0543083474040031
-0.0544262900948524
-0.0551643371582031
-0.0561997592449188
-0.0571580082178115
-0.0576642677187919
-0.057389747351408
-0.0560865961015224
-0.0536130964756011
-0.0499505996704101
-0.045201439410448
-0.0395626723766326
-0.0332886353135108
-0.0266535691916942
-0.0199192371219396
-0.0133126275613904
-0.0070130601525306
-0.0011444259434938
0.004226604476571
0.0090843737125396
0.0134532712399959
0.0173856280744075
0.0209508202970027
0.0242295488715171
0.0273090582340955
0.030270205810666
0.0331735424697399
0.0360549315810203
0.0389260835945606
0.0417760089039802
0.0445764996111393
0.0472926348447799
0.0498937964439392
0.0523568764328956
0.0546538978815078
0.0567258149385452
0.0584594719111919
0.0596872754395008
0.0602168627083301
0.0598837621510028
0.0586056262254715
0.0564129874110221
0.0534498505294323
0.049954779446125
0.0462310388684272
0.0426098927855491
0.0394118577241897
0.036909133195877
0.0352946035563945
0.0346650965511798
0.0350210405886173
0.0362779051065444
0.0382825620472431
0.0408322736620903
0.0436997786164283
0.0466623231768608
0.0495225489139556
0.052115935832262
0.0543142259120941
0.0560308657586574
0.0572240352630615
0.0578935705125331
0.0580742135643959
0.0578282959759235
0.0572372190654277
0.0563920065760612
0.0553840585052967
0.0542950332164764
0.053188607096672
0.0521084442734718
0.0510811395943164
0.0501202046871185
0.0492290519177913
0.0484028384089469
0.047624621540308
0.0468477346003055
0.045971855521202
0.0448363311588764
0.0432418473064899
0.0409902147948741
0.0379305891692638
0.0340034738183021
0.0292686205357313
0.0239072814583778
0.0181999988853931
0.0124866291880607
0.0071208551526069
0.002429686486721
-0.0013239216059446
-0.0039761662483215
-0.0054818056523799
-0.0059077534824609
-0.0054080970585346
-0.0041955187916755
-0.0025157555937767
-0.0006223190575838
0.0012492090463638
0.0029035937041044
0.0041999593377113
0.0050560599192976
0.0054462519474327
0.0053937048651278
0.0049587888643145
0.0042285546660423
0.0033037969842553
0.0022804925683885
0.0012350012548267
0.0002197625581175
-0.0007343648467212
-0.0016115977196022
-0.002402746817097
-0.0031003123149275
-0.0036974125541746
-0.0041874167509377
-0.0045683244243264
-0.0048601403832435
-0.0051311929710209
-0.005513722077012
-0.0061922203749418
-0.0073646930977702
-0.0091933542862534
-0.0117643037810921
-0.0150632448494434
-0.0189673658460378
-0.0232549421489238
-0.0276313479989767
-0.0317674055695533
-0.0353438779711723
-0.0380921177566051
-0.0398257225751876
-0.0404639616608619
-0.0400421768426895
-0.038703516125679
-0.0366767048835754
-0.0342519842088222
-0.0317670330405235
-0.0296065006405115
-0.0281994827091693
-0.0279902275651693
-0.029380977153778
-0.0326701775193214
-0.0380031168460845
-0.0453363955020904
-0.0544159412384033
-0.0647765174508094
-0.0757763609290123
-0.0866740569472312
-0.0967304706573486
-0.1053027883172035
-0.1119119152426719
-0.1162811741232872
-0.1183542236685752
-0.1183069944381713
-0.1165448576211929
-0.1136543527245521
-0.1103172451257705
-0.1072459518909454
-0.1051808521151542
-0.1049365103244781
-0.1074526160955429
-0.1137566417455673
-0.1247335076332092
-0.1407509297132492
-0.1613497734069824
-0.1851554661989212
-0.2100256830453872
-0.2333803325891494
-0.2526175379753113
-0.2655004262924194
-0.2704437971115112
-0.2666731476783752
-0.2542464435100555
-0.2339513003826141
-0.2071161717176437
-0.1753764599561691
-0.1404263526201248
-0.1037900745868682
-0.0666639357805252
-0.0298617929220199
0.0061539113521575
0.0411905646324157
0.0752204805612564
0.1082854866981506
0.1404333710670471
0.1716753095388412
0.2019483149051666
0.2310877740383148
0.2588119804859161
0.2847172319889068
0.3083004355430603
0.3290276825428009
0.34644216299057
0.3602843582630157
0.3705889582633972
0.3777235150337219
0.3823525905609131
0.3853357434272766
0.3875613510608673
0.3897191286087036
0.3920629620552063
0.3942598104476928
0.3953971862792969
0.3941657543182373
0.3891721367835998
0.3792811632156372
0.3638775050640106
0.3429906368255615
0.3172875046730041
0.2879627346992492
0.25656458735466
0.2247926294803619
0.1942914277315139
0.1664573103189468
0.1422854661941528
0.1222905218601226
0.1065176427364349
0.094627246260643
0.0860133469104766
0.0799213498830795
0.0755468681454658
0.0721073448657989
0.0688908174633979
0.0652913749217987
0.0608332231640815
0.0551819652318954
0.0481459349393844
0.0396717339754104
0.02983358502388
0.0188125893473625
0.0068648681044578
-0.005714513361454
-0.0186247453093528
-0.0315894484519958
-0.0443799123167991
-0.0568205416202545
-0.0687779560685157
-0.0801460817456245
-0.0908351838588714
-0.1007748320698738
-0.1099391356110572
-0.1183807402849197
-0.1262478232383728
-0.1337693631649017
-0.1412152051925659
-0.1488464772701263
-0.1568663716316223
-0.1653774231672287
-0.1743525564670562
-0.183625653386116
-0.192904993891716
-0.2018059194087982
-0.209894523024559
-0.2167345881462097
-0.2219325751066208
-0.2251784801483154
-0.2262812703847885
-0.2251960635185241
-0.2220365852117538
-0.2170673310756683
-0.2106739580631256
-0.2033163011074066
-0.1954748779535293
-0.1875999569892883
-0.1800707578659057
-0.173173725605011
-0.1670985668897628
-0.1619370877742767
-0.1576781123876571
-0.1542082726955413
-0.1513283401727676
-0.1487824767827987
-0.1462912559509277
-0.1435837745666504
-0.1404263228178024
-0.1366441398859024
-0.1321327686309814
-0.1268594115972519
-0.1208603233098983
-0.1142407804727554
-0.1071817278861999
-0.0999496579170227
-0.0928958877921104
-0.0864306613802909
-0.0809669196605682
-0.0768461525440216
-0.0742714554071426
-0.0732653439044952
-0.0736562311649322
-0.0750943645834922
-0.0770948827266693
-0.0790988728404045
-0.0805404633283615
-0.0809093341231346
-0.0798014476895332
-0.0769518986344337
-0.0722487717866897
-0.0657355040311813
-0.0576047264039516
-0.0481765903532505
-0.0378584340214729
-0.0270921643823385
-0.016302190721035
-0.0058547398075461
0.0039686383679509
0.0129843391478061
0.0211083386093378
0.0283474698662757
0.0347814932465553
0.0405386686325073
0.0457687117159366
0.050618790090084
0.055217832326889
0.0596666224300861
0.0640297085046768
0.0683335736393928
0.0725740864872932
0.0767290294170379
0.0807705447077751
0.0846685916185379
0.0883753299713134
0.0917955040931701
0.0947619155049324
0.0970345884561538
0.0983304530382156
0.0983757749199867
0.0969656929373741
0.0940180197358131
0.0896110832691192
0.0839918702840805
0.0775478780269622
0.0707568153738975
0.0641321688890457
0.0581682808697223
0.0532860830426216
0.0497885793447494
0.0478353947401046
0.0474381521344184
0.0484728589653968
0.0507060140371322
0.0538311526179313
0.0575085058808326
0.0614002794027328
0.0652008950710296
0.0686632692813873
0.0716133639216423
0.0739467293024063
0.0756165459752082
0.0766233801841735
0.0770073905587196
0.0768432095646858
0.076235607266426
0.0753093957901001
0.0741914510726928
0.0729920491576194
0.071794293820858
0.0706516280770301
0.0695887207984924
0.0686072632670402
0.0676993727684021
0.0668576806783676
0.0660634413361549
0.0652543157339096
0.0642964541912078
0.0629808157682418
0.0610454902052879
0.0582167357206344
0.0542590394616127
0.0490227490663528
0.0424815937876701
0.0347568392753601
0.026121275499463
0.0169755537062883
0.0077993599697947
-0.0009093787521123
-0.0086909728124737
-0.0151686258614063
-0.0200850218534469
-0.0233296658843755
-0.0249452255666255
-0.0251070298254489
-0.0240838956087827
-0.0221949610859155
-0.0197732243686914
-0.0171364024281501
-0.0145615618675947
-0.0122649911791086
-0.0103922290727496
-0.0090188449248671
-0.0081565799191594
-0.0077620623633265
-0.0077491789124906
-0.0080035217106342
-0.008399766869843
-0.0088244397193193
-0.0091944579035043
-0.0094610946252942
-0.0096046589314937
-0.009626462124288
-0.0095397047698497
-0.0093635516241192
-0.0091202845796942
-0.0088287368416786
-0.0084951296448707
-0.0081161316484212
-0.0077044814825057
-0.0073256008327007
-0.0071201976388692
-0.0072974003851413
-0.0081040523946285
-0.00978216342628
-0.0125187933444976
-0.0163955055177211
-0.021352618932724
-0.027181476354599
-0.0335465371608734
-0.0400273203849792
-0.046170238405466
-0.0515445955097675
-0.0557933524250984
-0.0586688555777072
-0.0600512474775314
-0.0599498599767684
-0.0584872029721736
-0.0558694526553154
-0.0523563064634799
-0.0482397601008415
-0.043823130428791
-0.0393914692103862
-0.0351810529828071
-0.0313598103821277
-0.0280234478414058
-0.0252035688608884
-0.0228781681507825
-0.0209805611521005
-0.0194119624793529
-0.0180598720908164
-0.0168168824166059
-0.0155932521447539
-0.0143204787746071
-0.0129486210644245
-0.0114450491964817
-0.0097995540127158
-0.0080285724252462
-0.0061692334711551
-0.0042653679847717
-0.0023521087132394
-0.0004466446116566
0.0014437148347496
0.0032932013273239
0.0050234463997185
0.0064856610260903
0.0074712880887091
0.0077458922751247
0.0070951944217085
0.0053763943724334
0.0025634416379034
-0.0012316340580582
-0.0057676560245454
-0.0107057839632034
-0.0156533252447843
-0.0202087294310331
-0.0240031573921442
-0.026740301400423
-0.0282281935214996
-0.0283928457647562
-0.0272722151130437
-0.0249977149069309
-0.0217711105942726
-0.0178386699408292
-0.0134633723646402
-0.0088988244533538
-0.0043667498975992
-4.3548643589019775e-05
0.0039393305778503
0.0074901282787323
0.0105564352124929
0.0131291477009654
0.0152438776567578
0.0169716551899909
0.0184012502431869
0.0196239221841096
0.0207238662987947
0.0217713937163352
0.0228184312582016
0.023897498846054
0.0250245742499828
0.0262069515883922
0.0274533201009035
0.0287742651998996
0.0301657915115356
0.0315850116312503
0.0329309403896331
0.034037247300148
0.0346813015639781
0.0346107333898544
0.0335852690041065
0.031427651643753
0.0280702225863933
0.0235825479030609
0.0181745737791061
0.0121759418398141
0.0059951869770884
6.920751184225082e-05
-0.0051872730255126
-0.009429688565433
-0.0124229714274406
-0.0140613373368978
-0.0143656181171536
-0.0134636033326387
-0.0115622403100132
-0.0089193601161241
-0.0058149397373199
-0.002521083690226
0.0007235435768961
0.0037293117493391
0.0063608554191887
0.0085358927026391
0.0102229313924908
0.0114392349496483
0.0122457453981041
0.012733930721879
0.0130046196281909
0.0131485760211944
0.0132379960268735
0.0133277773857116
0.0134588405489921
0.0136585514992475
0.0139406379312276
0.0143084619194269
0.0147608797997236
0.0152977537363767
0.0159217454493045
0.0166288763284683
0.0173832848668098
0.0180881433188915
0.0185728967189788
0.0186037179082632
0.0179130062460899
0.0162457078695297
0.0134171415120363
0.0093658417463302
0.0041824392974376
-0.0018913799431174
-0.0084896031767129
-0.0151688028126955
-0.0214657578617334
-0.0269543714821338
-0.0312923863530159
-0.0342509299516677
-0.0357262566685676
-0.0357363410294055
-0.0344052575528621
-0.0319438055157661
-0.028629770502448
-0.0247797034680843
-0.0207123029977083
-0.0167145933955907
-0.0130167640745639
-0.0097764795646071
-0.0070745260454714
-0.0049213860183954
-0.0032709210645407
-0.0020368406549096
-0.0011080775875598
-0.000362979248166
0.0003136431332677
0.0010154696647077
0.0018122396431863
0.002752635627985
0.0038595888763666
0.0051246541552245
0.0065123150125145
0.0079738991335034
0.0094644958153367
0.0109530035406351
0.0124161699786782
0.0138156246393918
0.0150671638548374
0.0160170905292034
0.0164404660463333
0.0160687118768692
0.014640592969954
0.0119647309184074
0.0079793557524681
0.0027862060815095
-0.0033554267138242
-0.0100628556683659
-0.0168767180293798
-0.023314194753766
-0.0289214085787534
-0.0333189852535724
-0.036240167915821
-0.0375555492937564
-0.0372757352888584
-0.0355333238840103
-0.0325547195971012
-0.0286295190453529
-0.0240784659981727
-0.0192210711538791
-0.0143465641885995
-0.009694549255073
-0.0054487315937876
-0.0017349598929286
0.0013833902776241
0.0039076190441846
0.005898711271584
0.0074635106138885
0.0087331039831042
0.0098409401252865
0.0109056020155549
0.0120178498327732
0.0132346749305725
0.0145803987979888
0.0160490274429321
0.0176099892705678
0.019223678857088
0.0208582039922475
0.0224926359951496
0.0241041928529739
0.0256429314613342
0.0269994642585515
0.0279813483357429
0.0283174347132444
0.0276950895786285
0.0258201099932193
0.0224845819175243
0.0176257900893688
0.0113600585609674
0.0039845127612352
-0.0040509938262403
-0.0121961068361997
-0.0198668017983436
-0.0265173390507698
-0.0317086577415466
-0.0351567268371582
-0.0367488488554954
-0.0365342572331428
-0.0346991345286369
-0.0315312072634696
-0.0273794289678335
-0.0226143114268779
-0.0175928547978401
-0.0126300510019063
-0.0079783350229263
-0.0038171261548995
-0.0002502482384443
0.0026934817433357
0.0050545455887913
0.0069270217791199
0.0084345322102308
0.0097063165158033
0.0108618531376123
0.0120048969984054
0.0132195660844445
0.0145631758496165
0.0160602368414402
0.0177043359726667
0.019467756152153
0.0213116519153118
0.0231923907995224
0.0250674076378345
0.0268965065479278
0.0286251604557037
0.0301514249294996
0.0312946774065494
0.0317826978862285
0.03127221763134
0.0294095519930124
0.02591516636312
0.020663809031248
0.0137358661741018
0.0054286886006593
-0.0037701940163969
-0.0132407350465655
-0.0223082937300205
-0.0303285270929336
-0.0367645993828773
-0.0412427484989166
-0.0435781292617321
-0.0437715575098991
-0.0419878512620925
-0.038526177406311
-0.0337819159030914
-0.0282010361552238
-0.0222342349588871
-0.0162949971854686
-0.0107236998155713
-0.0057626646012067
-0.0015480378642678
0.0018829358741641
0.0045760236680507
0.0066385418176651
0.0082156816497445
0.0094695733860135
0.0105616794899106
0.0116381105035543
0.0128171518445014
0.0141781521961092
0.0157560985535383
0.0175464078783988
0.0195170119404792
0.0216216295957565
0.023810626938939
0.0260368008166551
0.0282499529421329
0.0303733870387077
0.0322668887674808
0.03369727358222
0.0343396961688995
0.0338188484311103
0.0317836478352546
0.0279944129288196
0.0223928391933441
0.0151353757828474
0.0065891211852431
-0.0027042496949434
-0.0120918489992618
-0.0208912435919046
-0.0284743476659059
-0.034335434436798
-0.0381334647536277
-0.0397106371819973
-0.0390936210751533
-0.0364797674119472
-0.0322064757347106
-0.0267056506127119
-0.020449748262763
-0.013898798264563
-0.0074612931348383
-0.0014730743132531
0.0038169841282069
0.0082581955939531
0.0117980781942605
0.0144720058888196
0.0163884200155735
0.0177093595266342
0.0186257511377334
0.0193306244909763
0.0199950337409973
0.0207511913031339
0.0216841399669647
0.0228311922401189
0.0241905748844146
0.025737028568983
0.0274329017847776
0.0292276851832866
0.0310498159378767
0.0327908135950565
0.034279678016901
0.0352592393755912
0.0353860221803188
0.0342668369412422
0.031526293605566
0.0268867388367652
0.0202426835894584
0.0117135439068079
0.0016583483666181
-0.0093533787876367
-0.0206061527132987
-0.031326875090599
-0.0407843738794326
-0.0483793392777442
-0.0537038594484329
-0.0565665774047374
-0.0569903217256069
-0.0551861971616745
-0.0515100918710231
-0.0464103035628795
-0.0403740108013153
-0.0338803566992282
-0.0273640938103199
-0.0211899802088737
-0.0156357269734144
-0.0108797419816255
-0.0069945892319083
-0.0039527132175862
-0.0016493001021444
6.5559521317482e-05
0.001359874382615
0.0024016005918383
0.0033455369994044
0.0043230429291725
0.0054336311295628
0.0067396713420748
0.0082654049620032
0.0100013306364417
0.0119153652340173
0.013966922648251
0.016116801649332
0.018324377015233
0.02052428945899
0.0225878469645977
0.0242862645536661
0.0252760387957096
0.0251267254352569
0.0233940370380878
0.0197154842317104
0.0139023344963788
0.0060096662491559
-0.0036339554935693
-0.0144517794251441
-0.0256936997175216
-0.0365361049771308
-0.0461833551526069
-0.0539575368165969
-0.0593663193285465
-0.0621398538351058
-0.0622355341911315
-0.0598215945065021
-0.0552474930882453
-0.0489977933466434
-0.0416317768394947
-0.0337199084460735
-0.0257872771471738
-0.0182700473815202
-0.0114888176321983
-0.0056409947574138
-0.0008073146454989
0.0030355555936694
0.0059968642890453
0.0082465885207057
0.0099860299378633
0.0114208627492189
0.0127430818974971
0.0141171757131814
0.015663182362914
0.0174439828842878
0.0194667726755142
0.021696850657463
0.0240748785436153
0.0265316236764192
0.0290013737976551
0.0314296782016754
0.0337602756917476
0.0358966775238513
0.0376567393541336
0.0387475043535232
0.0387795679271221
0.0373247936367988
0.0340037979185581
0.0285783484578132
0.0210256166756153
0.011577695608139
0.0007170750759541
-0.0108710415661335
-0.0223803166300058
-0.0329842418432235
-0.0419375076889991
-0.0486584194004535
-0.0527806878089904
-0.0541734918951988
-0.0529339723289012
-0.0493562072515487
-0.0438825115561485
-0.0370445325970649
-0.0294016860425472
-0.0214891340583562
-0.0137826856225728
-0.0066722659394145
-0.0004382655024528
0.0047622267156839
0.0088952481746673
0.0120368022471666
0.0143477953970432
0.016042161732912
0.0173542983829975
0.0185093209147453
0.019699553027749
0.021069822832942
0.0227114837616682
0.0246643591672182
0.0269248448312282
0.0294543169438838
0.0321856811642646
0.0350335352122783
0.0379046499729156
0.0406921915709972
0.0432452224195003
0.0453291460871696
0.0466063544154167
0.0466575473546981
0.0450458116829395
0.041409432888031
0.035557635128498
0.0275412313640117
0.0176807977259159
0.0065491376444697
-0.0050896159373223
-0.0163788367062807
-0.0264852214604616
-0.0347012616693973
-0.040517684072256
-0.0436622016131877
-0.0441050007939338
-0.0420360006392002
-0.0378204882144928
-0.0319425016641616
-0.0249471683055162
-0.0173873156309127
-0.0097758565098047
-0.0025490033440291
0.0039573013782501
0.0095229018479585
0.0140511617064476
0.0175588428974151
0.0201484598219394
0.0219785626977682
0.0232391189783811
0.0241286847740411
0.0248338803648948
0.0255137030035257
0.0262885447591543
0.0272341668605804
0.0283806454390287
0.0297168437391519
0.0312028918415308
0.0327860713005065
0.0344092100858688
0.0360042862594127
0.0374660119414329
0.0386080555617809
0.0391261652112007
0.0386008694767952
0.0365529023110866
0.0325403288006782
0.0262696277350187
0.0176868140697479
0.0070241894572973
-0.0052052959799766
-0.0182618256658315
-0.0312690064311027
-0.0433243699371814
-0.0536108240485191
-0.0614883601665496
-0.0665500536561012
-0.0686413496732711
-0.067854031920433
-0.0645013824105262
-0.0590704530477523
-0.0521537214517593
-0.0443772822618484
-0.0363395065069198
-0.0285612978041172
-0.0214491095393896
-0.0152750182896852
-0.0101734707131981
-0.0061510289087891
-0.0031070243567228
-0.0008635465055704
0.000799972563982
0.0021155709400773
0.0033030705526471
0.0045486139133572
0.0059832939878106
0.0076727708801627
0.00962476991117
0.0118068447336554
0.0141644533723592
0.0166355967521667
0.019160408526659
0.0216778665781021
0.0240984000265598
0.0262565948069095
0.0278707072138786
0.0285384021699428
0.0277819912880659
0.0251375529915094
0.0202650222927331
0.0130450185388326
0.0036353822797536
-0.0075208749622106
-0.0197337865829467
-0.0321442857384681
-0.0438314601778984
-0.0539312027394771
-0.0617389380931854
-0.0667769983410835
-0.068826138973236
-0.0679254978895187
-0.0643431991338729
-0.0585264489054679
-0.0510419085621833
-0.0425099991261959
-0.0335396043956279
-0.0246765241026878
-0.0163710992783308
-0.0089577920734882
-0.0026424368843436
0.002499176422134
0.006510357838124
0.0095330821350216
0.0117788296192884
0.0134923411533236
0.014915706589818
0.0162618290632963
0.0176994428038597
0.0193447060883045
0.0212582182139158
0.023451343178749
0.025898590683937
0.0285473279654979
0.0313240215182304
0.0341397486627101
0.0368862226605415
0.0394100025296211
0.0414729602634906
0.0427270717918872
0.0427279733121395
0.0409951694309711
0.037107802927494
0.0308092702180147
0.0220920760184526
0.0112432371824979
-0.0011607620399445
-0.0143103757873177
-0.027260823175311
-0.0390550158917903
-0.0488472916185855
-0.05599932000041
-0.060134407132864
-0.0611524172127246
-0.0592100732028484
-0.0546768195927143
-0.0480798929929733
-0.0400430373847484
-0.0312192011624574
-0.0222251340746879
-0.0135892508551478
-0.0057183168828487
0.0011190762743353
0.0067970873787999
0.0113245919346809
0.0148202339187264
0.0174754709005355
0.0195188838988542
0.0211871843785047
0.0226998832076787
0.0242385230958461
0.0259351953864097
0.0278701670467853
0.0300742648541927
0.0325345434248447
0.0352047681808471
0.0380208939313888
0.0409144759178161
0.0438087657094001
0.0465897060930728
0.0490636080503463
0.0509219691157341
0.0517349727451801
0.0509964078664779
0.0482212491333484
0.0430633798241615
0.0354154892265796
0.0254688020795583
0.0137200346216559
0.0009225404355674
-0.0120075019076466
-0.0241095311939716
-0.0344993881881237
-0.0424714796245098
-0.0475656017661094
-0.0495916493237018
-0.0486188828945159
-0.0449450612068176
-0.0390536673367023
-0.0315552726387977
-0.0231156423687934
-0.0143843553960323
-0.0059348857030272
0.0017784005030989
0.0084430826827883
0.0138927064836025
0.0180967450141906
0.0211402345448732
0.0231971610337495
0.0245003420859575
0.0253078714013099
0.0258705802261829
0.0264081321656703
0.0270924028009176
0.0280326846987009
0.0292690619826316
0.0307813119143247
0.0325080230832099
0.0343676805496215
0.0362737998366355
0.0381314195692539
0.0398061908781528
0.0410766899585723
0.0416013002395629
0.0409296378493309
0.0385641604661941
0.0340566933155059
0.0271177031099796
0.0177103746682405
0.0060999412089586
-0.0071546249091625
-0.0212586540728807
-0.0352764353156089
-0.0482466742396354
-0.0592969805002212
-0.0677373856306076
-0.0731214731931686
-0.0752739161252975
-0.0742884054780006
-0.0704986602067947
-0.0644268989562988
-0.0567164942622184
-0.0480561032891273
-0.0391049981117248
-0.0304308272898197
-0.0224712640047073
-0.0155234085395932
-0.0097494414076209
-0.0051859752275049
-0.0017568911425769
0.0007057450711727
0.0024332012981176
0.0036888187751173
0.0047368817031383
0.0058148019015789
0.0071125016547739
0.0087578240782022
0.0108083048835396
0.0132541684433817
0.0160332527011632
0.0190523937344551
0.022205738350749
0.025377307087183
0.0284182261675596
0.0311047993600368
0.0331024155020713
0.0339623875916004
0.0331661254167556
0.0302160680294036
0.0247540734708309
0.0166699178516864
0.006164114922285
-0.006248677149415
-0.0197901409119367
-0.0335100218653678
-0.0464015752077102
-0.0575214549899101
-0.0661005228757858
-0.0716289579868316
-0.0738945677876472
-0.0729718208312988
-0.0691768154501915
-0.0630048811435699
-0.0550651401281356
-0.0460167489945888
-0.0365061685442924
-0.0271116942167282
-0.0183047074824571
-0.0104281529784202
-0.0036862231791019
0.0018539875745773
0.0062460671178996
0.0096378475427627
0.0122383777052164
0.0142810521647334
0.0159923136234283
0.0175728127360343
0.0191881638020277
0.0209634471684694
0.0229798443615436
0.0252744704484939
0.0278436765074729
0.03065100684762
0.0336393639445304
0.0367378592491149
0.039847508072853
0.0428002923727035
0.0453120060265064
0.0469628348946571
0.0472237654030323
0.0455295480787754
0.0413922183215618
0.0345297120511531
0.0249668043106794
0.0130762411281466
-0.0004486735269892
-0.0146790891885757
-0.0285699274390935
-0.0410897731781005
-0.0513422787189483
-0.0586624704301357
-0.0626758113503456
-0.0633157193660736
-0.0608012601733207
-0.0555819347500801
-0.0482663959264755
-0.0395510494709014
-0.0301490612328052
-0.0207211878150701
-0.0118199959397315
-0.0038536246865987
0.0029313117265701
0.0084482925012707
0.0127534922212362
0.0160156451165676
0.0184767451137304
0.0204083938151597
0.0220709294080734
0.0236834958195686
0.0254103671759367
0.0273633804172277
0.0296098031103611
0.0321730747818946
0.0350310876965522
0.0381241962313652
0.0413707941770553
0.0446749255061149
0.0479094311594963
0.0508721768856048
0.0532382130622863
0.0545453503727912
0.0542385727167129
0.0517691820859909
0.0467192791402339
0.0389172509312629
0.0285187028348445
0.0160310510545969
0.0022651562467217
-0.011776378378272
-0.0250369813293218
-0.0365356057882308
-0.0454730540513992
-0.0513081736862659
-0.0537966005504131
-0.0529917553067207
-0.0492141135036945
-0.0429940372705459
-0.0349961146712303
-0.0259371660649776
-0.0165105499327182
-0.0073269493877887
0.0011270344257354
0.0085165631026029
0.0146681359037756
0.0195552743971347
0.0232694894075393
0.0259890928864479
0.0279466398060321
0.0293919946998357
0.0305559895932674
0.0316256321966648
0.032735601067543
0.0339708290994167
0.0353739745914936
0.0369547717273235
0.0386992394924163
0.0405779927968978
0.0425529591739177
0.0445733964443206
0.0465440079569816
0.0482665710151195
0.049391433596611
0.0494185574352741
0.0477590672671794
0.0438440106809139
0.0372541323304176
0.0278374664485454
0.0157845504581928
0.0016420353204011
-0.0137412250041961
-0.0293255969882011
-0.0440220758318901
-0.056829247623682
-0.0669411942362785
-0.0738169103860855
-0.0772161036729812
-0.0772052705287933
-0.074127122759819
-0.0685357451438903
-0.0611146092414855
-0.0525936856865882
-0.043674536049366
-0.0349673256278038
-0.0269453041255474
-0.0199213996529579
-0.0140464380383491
-0.0093252249062061
-0.0056446623057127
-0.0028086500242352
-0.0005740690976381
0.0013157287612557
0.0030965767800807
0.0049503613263368
0.0069864019751548
0.0092440722510218
0.0117087755352258
0.0143318148329854
0.0170510038733482
0.0198086854070425
0.0225607007741928
0.0252676606178283
0.027861488983035
0.030192831531167
0.0319830402731895
0.0328096225857734
0.0321447141468524
0.0294490661472082
0.0242950059473514
0.0164772495627403
0.0060888808220624
-0.0064478255808353
-0.0204063486307859
-0.0348364636301994
-0.0486845150589942
-0.0609282329678535
-0.0706997588276863
-0.0773771852254867
-0.0806362405419349
-0.0804610028862953
-0.0771159678697586
-0.0710902661085128
-0.0630262941122055
-0.0536405332386493
-0.0436504632234573
-0.0337164886295795
-0.0243930220603942
-0.0160866826772689
-0.0090304827317595
-0.003281551413238
0.001257358584553
0.0047982120886445
0.0076193921267986
0.0100179444998502
0.0122687723487615
0.0145947653800249
0.0171476360410451
0.0199979376047849
0.0231378674507141
0.0264999605715274
0.0299827754497528
0.0334724970161914
0.0368608571588993
0.0400609597563743
0.043014783412218
0.0456802509725093
0.0479883961379528
0.0497821122407913
0.0507706068456172
0.0505300723016262
0.0485595241189003
0.0443827137351036
0.0376717001199722
0.0283564776182174
0.0166902877390384
0.0032547395676374
-0.0111006963998079
-0.0253729633986949
-0.0385408997535705
-0.0496896058320999
-0.0581076219677925
-0.0633514672517776
-0.0652732402086258
-0.0640100464224815
-0.0599428005516529
-0.0536347739398479
-0.0457593016326427
-0.0370264761149883
-0.0281137451529502
-0.0196034088730812
-0.0119343372061848
-0.0053740153089165
-1.7294660210609436e-05
0.0041874372400343
0.0073988190852105
0.0098433438688516
0.0117799779400229
0.0134694874286651
0.015148052945733
0.0170029699802398
0.0191531013697385
0.0216414686292409
0.0244426690042018
0.0274820663034915
0.0306610520929098
0.0338797457516193
0.0370526723563671
0.040117897093296
0.0430286414921283
0.0457134395837783
0.0480172932147979
0.0496570877730846
0.0502199530601501
0.0492153689265251
0.0461696684360504
0.0407374575734138
0.0328032225370407
0.0225492715835571
0.0104699898511171
-0.0026735083665698
-0.015946477651596
-0.0283617433160543
-0.0390048585832119
-0.0471378415822982
-0.0522692091763019
-0.0541912764310836
-0.0529840551316738
-0.0489840283989906
-0.0427247583866119
-0.0348622798919677
-0.0260972343385219
-0.0171023402363061
-0.0084616420790553
-0.0006272909231483
0.0061038890853524
0.0115948785096406
0.0158561877906322
0.0190207995474338
0.021310843527317
0.0230011492967605
0.0243797488510608
0.0257044490426778
0.0271659456193447
0.02886881865561
0.0308330748230218
0.0330125465989112
0.0353197082877159
0.0376488491892814
0.0398975871503353
0.0419853515923023
0.0438585020601749
0.0454672388732433
0.0467125214636325
0.0473895110189914
0.0471676886081695
0.045625239610672
0.0423234477639198
0.0369016639888286
0.0291761606931686
0.0192178152501583
0.0073841754347085
-0.0057015810161828
-0.0192188136279582
-0.0322519987821579
-0.0439073145389556
-0.0534208305180072
-0.0602416694164276
-0.0640777945518493
-0.0649031847715377
-0.0629367381334304
-0.0585987120866775
-0.0524496510624885
-0.0451252497732639
-0.0372745245695114
-0.0294991694390773
-0.02229805290699
-0.0160268284380435
-0.0108798099681735
-0.0068956082686781
-0.0039797890931367
-0.0019369227811694
-0.0005097752436995
0.0005785217508673
0.0015863506123423
0.0027235047891736
0.0041316766291856
0.0058789877220988
0.007967384532094
0.0103445937857031
0.0129164699465036
0.0155654828995466
0.0181756764650344
0.0206506662070751
0.0229068230837583
0.0248353723436594
0.0262527801096439
0.0268716569989919
0.0263120643794536
0.0241575520485639
0.0200469065457582
0.0137753430753946
0.0053733736276626
-0.0048562716692686
-0.0163521096110343
-0.0283590406179428
-0.0400287359952926
-0.0505254678428173
-0.0591199770569801
-0.0652656331658363
-0.0686480998992919
-0.0692007467150688
-0.0670864209532737
-0.0626552477478981
-0.0563918985426425
-0.048861127346754
-0.0406534001231193
-0.0323318094015121
-0.0243851970881223
-0.0171901788562536
-0.0109829576686024
-0.0058515868149697
-0.0017553915968164
0.0014425771078094
0.0039427652955055
0.0059749647043645
0.0077644819393754
0.0095058167353272
0.0113478191196918
0.0133864982053637
0.0156603883951902
0.0181517153978347
0.0207971073687076
0.0235053449869155
0.0261798910796642
0.0287428572773933
0.0311457570642232
0.0333460867404937
0.0352519676089286
0.0366697683930397
0.0372873209416866
0.0367018282413482
0.0344905033707618
0.0303118638694286
0.0240084882825613
0.0156760029494762
0.0056782932952046
-0.0053886733949184
-0.016771288588643
-0.0276543106883764
-0.0372590720653533
-0.0449275560677051
-0.0501834265887737
-0.0527700707316398
-0.0526660196483135
-0.0500714816153049
-0.0453667193651199
-0.0390553213655948
-0.0317046009004116
-0.0238881409168243
-0.0161332730203866
-0.0088783260434865
-0.0024447571486234
0.002976132556796
0.007324538193643
0.0106593463569879
0.0131310205906629
0.0149495881050825
0.0163554772734642
0.0175893306732177
0.0188587270677089
0.020313648506999
0.0220404379069805
0.0240682624280452
0.0263781044632196
0.0289112031459808
0.0315797217190265
0.03428241237998
0.0369185134768486
0.0393848605453968
0.0415494889020919
0.0432138182222843
0.0440899133682251
0.043817862868309
0.0420254431664943
0.0384063385426998
0.0327940732240676
0.0252227038145065
0.0159616842865943
0.0055079022422432
-0.0054673925042152
-0.0162019319832324
-0.025937171652913
-0.0340082608163356
-0.0399137772619724
-0.0433542691171169
-0.0442409068346023
-0.0426838807761669
-0.0389661490917205
-0.0335023216903209
-0.0267863385379314
-0.0193401332944631
-0.0116727408021688
-0.0042461995035409
0.0025576017796993
0.0084645291790366
0.0133220516145229
0.0170974973589181
0.0198634378612041
0.0217736661434173
0.0230343639850616
0.0238746963441371
0.0245192945003509
0.0251649171113967
0.0259637981653213
0.0270162541419267
0.0283721908926963
0.0300352144986391
0.0319661237299442
0.0340925157070159
0.0363251939415931
0.0385659039020538
0.0406932346522808
0.0425301566720008
0.043812308460474
0.0441821217536926
0.0432227998971939
0.0405278652906417
0.0357897467911243
0.0288855247199535
0.0199372880160808
0.0093302158638834
-0.002319002058357
-0.014241199940443
-0.0256234146654605
-0.0357145592570304
-0.0439038909971714
-0.0497708097100257
-0.0531112775206565
-0.0539401285350322
-0.0524683147668838
-0.0490605123341083
-0.0441818162798881
-0.0383426360785961
-0.0320483706891536
-0.0257561616599559
-0.01984210498631
-0.0145799573510885
-0.0101288594305515
-0.0065347827039659
-0.003749014576897
-0.0016545195830985
-9.201653301715852e-05
0.001115106511861
0.0021386637818068
0.0031299812253564
0.004210315644741
0.0054630544036626
0.006930427160114
0.0086206123232841
0.010519896633923
0.0126007981598377
0.0148264523595571
0.0171568114310503
0.0195507742464542
0.0219431389123201
0.0241916384547948
0.0260286070406436
0.0270569175481796
0.0267978906631469
0.0247781928628683
0.0206362195312976
0.0142194274812936
0.0056458711624145
-0.0046812901273369
-0.0161075554788112
-0.0278065502643585
-0.0388925746083259
-0.0485397167503833
-0.0560785084962844
-0.06105587631464
-0.0632633939385414
-0.0627404004335403
-0.0597498714923858
-0.0547284819185733
-0.0482212156057357
-0.0408135093748569
-0.0330705791711807
-0.0254879388958215
-0.0184555016458034
-0.0122372722253203
-0.006965332198888
-0.0026465915143489
0.0008156858384609
0.0035886219702661
0.0058756438083946
0.0078866789117455
0.0098099606111645
0.0117875915020704
0.013902542181313
0.0161793995648622
0.0185954831540584
0.0210977718234062
0.0236199907958507
0.0260974410921335
0.0284796506166458
0.0307387430220842
0.0328683033585548
0.0348638743162155
0.0366804860532283
0.0381805226206779
0.039099920541048
0.0390556715428829
0.0375986881554126
0.0343004651367664
0.0288549419492483
0.0211706552654504
0.0114277508109807
