bvp
0.014676452614367
0.0179835986346006
0.0207274705171585
0.0231865160167217
0.0255869552493095
0.0280890092253685
0.0307863131165504
0.0337111726403236
0.0368420593440532
0.0401165261864662
0.0434511601924896
0.0467594861984252
0.0499613434076309
0.0529855489730834
0.0557624101638793
0.0581932291388511
0.0600953698158264
0.0611491277813911
0.0608793199062347
0.0586931444704532
0.0539830401539802
0.0462742336094379
0.035372544080019
0.0214687138795852
0.0051684170030057
-0.0125611554831266
-0.0305134765803813
-0.0474029667675495
-0.0620279982686042
-0.0734089314937591
-0.0808852314949035
-0.0841635018587112
-0.083314910531044
-0.078729510307312
-0.0710451900959014
-0.0610671415925025
-0.0496807619929313
-0.0377600044012069
-0.0260843988507986
-0.0152786709368228
-0.0057772994041442
0.0021868906915187
0.0085689444094896
0.0134798288345336
0.0171464197337627
0.0198677964508533
0.0219727251678705
0.0237828288227319
0.0255827326327562
0.0275980178266763
0.0299787130206823
0.0327880717813968
0.0360049530863761
0.0395429581403732
0.0432777255773544
0.047072634100914
0.0507954508066177
0.0543166510760784
0.0574793592095375
0.0600447878241539
0.0616421476006507
0.0617601461708545
0.0597966164350509
0.0551614314317703
0.0474178940057754
0.0364275984466075
0.0224454086273908
0.0061329584568738
-0.0115042170509696
-0.0292400233447551
-0.0457868874073028
-0.0599536076188087
-0.0707767680287361
-0.0776158645749092
-0.0802026689052581
-0.0786403268575668
-0.0733580961823463
-0.06503427028656
-0.0545039065182209
-0.0426655039191246
-0.0303923487663269
-0.0184540208429098
-0.0074613615870475
0.002159321680665
0.0101734474301338
0.0165333990007638
0.0213582720607519
0.0248978286981582
0.0274855662137269
0.0294866580516099
0.0312476512044668
0.0330559760332107
0.0351163148880004
0.0375458113849163
0.0403819754719734
0.0435966290533542
0.0471154265105724
0.0508400946855545
0.0546593144536018
0.058431938290596
0.0619428902864456
0.0648512989282608
0.0666572898626327
0.0667142122983932
0.0643053948879242
0.058780200779438
0.0497151911258697
0.0370539501309394
0.0211850851774215
0.0029344586655497
-0.0165289305150508
-0.0358486026525497
-0.0536568500101566
-0.0687348693609237
-0.0801398679614067
-0.0872920155525207
-0.0900106951594352
-0.0884947627782821
-0.0832576602697372
-0.0750389844179153
-0.0647089853882789
-0.0531738400459289
-0.0412894412875175
-0.0297906007617712
-0.019240103662014
-0.0100034158676862
-0.0022499440237879
0.0040255207568407
0.0089697893708944
0.0128318332135677
0.0159164741635322
0.0185366868972778
0.0209777783602476
0.0234742332249879
0.026191558688879
0.0292175486683845
0.0325677916407585
0.0361985377967357
0.0400220155715942
0.0439236126840114
0.0477744042873382
0.0514252260327339
0.0546689555048942
0.0571792460978031
0.0584645830094814
0.0578788071870803
0.0547003746032714
0.048268087208271
0.0381475165486335
0.0242828242480754
0.0070825796574354
-0.01258812751621
-0.0335042774677276
-0.0542396083474159
-0.0733499675989151
-0.089544653892517
-0.1018225252628326
-0.1095601990818977
-0.1125453561544418
-0.1109601855278015
-0.1053247600793838
-0.0964097082614898
-0.0851351916790008
-0.0724718794226646
-0.0593506097793579
-0.0465856008231639
-0.0348142609000206
-0.0244556404650211
-0.0156951956450939
-0.0085026286542415
-0.0026767682284116
0.0020965607836842
0.0061849975027143
0.0099543118849396
0.0137203019112348
0.0177138317376375
0.0220666341483593
0.0268175117671489
0.0319265127182006
0.037288274616003
0.0427501685917377
0.048138216137886
0.0532822832465171
0.0580241195857524
0.0621877983212471
0.0655126124620437
0.0675858110189437
0.067826047539711
0.0655482113361358
0.0601031892001628
0.0510496348142623
0.0383021347224712
0.022216198965907
0.0035914895124733
-0.0164102613925933
-0.0364140719175338
-0.0550072155892849
-0.0709038078784942
-0.0830785781145095
-0.0908600389957428
-0.0939757749438285
-0.0925478935241699
-0.0870461165904998
-0.0782100856304168
-0.0669515654444694
-0.0542498752474784
-0.0410529449582099
-0.0281927566975355
-0.0163208749145269
-0.0058676209300756
0.0029660258442163
0.0101811001077294
0.0159355606883764
0.0204968601465225
0.0241934340447187
0.0273674838244915
0.0303341373801231
0.0333504453301429
0.0365972965955734
0.0401728376746177
0.0440946146845817
0.0483117178082466
0.0527248457074165
0.0572082102298736
0.0616288930177688
0.0658545270562172
0.0697305500507354
0.0730189532041549
0.0753261297941207
0.0760703161358833
0.074524775147438
0.0699390470981597
0.0617094114422798
0.0495513416826725
0.0336241088807582
0.0145725905895233
-0.0065224561840295
-0.0282721295952796
-0.0491572543978691
-0.0677188709378242
-0.082725390791893
-0.0932942032814025
-0.0989615619182586
-0.0996996834874153
-0.0958801954984664
-0.0881950780749321
-0.0775544196367263
-0.0649766400456428
-0.051483079791069
-0.038004994392395
-0.0253099352121353
-0.0139543041586875
-0.0042635221034288
0.003662372007966
0.0099214371293783
0.0147668356075882
0.0185551755130291
0.0216913148760795
0.0245705395936965
0.0275232810527086
0.0307777635753154
0.0344504527747631
0.0385574996471405
0.0430369973182678
0.0477749779820442
0.0526292324066162
0.0574499703943729
0.0620918832719326
0.0664002895355224
0.0701584294438362
0.0730113238096237
0.0744126364588737
0.0736458972096443
0.0699369460344314
0.0626232400536537
0.0513250008225441
0.0360786728560924
0.0174047946929931
-0.0037102862261235
-0.0259184874594211
-0.0476767122745513
-0.0674414560198783
-0.0838550701737403
-0.0958927646279335
-0.1029502600431442
-0.1048689410090446
-0.1019090339541435
-0.0946826711297035
-0.0840578824281692
-0.0710486993193626
-0.0567086823284626
-0.0420378521084785
-0.0279041938483715
-0.0149818398058414
-0.003712442703545
0.0057055093348026
0.0132985617965459
0.0192758738994598
0.0239713303744792
0.0277804117649793
0.03110265545547
0.0342954099178314
0.0376387052237987
0.0413122661411762
0.0453904308378696
0.0498563945293426
0.054622720927
0.0595482997596263
0.0644595324993133
0.0691768079996109
0.0735243931412696
0.077300801873207
0.0802143141627311
0.0818209946155548
0.0815092399716377
0.0785563886165618
0.0722562372684478
0.0620869845151901
0.0478701367974281
0.0298766437917947
0.0088564865291118
-0.014016437344253
-0.0372801907360553
-0.0593753010034561
-0.0788415148854255
-0.0944779291749
-0.1054504960775375
-0.1113476604223251
-0.1121862456202507
-0.1083705723285675
-0.1006141901016235
-0.0898400023579597
-0.0770740732550621
-0.0633424222469329
-0.0495771244168281
-0.0365409217774868
-0.0247775763273239
-0.0145899448543787
-0.0060494812205433
0.0009642988443374
0.0067086014896631
0.0115177650004625
0.0157459639012813
0.0197216346859931
0.0237153694033622
0.0279169119894504
0.0324229151010513
0.0372383818030357
0.0422922782599926
0.0474640317261219
0.0526096113026142
0.0575814321637153
0.0622457452118396
0.0664915218949318
0.0702125057578086
0.0732524544000625
0.075329914689064
0.0759805738925933
0.0745567381381988
0.0703057646751403
0.0625199079513549
0.0507189668715
0.0348128080368042
0.0151982456445693
-0.0072353780269622
-0.0311923697590827
-0.0551277548074722
-0.0774421840906143
-0.0966760069131851
-0.1116673201322555
-0.1216572895646095
-0.1263389438390731
-0.125848188996315
-0.1207038536667823
-0.1117128282785415
-0.0998583883047103
-0.0861878842115402
-0.0717132240533828
-0.0573309734463691
-0.0437630452215671
-0.0315196737647056
-0.0208887867629528
-0.011950995773077
-0.0046119512990117
0.0013593584299087
0.0062901419587433
0.0105530712753534
0.014507507905364
0.0184523034840822
0.0226003620773553
0.0270711984485387
0.031896099448204
0.0370300710201263
0.0423681810498237
0.0477654747664928
0.0530578829348087
0.0580841712653636
0.062703251838684
0.0667855069041252
0.0701615735888481
0.0725468769669532
0.0734865292906761
0.0723568573594093
0.0684395655989646
0.0610647276043891
0.0497901923954486
0.0345646701753139
0.0158240962773561
-0.0055104326456785
-0.0281316265463829
-0.0505102686583995
-0.0710864588618278
-0.0884563326835632
-0.1015276685357093
-0.1096213832497596
-0.1125079542398452
-0.1103848293423652
-0.103810891509056
-0.0936157777905464
-0.0807985067367553
-0.0664212927222251
-0.0515042245388031
-0.0369345769286155
-0.0234050638973712
-0.0113852983340621
-0.0011210981756448
0.0073465146124362
0.0141478898003697
0.0195409711450338
0.0238611921668052
0.0274696350097656
0.0307059716433286
0.0338537693023681
0.037123404443264
0.0406470000743866
0.0444765910506248
0.0485880486667156
0.0528952814638614
0.0572722256183624
0.0615773275494575
0.0656750053167343
0.0694467723369598
0.0727775022387504
0.0755053162574768
0.0773512572050094
0.0778679773211479
0.0764449536800384
0.0723877847194671
0.0650603845715522
0.0540534146130085
0.0393286757171154
0.0212968029081821
0.0008130613714456
-0.0209039095789194
-0.0424154810607433
-0.0622415915131568
-0.079039879143238
-0.0917548686265945
-0.0997187197208404
-0.1026950627565383
-0.1008666604757309
-0.0947767347097396
-0.0852378010749816
-0.0732233375310897
-0.0597578398883342
-0.0458164885640144
-0.0322451516985893
-0.0197090487927198
-0.0086658634245395
0.00064417719841
0.0081886798143386
0.0141109731048345
0.0186824072152376
0.0222494397312402
0.0251820944249629
0.0278280563652515
0.0304771922528743
0.0333404764533042
0.0365435145795345
0.0401314385235309
0.0440823659300804
0.0483246929943561
0.0527503304183483
0.0572240687906742
0.0615927465260028
0.0656837001442909
0.0692769661545753
0.0720558390021324
0.0735656023025512
0.0732158496975898
0.0703445225954055
0.0643365234136581
0.0547712296247482
0.0415593907237052
0.0250276625156402
0.0059264786541461
-0.0146370884031057
-0.0353231355547905
-0.0547201931476593
-0.0715202242136001
-0.0846709758043289
-0.0934765189886093
-0.097640112042427
-0.0972561314702034
-0.0927602499723434
-0.0848490372300148
-0.0743849650025367
-0.0623013526201248
-0.0495130270719528
-0.0368379577994346
-0.0249401852488517
-0.0142972217872738
-0.0051856716163456
0.0023170995991677
0.008307852782309
0.0130101796239614
0.0167228579521179
0.0197762511670589
0.022493852302432
0.0251562558114528
0.0279727112501859
0.0310670379549264
0.0344792082905769
0.0381778888404369
0.0420791320502758
0.0460667945444583
0.0500109829008579
0.0537852719426155
0.0572794489562511
0.0603894628584384
0.0629645362496376
0.0647270455956459
0.0652197003364563
0.0638222843408584
0.0598399154841899
0.0526419654488563
0.0418197885155677
0.0273249056190252
0.0095516797155141
-0.0106616634875535
-0.0321161411702632
-0.0533964522182941
-0.0730470493435859
-0.0897485241293907
-0.1024617776274681
-0.110521949827671
-0.1136821433901786
-0.1121083572506904
-0.106325551867485
-0.09712715446949
-0.085467129945755
-0.0723491013050079
-0.0587248727679252
-0.0454151332378387
-0.0330583155155181
-0.0220834910869598
-0.0127028487622737
-0.004927990026772
0.0013893174473196
0.0065051708370447
0.0107354214414954
0.0144146205857396
0.0178565699607133
0.0213164165616035
0.0249649621546268
0.0288827922195196
0.0330702140927314
0.0374651364982128
0.0419643186032772
0.0464456416666507
0.0507868081331253
0.05487772077322
0.0586266219615936
0.0619492791593074
0.0647261887788772
0.0667362660169601
0.0676030740141868
0.0667898803949356
0.0636581107974052
0.057584673166275
0.0481162965297699
0.035119280219078
0.0188798476010561
0.000127300620079
-0.0200286768376827
-0.0402342900633811
-0.0590682812035083
-0.0752210989594459
-0.0876451954245567
-0.0956558659672737
-0.098977543413639
-0.0977373644709587
-0.0924103409051895
-0.0837308019399643
-0.0725941956043243
-0.0599622465670108
-0.0467693842947483
-0.0338394902646541
-0.0218303389847278
-0.0112048992887139
-0.0022207647562026
0.0050626746378839
0.0107576018199324
0.0151059078052639
0.0184307396411895
0.0210876818746328
0.0234189182519912
0.025715447962284
0.0281931273639202
0.0309829264879226
0.0341305620968341
0.037603422999382
0.0413075387477874
0.0451134145259857
0.048882707953453
0.0524874776601791
0.0558168925344944
0.0587648376822471
0.0611895658075809
0.0628528147935867
0.0633719190955162
0.0622198320925235
0.0587882734835147
0.0525067672133445
0.0429900847375392
0.0301737859845161
0.0143943056464195
-0.0036123907193541
-0.0227852072566747
-0.0418629981577396
-0.0595392137765884
-0.07461828738451
-0.0861456915736198
-0.0934963896870613
-0.0964174717664718
-0.0950251966714859
-0.0897608175873756
-0.0813153907656669
-0.0705363675951957
-0.0583295635879039
-0.045569784939289
-0.0330299735069274
-0.0213346928358078
-0.0109357219189405
-0.0020999554544687
0.0050921915099024
0.0107296742498874
0.015034913085401
0.0183181595057249
0.0209286659955978
0.0232074446976184
0.0254476461559534
0.0278674997389316
0.0306000709533691
0.0336996391415596
0.0371551811695098
0.0409048721194267
0.0448552817106246
0.048898845911026
0.05291099101305
0.0567187815904617
0.0600499957799911
0.0624855607748031
0.0634497553110122
0.0622637830674648
0.0582605190575122
0.0509341396391391
0.0400848239660263
0.0259168036282062
0.0090631106868386
-0.0094673866406083
-0.0284079201519489
-0.0463922508060932
-0.0621222853660583
-0.074517011642456
-0.082824170589447
-0.0866815969347953
-0.0861240699887275
-0.0815415531396865
-0.0736012831330299
-0.0631500408053398
-0.0511127114295959
-0.0383988767862319
-0.0258233547210693
-0.0140449032187461
-0.0035286378115415
0.0054669603705406
0.0128810154274106
0.0188211649656295
0.0235196277499198
0.0272814985364675
0.0304317437112331
0.033268965780735
0.0360344275832176
0.0388991385698318
0.0419638268649578
0.0452654883265495
0.0487866438925266
0.0524671040475368
0.0562205165624618
0.059949055314064
0.0635395422577858
0.0668284446001052
0.0695441141724586
0.0712584182620048
0.0713804960250854
0.069208025932312
0.0640393048524856
0.0553315393626689
0.0428640209138393
0.0268537309020757
0.0079867094755172
-0.0126427691429853
-0.0336663499474525
-0.0536167435348033
-0.0711090117692947
-0.0849972888827323
-0.0944867730140686
-0.0991931483149528
-0.0991498380899429
-0.0947674512863159
-0.0867532640695571
-0.0760076120495796
-0.0635202527046203
-0.0502761527895927
-0.0371700748801231
-0.0249362252652645
-0.0141014447435736
-0.0049648666754364
0.0023968163877725
0.0081013431772589
0.012413683347404
0.0156869627535343
0.0183046087622642
0.0206312984228134
0.0229747556149959
0.025564607232809
0.0285481624305248
0.031989611685276
0.0358672030270099
0.0400808304548263
0.0444771237671375
0.0488794930279254
0.053100474178791
0.0569195784628391
0.0600300878286361
0.0619827210903167
0.0621689483523368
0.0598752275109291
0.0544054619967937
0.0452417023479938
0.0322010852396488
0.0155458459630608
-0.0039848964661359
-0.0252357348799705
-0.0467786528170108
-0.0671006962656974
-0.0847894102334976
-0.0986878126859664
-0.1080033704638481
-0.1123620420694351
-0.1118109002709388
-0.1067783832550048
-0.0979978069663047
-0.0864037424325943
-0.073017843067646
-0.0588413514196872
-0.0447684004902839
-0.0315230600535869
-0.0196185372769832
-0.0093453824520111
-0.0007878635078668
0.0061473259702324
0.011695796623826
0.0161878913640975
0.0199924334883689
0.0234638806432485
0.0269026532769203
0.0305320732295513
0.034488707780838
0.0388221070170402
0.0435027703642845
0.0484386309981346
0.0534989647567272
0.0585381686687469
0.0634038150310516
0.0679095238447189
0.0717682391405105
0.0745208784937858
0.0755171552300453
0.0739798918366432
0.0691425055265426
0.0604243502020835
0.0475979782640934
0.0309038460254669
0.0110821379348635
-0.0106882266700267
-0.0329311899840831
-0.0540635026991367
-0.0725917443633079
-0.0872780904173851
-0.0972563251852989
-0.1020999401807785
-0.1018388792872428
-0.0969180911779403
-0.0881084129214286
-0.0763920247554779
-0.0628435760736465
-0.0485211759805679
-0.0343734547495842
-0.0211675148457288
-0.0094440877437591
0.0004978571087121
0.0085907783359289
0.0149677405133843
0.0199155807495117
0.0238177869468927
0.0270953048020601
0.0301486067473888
0.0333049148321151
0.0367844142019748
0.0406939089298248
0.0450412817299366
0.0497597604990005
0.0547331422567367
0.0598170608282089
0.0648510381579399
0.0696453601121902
0.0739299952983856
0.077286459505558
0.0791095197200775
0.0786370709538459
0.0750600099563598
0.0676920786499977
0.0561502315104007
0.0404931381344795
0.0212849806994199
-0.0004298482090234
-0.0232385583221912
-0.045535285025835
-0.0657205283641815
-0.0823870748281478
-0.0944686830043792
-0.1013350635766983
-0.1028251349925994
-0.0992223694920539
-0.0911845192313194
-0.0796450600028038
-0.0656981468200683
-0.0504756085574626
-0.0350362062454223
-0.020284192636609
-0.0069143958389759
0.0046217255294322
0.014125308021903
0.0216316916048526
0.0273704938590526
0.0317125767469406
0.035106886178255
0.0380124151706695
0.0408380255103111
0.0439008027315139
0.0474049299955368
0.0514385178685188
0.0559853985905647
0.0609479546546936
0.06617072224617
0.0714487060904502
0.0765086635947227
0.080963410437107
0.0842620581388473
0.0856770053505897
0.084360234439373
0.0794757753610611
0.0703798606991767
0.0567966662347316
0.0389417707920074
0.0175624471157789
-0.0061169266700744
-0.0305341333150863
-0.0539827086031436
-0.0748187229037284
-0.0916469693183898
-0.1034661456942558
-0.1097554340958595
-0.1104905009269714
-0.1060957908630371
-0.0973536372184753
-0.0852883756160736
-0.0710419863462448
-0.0557559989392757
-0.0404695086181163
-0.0260421782732009
-0.0131046185269951
-0.002031781245023
0.0070570213720202
0.0142672127112746
0.0198748111724853
0.0242610573768615
0.0278473757207393
0.0310401748865842
0.0341887064278125
0.0375553146004676
0.041299007833004
0.0454753153026104
0.0500502102077007
0.0549208298325538
0.0599386692047119
0.0649284943938255
0.0696851313114166
0.0739318653941154
0.0772530436515808
0.0790459141135215
0.0785360857844352
0.074869804084301
0.0672688335180282
0.0552169755101203
0.0386308208107948
0.0179639719426631
-0.0057884827256202
-0.0311899930238723
-0.0565413311123847
-0.0800953358411789
-0.1002671718597412
-0.115807220339775
-0.1259126961231231
-0.1302724927663803
-0.1290544867515564
-0.1228422448039054
-0.1125319004058837
-0.0992136374115943
-0.084056332707405
-0.0681980699300766
-0.0526474639773368
-0.0382074750959873
-0.0254281871020793
-0.0145911257714033
-0.0057268990203738
0.001340604852885
0.00693686818704
0.0114753972738981
0.0153950117528438
0.0190995465964078
0.0229105278849601
0.0270440615713596
0.0316113717854023
0.0366305373609066
0.042039580643177
0.0477120503783226
0.0534778907895088
0.0591411218047142
0.0644738003611564
0.0691728666424751
0.0727957487106323
0.0747180804610252
0.0741562396287918
0.0702719241380691
0.0623404942452907
0.0499379411339759
0.0330960974097251
0.0123845506459474
-0.0111063458025455
-0.0358827821910381
-0.0602369122207164
-0.0824622437357902
-0.1010538786649704
-0.1148649305105209
-0.1232005879282951
-0.1258473247289657
-0.1230496987700462
-0.1154457107186317
-0.1039687022566795
-0.0897300317883491
-0.0738993138074874
-0.0575939156115055
-0.0417860336601734
-0.0272327531129121
-0.014433067291975
-0.0036187293007969
0.0052178557962179
0.0122730145230889
0.0178766008466482
0.0224348679184913
0.0263719148933887
0.0300785116851329
0.0338734537363052
0.0379782691597938
0.0425089709460735
0.0474832840263843
0.0528354346752166
0.0584368370473384
0.0641232207417488
0.0697177648544311
0.0750296115875244
0.0798103660345077
0.08367919921875
0.0860624015331268
0.086197629570961
0.0832230821251869
0.0763367787003517
0.064988799393177
0.0490576736629009
0.0289630927145481
0.0056808674708008
-0.0193491522222757
-0.0444020479917526
-0.0676899403333664
-0.0875793248414993
-0.1027690395712852
-0.1124089732766151
-0.1161549091339111
-0.1141674295067787
-0.1070592850446701
-0.0957939475774765
-0.0815520957112312
-0.065591387450695
-0.0491180345416069
-0.0331802703440189
-0.0185913555324077
-0.0058873407542705
0.0046805385500192
0.0131240487098693
0.0196728408336639
0.0247128754854202
0.028718139976263
0.0321830734610557
0.0355578549206256
0.0391941778361797
0.0433146730065345
0.0480083003640174
0.0532443411648273
0.0588993355631828
0.0647914335131645
0.0707144141197204
0.0764613673090934
0.0818223357200622
0.0865430235862732
0.0902544558048248
0.0924116969108581
0.0922887995839119
0.0890573784708976
0.0819389224052429
0.0703920945525169
0.0542862229049205
0.0340153276920318
0.010519154369831
-0.0147975059226155
-0.0402290746569633
-0.0639835447072982
-0.0844045579433441
-0.1001595184206962
-0.1103690937161445
-0.1146695390343666
-0.1132065802812576
-0.1065712347626686
-0.0956967175006866
-0.0817312821745872
-0.0659020245075225
-0.0493921041488647
-0.0332451462745666
-0.0182937867939472
-0.005111220292747
0.0060045658610761
0.0150122810155153
0.0220854822546243
0.0275562163442373
0.0318503975868225
0.035422071814537
0.0386940762400627
0.0420135110616683
0.0456250384449958
0.0496596209704875
0.0541392527520656
0.0589955896139144
0.0640951469540596
0.069266140460968
0.0743230059742927
0.0790764093399047
0.0833106413483619
0.0867237001657486
0.0888568311929702
0.0890622064471244
0.0865466371178627
0.0804938748478889
0.0702390372753143
0.0554558932781219
0.0363069325685501
0.0135078206658363
-0.0117135550826787
-0.0377533547580242
-0.0628373250365257
-0.0852510780096054
-0.1035426706075668
-0.116664633154869
-0.1240503340959549
-0.1256323158740997
-0.1218079105019569
-0.1133569478988647
-0.1013241708278656
-0.086888775229454
-0.0712407380342483
-0.0554736629128456
-0.0404997505247592
-0.0269923359155654
-0.0153589388355612
-0.0057433927431702
0.0019441163167357
0.0079715512692928
0.0127163073047995
0.0165986996144056
0.0200259611010551
0.0233489014208316
0.02683100476861
0.030631449073553
0.0348045453429222
0.0393131524324417
0.0440502241253852
0.0488648787140846
0.0535896345973014
0.0580633617937564
0.0621420964598655
0.0656823068857193
0.0684830993413925
0.0702061429619789
0.070324420928955
0.0681431591510772
0.0629021227359771
0.0539383217692375
0.0408681854605674
0.0237389504909515
0.003106877207756
-0.0199789069592952
-0.0440857894718647
-0.0675762817263603
-0.0888156369328498
-0.1063693016767501
-0.1191584765911102
-0.1265522837638855
-0.1283971071243286
-0.1249961405992508
-0.1170419603586196
-0.1055071651935577
-0.0915158167481422
-0.0762185826897621
-0.0606825053691864
-0.0458051264286041
-0.0322626568377018
-0.0204884484410285
-0.0106714479625225
-0.0027756169438362
0.0034168409183621
0.0082483012229204
0.0121283493936061
0.0154810268431901
0.018692921847105
0.0220660027116537
0.0257917419075965
0.0299514271318912
0.03453079611063
0.0394414886832237
0.0445468537509441
0.0496863611042499
0.0546949654817581
0.059415265917778
0.0636931583285331
0.0673436149954795
0.0700905323028564
0.0715142786502838
0.0710494220256805
0.0680512264370918
0.0619166791439056
0.0522290095686912
0.0388938933610916
0.0222345534712076
0.0030138865113258
-0.0176280550658702
-0.0383056364953517
-0.0575597807765007
-0.074037030339241
-0.0866437554359436
-0.0946552455425262
-0.0977702736854553
-0.0961111411452293
-0.0901751592755317
-0.0807463526725769
-0.0687851980328559
-0.0553199425339698
-0.041352592408657
-0.0277793295681476
-0.0153239956125617
-0.0044918269850313
0.0044489549472928
0.0114576807245612
0.0166887212544679
0.0204440373927354
0.0231178198009729
0.0251373946666717
0.0269077494740486
0.0287675596773624
0.0309602469205856
0.0336223021149635
0.0367898233234882
0.0404162108898162
0.0443920828402042
0.0485664829611778
0.0527685619890689
0.0568205527961254
0.0605266168713569
0.0636295601725578
0.0657557845115661
0.0663893893361091
0.0649051517248153
0.0606637895107269
0.0531497076153755
0.0421162843704223
0.0276996418833732
0.0104694701731204
-0.0085986172780394
-0.0282293353229761
-0.0470136292278766
-0.0635936558246612
-0.0768249556422233
-0.0858925655484199
-0.0903748199343681
-0.0902552008628845
-0.0858868733048439
-0.0779220610857009
-0.0672221258282661
-0.0547588653862476
-0.0415129624307155
-0.028381235897541
-0.0161051340401172
-0.005223206244409
0.0039531821385025
0.011334391310811
0.017015416175127
0.0212247520685195
0.0242769084870815
0.0265291854739189
0.0283396765589714
0.0300283320248127
0.0318457260727882
0.0339559242129325
0.0364357009530067
0.039284348487854
0.0424380674958229
0.0457873195409774
0.0491959787905216
0.0525173582136631
0.0555916503071785
0.058207232505083
0.0600393377244472
0.0606108456850051
0.0593136176466941
0.0554994270205497
0.0486189648509025
0.0383701249957084
0.0248147547245025
0.0084306877106428
-0.0099142864346504
-0.0290581919252872
-0.0476884990930557
-0.0645044073462486
-0.0783683508634567
-0.0884238183498382
-0.0941647216677665
-0.0954582393169403
-0.0925336331129074
-0.0859375372529029
-0.0764530003070831
-0.0649948790669441
-0.0525037348270416
-0.0398553535342216
-0.0277910977602005
-0.0168686918914318
-0.0074379835277795
0.0003549810498952
0.0065427599474787
0.011300278827548
0.0149013623595237
0.0176721587777137
0.0199478585273027
0.0220322664827108
0.0241620521992445
0.026488821953535
0.0290841646492481
0.031954076141119
0.0350510813295841
0.0382880419492721
0.0415577441453933
0.0447485893964767
0.0477405451238155
0.05037247762084
0.0523892641067504
0.0533977560698986
0.0528664737939834
0.0501894913613796
0.0448092371225357
0.0363614819943904
0.0247945375740528
0.0104341572150588
-0.006015608087182
-0.0235371049493551
-0.040918756276369
-0.0569065101444721
-0.0703578293323516
-0.0803709328174591
-0.0863713845610618
-0.0881500467658042
-0.0858544111251831
-0.0799415633082389
-0.0711035281419754
-0.0601750984787941
-0.0480385310947895
-0.0355411171913147
-0.0234316401183605
-0.012311833910644
-0.002602151595056
0.0054722176864743
0.0118723111227154
0.0167175401002168
0.02024657279253
0.0227727647870779
0.0246388725936412
0.0261766631156206
0.0276737716048955
0.0293482132256031
0.0313338860869407
0.033681783825159
0.0363764241337776
0.0393549688160419
0.0425182022154331
0.0457399040460586
0.0488734431564807
0.0517359226942062
0.0540667027235031
0.055485863238573
0.0554846860468387
0.0534698292613029
0.0488636158406734
0.041240107268095
0.0304587110877037
0.0167535282671451
0.0007526052650064
-0.0165764018893241
-0.0340406335890293
-0.0503729432821273
-0.0643928796052932
-0.0751479938626289
-0.0820099711418151
-0.0847179815173149
-0.0833726897835731
-0.0783895105123519
-0.0704244971275329
-0.0602837800979614
-0.0488284714519977
-0.0368911400437355
-0.0252104513347148
-0.0143819078803062
-0.004826495423913
0.00322069786489
0.0097039118409156
0.0147229377180337
0.0184932984411716
0.0212989468127489
0.0234493799507617
0.0252462644129991
0.0269558671861886
0.0287850499153137
0.0308662261813879
0.0332556813955307
0.0359427481889724
0.0388661921024322
0.0419351980090141
0.04504931345582
0.0481083169579505
0.0509991645812988
0.0535512790083885
0.0554738864302635
0.0563142746686935
0.0554754734039306
0.0523035041987896
0.0462236925959587
0.0368902683258056
0.0243097562342882
0.0089041404426097
-0.0085039213299751
-0.026779368519783
-0.0446152500808239
-0.0606976896524429
-0.0738669857382774
-0.0832481980323791
-0.0883297845721244
-0.0889847725629806
-0.0854487493634224
-0.0782708004117012
-0.0682390257716178
-0.056282140314579
-0.0433612689375877
-0.0303710326552391
-0.0180639922618865
-0.0070029236376285
0.0024614762514829
0.0101908035576343
0.0162401348352432
0.0208211615681648
0.0242506302893161
0.0268950257450342
0.0291232764720916
0.0312696620821952
0.0336003527045249
0.0362847819924354
0.0393860265612602
0.0428739711642265
0.0466497279703617
0.0505749322474002
0.0545009411871433
0.0582834221422672
0.061766430735588
0.0647316351532936
0.0668330565094947
0.0675606057047844
0.0662698596715927
0.0622852630913257
0.055054023861885
0.0443089343607425
0.0301871020346879
0.0132650211453437
-0.0054909223690629
-0.0248377732932567
-0.0434113703668117
-0.0598939843475818
-0.0731644406914711
-0.0824121311306953
-0.0872033238410949
-0.0874959006905555
-0.0836090520024299
-0.0761599168181419
-0.0659776180982589
-0.0540045760571956
-0.0411963611841201
-0.02842902764678
-0.0164251960813999
-0.0057115666568279
0.0033938325941562
0.0107753109186887
0.016497116535902
0.0207661222666502
0.0238870289176702
0.0262162052094936
0.0281163360923528
0.029914204031229
0.0318651981651783
0.034131471067667
0.0367797538638114
0.0397951044142246
0.0431022904813289
0.046590931713581
0.0501368194818496
0.0536087788641452
0.0568559281527996
0.0596687197685241
0.0617206841707229
0.0625275671482086
0.0614600889384746
0.0578230395913124
0.0509932301938533
0.040584709495306
0.026589423418045
0.0094477115198969
-0.0099687576293945
-0.0304523073136806
-0.0506080314517021
-0.0690247267484664
-0.0844410732388496
-0.0958851352334022
-0.1027656197547912
-0.1049052774906158
-0.1025216951966285
-0.0961658954620361
-0.0866331681609153
-0.0748606547713279
-0.0618229992687702
-0.0484394282102584
-0.035502091050148
-0.0236262753605842
-0.0132227130234241
-0.0044937222264707
0.0025506764650344
0.008062875829637
0.0123149827122688
0.0156445875763893
0.0184012129902839
0.0209069363772869
0.0234314203262329
0.0261752754449844
0.0292607247829437
0.0327310822904109
0.0365587137639522
0.0406596027314662
0.044911865144968
0.0491755418479442
0.0533075332641601
0.0571580231189727
0.0605358555912971
0.0631472617387771
0.0645373240113258
0.0640809163451194
0.0610557124018669
0.0547867119312286
0.0448189824819564
0.031069841235876
0.0139202307909727
-0.0057796873152256
-0.0267946831881999
-0.0476603955030441
-0.0668761357665062
-0.0830937549471855
-0.0952689498662948
-0.1027551963925361
-0.1053357124328613
-0.103202223777771
-0.0968945622444152
-0.087215669453144
-0.0751332938671112
-0.0616755932569503
-0.0478287413716316
-0.0344491899013519
-0.0222028475254774
-0.011535364203155
-0.0026685884222388
0.0043845479376614
0.0097911655902862
0.0138536235317587
0.0169518180191516
0.0194852445274591
0.0218246430158615
0.0242764316499233
0.0270588006824255
0.0302890948951244
0.0339857265353202
0.0380849316716194
0.0424662642180919
0.0469770729541778
0.0514522939920425
0.0557312294840812
0.0596590861678123
0.0630513876676559
0.0656258761882782
0.0669442862272262
0.0664084255695343
0.0633281096816062
0.0570543706417083
0.0471479520201683
0.0335293188691139
0.0165625661611557
-0.0029416121542453
-0.0238001514226198
-0.0445977114140987
-0.063863955438137
-0.0802501291036605
-0.0926778391003608
-0.1004425510764122
-0.1032612547278404
-0.1012679636478424
-0.0949679315090179
-0.085158497095108
-0.0728251636028289
-0.0590244159102439
-0.0447695776820182
-0.0309410486370325
-0.0182304996997118
-0.0071109812706708
0.0021735373884439
0.0095971701666712
0.0153201203793287
0.0196411479264497
0.0229395013302564
0.0256139431148767
0.0280307214707136
0.0304877832531929
0.0331950113177299
0.0362691134214401
0.0397404953837394
0.0435678698122501
0.0476594194769859
0.0518951714038848
0.0561428070068359
0.0602678433060646
0.064130924642086
0.0675502121448516
0.0702314600348472
0.0717093050479888
0.0713482052087783
0.068424567580223
0.0622783899307251
0.0524945147335529
0.0390564762055873
0.022422345355153
0.0035041579976677
-0.0164328031241893
-0.0359245873987674
-0.053494244813919
-0.0678387060761451
-0.0779783651232719
-0.083343930542469
-0.0838019251823425
-0.0796329230070114
-0.0714730098843574
-0.0602296888828277
-0.0469873435795307
-0.0329105965793132
-0.0191419590264558
-0.0066927573643624
0.0036560297012329
0.0114186005666852
0.0164265930652618
0.0188143718987703
0.0189701691269874
0.0174608994275331
0.0149492416530847
0.0121143506839871
0.0095795923843979
0.0078546945005655
0.0072989603504538
0.0081067262217402
0.0103125944733619
0.0138131510466337
0.0184039287269115
0.0238271076232194
0.0298140216618776
0.036098662763834
0.0423874594271183
0.0482894927263259
0.0532327964901924
0.0564192458987236
0.056870698928833
0.053574550896883
0.0456907749176025
0.0327623151242733
0.0148723954334855
-0.0072894804179668
-0.0324682742357254
-0.0589833855628967
-0.0849375054240226
-0.1084502935409545
-0.127872958779335
-0.141952708363533
-0.1499323397874832
-0.1515826731920242
-0.1471779197454452
-0.1374277472496032
-0.1233723983168602
-0.1062513887882232
-0.0873670130968093
-0.0679589435458183
-0.0490989871323108
-0.031614750623703
-0.0160460546612739
-0.0026348792016506
0.0086486786603927
0.0180483590811491
0.0259469486773014
0.032790545374155
0.0390232428908348
0.0450381711125373
0.0511412359774112
0.0575266741216182
0.0642733573913574
0.0713620632886886
0.078700341284275
0.0861463695764541
0.0935267508029937
0.100632295012474
0.1071767434477806
0.1127278804779052
0.1166504919528961
0.1181123778223991
0.1161828637123107
0.1100097298622131
0.0990294814109802
0.0831558108329773
0.0628896504640579
0.039312906563282
0.0139715820550918
-0.0113161876797676
-0.0346876457333564
-0.054461620748043
-0.0693284422159195
-0.0784737989306449
-0.081625759601593
-0.0790365859866142
-0.0714135318994522
-0.0598072558641433
-0.0454731024801731
-0.0297269057482481
-0.0138128381222486
0.0012058336287736
0.0145227070897817
0.025624020025134
0.0342895463109016
0.0405676215887069
0.0447292067110538
0.0472058057785034
0.0485176257789135
0.0492017716169357
0.0497495308518409
0.0505554415285587
0.0518828481435775
0.0538529120385646
0.0564558990299701
0.0595770627260208
0.0630316585302352
0.0666038393974304
0.0700718760490417
0.0731959715485572
0.075665608048439
0.0770321264863014
0.0766684710979461
0.0737965852022171
0.0675984323024749
0.0573897324502468
0.0428093671798706
0.0239684097468853
0.0015151500701904
-0.0233994759619236
-0.0492489039897918
-0.0743228644132614
-0.0969424322247505
-0.1156599447131156
-0.129412829875946
-0.1376117765903473
-0.1401607096195221
-0.137417122721672
-0.1301082074642181
-0.1192207485437393
-0.1058804243803024
-0.0912333577871322
-0.0763396918773651
-0.0620868578553199
-0.0491317138075828
-0.0378752201795578
-0.0284667611122131
-0.0208347849547863
-0.0147351454943418
-0.0098050739616155
-0.0056229494512081
-0.0017756074666976
0.0020833518356084
0.0062005724757909
0.0107144061475992
0.0156627241522073
0.0209995880722999
0.0266155339777469
0.0323587283492088
0.0380493141710758
0.0434658527374267
0.0482899397611618
0.0520334765315055
0.0540041849017143
0.0533546134829521
0.0492176935076713
0.0408914275467395
0.0280251428484916
0.0107654146850109
-0.0101790353655815
-0.0335782282054424
-0.0578196197748184
-0.0811135098338127
-0.1017215400934219
-0.1181612014770507
-0.1293535679578781
-0.1347041130065918
-0.1341234147548675
-0.1279972195625305
-0.117111250758171
-0.1025412380695343
-0.0855238363146781
-0.0673253387212753
-0.0491244718432426
-0.0319172441959381
-0.0164484288543462
-0.0031740497797727
0.0077428128570318
0.0164047926664352
0.0231280606240034
0.028371300548315
0.0326558500528335
0.0364922918379306
0.0403215736150741
0.044472012668848
0.0491365939378738
0.0543768480420112
0.0601493567228317
0.0663343369960784
0.0727455988526344
0.0791137591004371
0.0850421413779258
0.0899496600031852
0.0930420309305191
0.0933581963181495
0.0899072140455246
0.0818688496947288
0.0688051581382751
0.0508246086537838
0.0286523960530757
0.0035864182282239
-0.022650372236967
-0.0481261909008026
-0.0709413737058639
-0.0894537419080734
-0.1024556308984756
-0.1092774793505668
-0.1098085865378379
-0.1044493019580841
-0.0940199196338653
-0.079645425081253
-0.0626284033060073
-0.0443192794919014
-0.0259931348264217
-0.008743442595005
0.006599923595786
0.019522963091731
0.0298419501632452
0.0376777984201908
0.043397556990385
0.0475287176668643
0.0506584346294403
0.0533438622951507
0.0560512393712997
0.0591221526265144
0.0627611503005027
0.0670400485396385
0.0719150006771087
0.0772545784711837
0.0828688144683837
0.0885163247585296
0.0938701555132865
0.0984508097171783
0.1015688553452491
0.1023286581039428
0.0997215211391449
0.0927982032299041
0.0808805674314498
0.0637615770101547
0.0418393164873123
0.0161411967128515
-0.0117720998823642
-0.0399981662631034
-0.0665356591343879
-0.0895313918590545
-0.1074905097484588
-0.1194200590252876
-0.1248955205082893
-0.1240555346012115
-0.117532692849636
-0.1063338220119476
-0.0916953161358833
-0.0749396607279777
-0.0573464930057525
-0.04004468023777
-0.0239314679056406
-0.0096244364976882
0.0025513786822557
0.0125432861968874
0.0205252394080162
0.0268369354307651
0.0319157391786575
0.0362277589738369
0.0402057506144046
0.0441999435424804
0.0484459176659584
0.0530543848872184
0.0580228865146636
0.0632593631744384
0.0686070546507835
0.0738673508167266
0.0788080394268035
0.0831324309110641
0.0864084810018539
0.0880013406276702
0.0870674178004264
0.0826419740915298
0.0738152638077735
0.059959776699543
0.0409435257315635
0.017263725399971
-0.0099372789263725
-0.0389795564115047
-0.0678538531064987
-0.0944864228367805
-0.1170042008161544
-0.1339499503374099
-0.1444189399480819
-0.1481077820062637
-0.1452823728322982
-0.1366858631372451
-0.1234095692634582
-0.1067501008510589
-0.0880708992481231
-0.0686764940619468
-0.0497062504291534
-0.0320582725107669
-0.0163477044552564
-0.0028944034129381
0.0082640387117862
0.0173311065882444
0.0246843565255403
0.0307973995804786
0.0361643247306346
0.0412322729825973
0.046349860727787
0.0517415404319763
0.0575086511671543
0.0636476650834083
0.0700765922665596
0.0766638740897178
0.0832521915435791
0.0896644070744514
0.0956745967268943
