bvp
0.0543866157531738
0.0554667189717292
0.0562768951058387
0.0568583086133003
0.0572530999779701
0.0574936047196388
0.0576013512909412
0.0575850456953048
0.0574269443750381
0.057062029838562
0.0563651397824287
0.0551578998565673
0.0532350912690162
0.0504039674997329
0.0465296283364295
0.0415774881839752
0.0356413982808589
0.0289484485983848
0.0218384824693202
0.0147212352603673
0.0080190701410174
0.0021104766055941
-0.0027135387063026
-0.0062775518745183
-0.0085342312231659
-0.0095618776977062
-0.0095486417412757
-0.0087631056085228
-0.0075124390423297
-0.0060976697131991
-0.0047781681641936
-0.0037496704608201
-0.003133944235742
-0.0029757944867014
-0.0032478272914886
-0.0038685938343405
-0.0047263503074646
-0.0056918011978268
-0.0066214799880981
-0.0073654279112815
-0.0077839186415076
-0.0077688172459602
-0.0072613982483744
-0.0062599694356322
-0.0048147207126021
-0.0030124308541417
-0.0009603803046047
0.0012251739390194
0.0034294724464416
0.0055493810214102
0.007499273866415
0.0092102140188217
0.0106259752064943
0.0117048379033803
0.012428343296051
0.0128080723807215
0.0128865493461489
0.0127351386472582
0.0124459052458405
0.0121118407696485
0.0117978304624557
0.0115107502788305
0.0111806336790323
0.0106649603694677
0.0097798099741339
0.0083509087562561
0.0062676472589373
0.0035172225907444
0.0001876782625913
-0.0035494295880198
-0.0074614570476114
-0.0112798865884542
-0.0147306472063064
-0.0175651647150516
-0.0195877142250537
-0.0206767283380031
-0.0207950714975595
-0.0199886709451675
-0.0183789208531379
-0.0161519143730402
-0.0135437399148941
-0.0108179692178964
-0.008232619613409
-0.0060067949816584
-0.0043018292635679
-0.0032144915312528
-0.0027731927111744
-0.0029388833791017
-0.0036123236641287
-0.0046444088220596
-0.0058521749451756
-0.007048163563013
-0.0080798286944627
-0.0088615762069821
-0.0093837305903434
-0.009693281725049
-0.0098557844758033
-0.0099187223240733
-0.009890466928482
-0.0097403237596154
-0.0094169750809669
-0.0088707627728581
-0.0080696288496255
-0.0070088570937514
-0.0057146660983562
-0.0042424220591783
-0.0026713572442531
-0.0010956861078739
0.0003883019089698
0.0016942601650953
0.0027457419782876
0.0034597441554069
0.0037241112440824
0.0033860206604003
0.0022635459899902
0.000177688896656
-0.0030056256800889
-0.0073309363797307
-0.0127173215150833
-0.0189470686018466
-0.0256830099970102
-0.0325075015425682
-0.0389752686023712
-0.0446693003177642
-0.049249242991209
-0.0524876862764358
-0.0542921312153339
-0.0547090210020542
-0.0539038628339767
-0.052119068801403
-0.0496260225772857
-0.046691246330738
-0.0435617379844188
-0.0404556952416896
-0.0375462770462036
-0.0349422059953212
-0.0326752215623855
-0.0307005289942026
-0.0289089530706405
-0.0271460488438606
-0.0252375062555074
-0.0230186618864536
-0.0203603319823741
-0.0171846989542245
-0.0134699959307909
-0.0092456378042697
-0.0045828055590391
0.0004105009138584
0.0055909007787704
0.0107899047434329
0.0158343352377414
0.0205682702362537
0.0248709004372358
0.0286663509905338
0.0319249890744686
0.0346592366695404
0.0369150899350643
0.0387594997882843
0.0402667745947837
0.0415087006986141
0.0425492115318775
0.0434388928115367
0.0442013293504715
0.0448057800531387
0.0451370552182197
0.0449903234839439
0.0441066771745681
0.0422360971570014
0.0392033644020557
0.0349604114890098
0.0296154357492923
0.0234318003058433
0.0167969465255737
0.0101692918688058
0.0040138401091098
-0.0012591276317834
-0.0053382981568574
-0.0080334302037954
-0.0092785265296697
-0.0091265141963958
-0.0077424142509698
-0.0053860284388065
-0.0023760385811328
0.0009533632546663
0.0042892973870038
0.0073716733604669
0.0100215589627623
0.0121581172570586
0.0137987853959202
0.0150449527427554
0.0160574726760387
0.0170270036906003
0.0181433763355016
0.0195696838200092
0.0214237328618764
0.0237608589231967
0.0265591293573379
0.0297200307250022
0.0330896079540252
0.0364904031157493
0.0397503450512886
0.0427206270396709
0.0452842600643634
0.0473610907793045
0.0489096119999885
0.0499213486909866
0.0504093207418918
0.0503976270556449
0.0499155111610889
0.0489952452480793
0.047674011439085
0.0459957420825958
0.0440066941082477
0.0417470224201679
0.0392426028847694
0.0364923849701881
0.0334495306015014
0.0300064478069543
0.0259967613965272
0.0212212186306715
0.0154953896999359
0.0087079033255577
0.0008699260652065
-0.0078618582338094
-0.0171914361417293
-0.026710757985711
-0.0359436422586441
-0.0444056093692779
-0.0516682006418705
-0.057407584041357
-0.0614310353994369
-0.0636884421110153
-0.0642728060483932
-0.0634079203009605
-0.0614209473133087
-0.0587018616497516
-0.0556553453207016
-0.0526534616947174
-0.0499977320432662
-0.0478924140334129
-0.0464273169636726
-0.0455716401338577
-0.045181892812252
-0.0450299009680748
-0.044851217418909
-0.0443966276943683
-0.0434672385454177
-0.04193065315485
-0.0397257804870605
-0.0368603430688381
-0.0334011018276214
-0.029457289725542
-0.0251613855361938
-0.0206529609858989
-0.0160686504095792
-0.0115383230149745
-0.0071829780936241
-0.0031076418235898
0.0006103720515966
0.0039264857769012
0.0068211611360311
0.009290287271142
0.0113417841494083
0.0129961753264069
0.0142890671268105
0.0152705898508429
0.0159970056265592
0.0165153294801712
0.0168423578143119
0.0169429667294025
0.0167176127433776
0.0160097889602184
0.014638153836131
0.0124424006789922
0.0093257687985897
0.0052819605916738
0.0004016328603029
-0.005133300088346
-0.0110598374158144
-0.0170527547597885
-0.0227561220526695
-0.0278235040605068
-0.0319567844271659
-0.0349355041980743
-0.0366355143487453
-0.037036694586277
-0.0362179353833198
-0.0343409664928913
-0.0316287763416767
-0.0283394027501344
-0.0247325971722602
-0.0210396666079759
-0.0174482036381959
-0.0140937957912683
-0.0110507346689701
-0.0083279637619853
-0.0058745457790791
-0.0035945735871791
-0.0013704104349017
0.000912738032639
0.0033475053496658
0.0059904134832322
0.008854609914124
0.0119124660268425
0.0151049327105283
0.0183514337986707
0.021560251712799
0.0246402993798255
0.0275097452104091
0.0300990585237741
0.0323523804545402
0.034230887889862
0.0357153750956058
0.0368046537041664
0.037510622292757
0.0378524996340274
0.0378552116453647
0.0375518724322319
0.0369831845164299
0.0361925438046455
0.0352190025150775
0.0340836569666862
0.032766368240118
0.0311805102974176
0.0291647687554359
0.0265080500394105
0.0230021234601736
0.0185030288994312
0.0129841165617108
0.0065666874870657
-0.0004800034221261
-0.0077680316753685
-0.0148399844765663
-0.0212262589484453
-0.0265034288167953
-0.0303475297987461
-0.0325720757246017
-0.033143762499094
-0.0321776010096073
-0.0299177039414644
-0.0267066620290279
-0.0229434389621019
-0.0190322790294885
-0.0153312105685472
-0.0121133532375097
-0.0095490049570798
-0.0077061345800757
-0.0065623531118035
-0.0060228863731026
-0.0059412326663732
-0.0061403410509228
-0.0064325290732085
-0.0066372118890285
-0.0065958518534898
-0.0061835520900785
-0.0053213257342576
-0.0039882380515336
-0.0022203638218343
-9.397603571414948e-05
0.0022921627387404
0.0048285396769642
0.0074075926095247
0.0099379802122712
0.0123520623892545
0.0146048134192824
0.0166699811816215
0.0185353569686412
0.0201963037252426
0.0216518770903348
0.0229061469435691
0.0239690747112035
0.0248494893312454
0.0255405940115451
0.0260048285126686
0.0261603910475969
0.0258722845464944
0.0249597914516925
0.0232272502034902
0.0205104444175958
0.01672407053411
0.0118956780061125
0.0061769662424921
-0.0001668040640652
-0.0067834509536623
-0.013272319920361
-0.0192283689975738
-0.0242842193692922
-0.0281491726636886
-0.0306432712823152
-0.0317151769995689
-0.0314380414783954
-0.0299905464053154
-0.0276318900287151
-0.0246732477098703
-0.0214451439678668
-0.0182636529207229
-0.0153996795415878
-0.0130536714568734
-0.0113396551460027
-0.0102830529212951
-0.009831964969635
-0.0098758293315768
-0.0102662090212106
-0.010841523297131
-0.011455662548542
-0.0119978822767734
-0.0123937940225005
-0.0125951031222939
-0.0125709101557731
-0.0123029192909598
-0.0117798224091529
-0.0109903188422322
-0.0099208932369947
-0.0085605243220925
-0.0069070421159267
-0.0049729067832231
-0.0027890615165233
-0.0004017781466245
0.0021350206807255
0.0047620693221688
0.0074110170826315
0.0100030414760112
0.0124501287937164
0.0146498978137969
0.0164721217006444
0.0177487172186374
0.018280679360032
0.0178663171827793
0.0163450185209512
0.0136428233236074
0.0098058246076107
0.0050132069736719
-0.0004342952743172
-0.0061472868546843
-0.011691266670823
-0.0166364051401615
-0.0206113848835229
-0.0233465898782014
-0.0246950555592775
-0.0246355980634689
-0.0232641715556383
-0.0207755137234926
-0.0174377281218767
-0.0135615058243274
-0.0094658844172954
-0.0054465942084789
-0.0017506405711174
0.0014455541968345
0.0040519721806049
0.0060682222247123
0.007573265582323
0.008701654151082
0.0096103977411985
0.0104495286941528
0.0113449562340974
0.0123913455754518
0.0136510170996189
0.015156215056777
0.0169120915234088
0.0188988056033849
0.0210733171552419
0.0233726799488067
0.0257192011922597
0.0280261859297752
0.0302048791199922
0.0321747846901416
0.0338762216269969
0.0352757833898067
0.0363586209714412
0.0371185727417469
0.0375564694404602
0.0376813076436519
0.0375014394521713
0.0369987078011035
0.0360966473817825
0.0346447750926017
0.0324326679110527
0.0292318686842918
0.0248537175357341
0.0192072186619043
0.0123415049165487
0.0044638561084866
-0.0040730559267103
-0.012817389331758
-0.0212819408625364
-0.0290012769401073
-0.0355750359594821
-0.0406996496021747
-0.0441855490207672
-0.0459615811705589
-0.0460738688707351
-0.0446779243648052
-0.0420209355652332
-0.0384166911244392
-0.0342119634151458
-0.0297460556030273
-0.0253147520124912
-0.0211450178176164
-0.0173786543309688
-0.0140695888549089
-0.0111992470920085
-0.0086986944079399
-0.0064668133854866
-0.0043883752077817
-0.002354223281145
-0.0002772323787212
0.0018996261060237
0.0042010163888335
0.0066213831305503
0.0091314492747187
0.0116861490532755
0.014229105785489
0.0166951101273298
0.0190175902098417
0.0211388543248176
0.0230130404233932
0.0246012061834335
0.0258678365498781
0.0267840810120105
0.0273347366601228
0.0275241509079933
0.0273739527910947
0.0269024465233087
0.0260880142450332
0.0248375758528709
0.0229788273572921
0.020281720906496
0.0165078975260257
0.0114771332591772
0.0051313387230038
-0.0024211280979216
-0.0108957160264253
-0.0198616869747638
-0.0287972837686538
-0.0371509864926338
-0.0443998500704765
-0.0501016713678836
-0.0539378002285957
-0.0557426810264587
-0.0555158630013465
-0.0534146204590797
-0.0497279912233352
-0.0448366925120353
-0.0391689203679561
-0.0331575646996498
-0.0271951090544462
-0.0215895734727382
-0.0165365133434534
-0.0121137779206037
-0.0082904230803251
-0.0049430802464485
-0.0018818937242031
0.0011131428182125
0.0042527224868535
0.0077063851058483
0.0115829007700085
0.0159205570816993
0.0206857919692993
0.025781137868762
0.0310615394264459
0.0363543480634689
0.0414796024560928
0.0462697222828865
0.0505826920270919
0.0543055273592472
0.0573566667735576
0.0596924945712089
0.0613121353089809
0.0622553639113903
0.0625940784811973
0.062419194728136
0.061825692653656
0.0608981661498546
0.0596935972571373
0.0582160353660583
0.0563852712512016
0.0540151223540306
0.0508223995566368
0.046474028378725
0.0406590923666954
0.033165980130434
0.0239498764276504
0.0131745133548974
0.0012133847922086
-0.0113901672884821
-0.0239913202822208
-0.0359232164919376
-0.0465724915266037
-0.0554421618580818
-0.0621964931488037
-0.0666849911212921
-0.068944476544857
-0.0691803991794586
-0.0677303969860076
-0.0650131180882453
-0.0614734888076782
-0.0575369223952293
-0.05357126891613
-0.0498529076576232
-0.0465415455400943
-0.0436711572110652
-0.0411624386906623
-0.0388535931706428
-0.0365388616919517
-0.0340079143643379
-0.0310823395848274
-0.0276413969695568
-0.0236322507262229
-0.0190688855946064
-0.0140222031623125
-0.0086008897051215
-0.0029329021926969
0.0028443110641092
0.0085930731147527
0.0141879357397556
0.0195238254964351
0.0245182067155838
0.0291093196719884
0.0332520082592964
0.0369150824844837
0.0400809645652771
0.0427436903119087
0.0449051521718502
0.0465738177299499
0.0477674379944801
0.0485166013240814
0.0488632582128047
0.0488439686596393
0.0484534688293933
0.0476041808724403
0.046104110777378
0.0436674132943153
0.039962749928236
0.0346910059452056
0.0276714190840721
0.0189113263040781
0.0086401347070932
-0.0026986207813024
-0.0144921019673347
-0.026029160246253
-0.0365814268589019
-0.0454788655042648
-0.0521737411618232
-0.0562939718365669
-0.0576831921935081
-0.056416843086481
-0.0527879744768142
-0.047267310321331
-0.0404431521892547
-0.0329482555389404
-0.0253839921206235
-0.0182482525706291
-0.011874689720571
-0.0063955588266253
-0.0017380844801664
0.0023428592830896
0.0061998423188924
0.0102106723934412
0.0147013124078512
0.0198849271982908
0.0258199106901884
0.0324004851281642
0.0393852107226848
0.0464450977742672
0.0532147176563739
0.0593420900404453
0.0645325779914856
0.0685792416334152
0.0713765323162078
0.0729198604822158
0.0732921212911605
0.072635680437088
0.0711152106523513
0.0688856020569801
0.0660713911056518
0.0627535283565521
0.0589652620255947
0.0547049827873706
0.0499628186225891
0.0447472855448722
0.0391007214784622
0.0330969095230102
0.0268170163035392
0.0203057378530502
0.0135213807225227
0.0063038319349288
-0.0016179606318473
-0.0105741694569587
-0.0208708643913269
-0.0326967164874076
-0.0460465922951698
-0.0606876388192176
-0.0761720761656761
-0.091883510351181
-0.1071067303419113
-0.1211106851696968
-0.1332288831472396
-0.1429264098405838
-0.1498476564884185
-0.1538403034210205
-0.1549567580223083
-0.1534359902143478
-0.1496683359146118
-0.1441463530063629
-0.1374047696590423
-0.1299550831317901
-0.1222262009978294
-0.1145268976688385
-0.107036754488945
-0.0998153835535049
-0.0928203165531158
-0.0859332382678985
-0.078995332121849
-0.0718485787510871
-0.0643716230988502
-0.0564992502331733
-0.048226922750473
-0.0396045595407485
-0.0307216383516788
-0.0216919407248497
-0.0126459505409002
-0.0037266025319695
0.0049214763566851
0.0131645882502198
0.0208840947598218
0.0279786344617605
0.0343728959560394
0.0400274991989135
0.0449419021606445
0.0491480305790901
0.0526998415589332
0.0556652098894119
0.0581186227500438
0.0601332411170005
0.0617771968245506
0.0631150975823402
0.064209334552288
0.0651165395975112
0.0658743679523468
0.0664710626006126
0.0668026506900787
0.0666430667042732
0.0656518265604972
0.0634251683950424
0.0595790892839431
0.0538421310484409
0.0461345016956329
0.0366137251257896
0.0256747528910636
0.0139064267277717
0.0020175576210021
-0.009252144023776
-0.0192213617265224
-0.0273407828062772
-0.0332425087690353
-0.0367667749524116
-0.0379667431116104
-0.0370893888175487
-0.034535564482212
-0.0308076702058315
-0.0264510624110698
-0.0219930559396743
-0.0178873613476753
-0.0144719704985618
-0.0119429230690002
-0.0103461295366287
-0.00958888605237
-0.0094650760293006
-0.0096875540912151
-0.0099255293607711
-0.0098449550569057
-0.0091498345136642
-0.0076174661517143
-0.0051199942827224
-0.0016312263906002
0.0027807205915451
0.0079723931849002
0.0137477554380893
0.0198803283274173
0.0261355526745319
0.0322918072342872
0.0381567813456058
0.0435787849128246
0.0484560057520866
0.052743062376976
0.0564511455595493
0.0596424974501132
0.0624159090220928
0.0648780465126037
0.0671118199825286
0.0691575929522514
0.0710069239139556
0.0725973770022392
0.073799155652523
0.0743968486785888
0.0740854516625404
0.0724989846348762
0.0692702084779739
0.0641060322523117
0.0568636730313301
0.047612652182579
0.0366671420633792
0.0245752036571502
0.0120578538626432
-8.699856698513031e-05
-0.011082949116826
-0.0202584210783243
-0.0271140709519386
-0.031367041170597
-0.0329650938510894
-0.0320746824145317
-0.029049452394247
-0.0243831351399421
-0.0186511240899562
-0.0124474558979272
-0.0063238702714443
-0.0007372628897428
0.0039884876459836
0.0076819797977805
0.0103203197941184
0.0120023908093571
0.0129120144993066
0.0132826678454875
0.0133619243279099
0.013374950736761
0.0134958866983652
0.0138306962326169
0.0144123304635286
0.0152137083932757
0.0161764547228813
0.0172416418790817
0.0183696970343589
0.0195466708391904
0.0207811370491981
0.0220946725457906
0.0235045254230499
0.0250032041221857
0.0265493467450141
0.02807636000216
0.0295097474008798
0.0307811424136161
0.0318355448544025
0.0326348170638084
0.0331597924232482
0.0334085822105407
0.0333828926086425
0.0330579504370689
0.0323439240455627
0.0310549661517143
0.0289082620292902
0.0255665760487318
0.020708518102765
0.0141012072563171
0.0056669674813747
-0.0044642761349678
-0.0159373432397842
-0.0281989760696887
-0.0405607894062995
-0.052284300327301
-0.0626729056239128
-0.0711518079042434
-0.0773232579231262
-0.0809955224394798
-0.0821877866983413
-0.0811140984296798
-0.0781473442912101
-0.0737655311822891
-0.0684928968548774
-0.0628471374511718
-0.0572921261191368
-0.0521952137351036
-0.0477935969829559
-0.0441755503416061
-0.0412805378437042
-0.0389182232320308
-0.0368025265634059
-0.0345936939120292
-0.0319420062005519
-0.0285320747643709
-0.0241274610161781
-0.0186083614826202
-0.0119907492771744
-0.004424013197422
0.0038244873285293
0.012392695993185
0.0208589695394039
0.0287897381931543
0.0357881337404251
0.0415315553545951
0.0457975640892982
0.0484796985983848
0.0495898090302944
0.0492460317909717
0.0476503819227218
0.0450606569647789
0.0417626500129699
0.0380464047193527
0.0341835282742977
0.0303981080651283
0.0268236584961414
0.0234520696103572
0.0201027058064937
0.0164377279579639
0.0120239593088626
0.0064253136515617
-0.0006948858499526
-0.0094837918877601
-0.0198416505008935
-0.0314119905233383
-0.0436210818588733
-0.055754080414772
-0.0670498982071876
-0.0767965763807296
-0.0844109654426574
-0.0894945412874221
-0.0918664336204528
-0.0915748327970504
-0.0888829976320266
-0.0842291787266731
-0.0781673863530159
-0.0713003426790237
-0.0642157942056655
-0.0574323460459709
-0.0513552539050579
-0.0462437607347965
-0.0421963222324848
-0.0391581729054451
-0.0369487293064594
-0.035302247852087
-0.0339104160666465
-0.0324574671685695
-0.0306528788059949
-0.0282681286334991
-0.0251663960516452
-0.0213108044117689
-0.0167525485157966
-0.0116111133247613
-0.0060539692640304
-0.0002751965075731
0.0055266125127673
0.0111686130985617
0.0164984297007322
0.0214003827422857
0.0257962271571159
0.0296439174562692
0.0329351015388965
0.0356933437287807
0.0379692018032074
0.0398260429501533
0.0413239113986492
0.0425106473267078
0.0434123799204826
0.0440101996064186
0.0442040488123893
0.0437813065946102
0.0424171760678291
0.0397253483533859
0.0353491231799125
0.0290624033659696
0.020851606503129
0.0109588634222745
-0.0001220349222421
-0.0116958133876323
-0.0229556635022163
-0.0330941826105117
-0.0414062291383743
-0.0473635904490947
-0.0506557002663612
-0.051199272274971
-0.0491256304085254
-0.0447527319192886
-0.0385417081415653
-0.0310393050312995
-0.0228149518370628
-0.0144005492329597
-0.0062397345900535
0.0013467259705066
0.0081786438822746
0.0142191722989082
0.0195571221411228
0.0243672952055931
0.0288645252585411
0.0332667827606201
0.0377669334411621
0.0425096675753593
0.0475769229233264
0.0529841259121894
0.0586831048130989
0.0645686835050582
0.0704911425709724
0.0762755423784256
0.0817412436008453
0.0867149159312248
0.0910422801971435
0.0946031883358955
0.0973187983036041
0.0991439372301101
0.1000578179955482
0.1000633388757705
0.0991905033588409
0.0974990427494049
0.0950777232646942
0.0920399650931358
0.0885176509618759
0.0846490710973739
0.0805525407195091
0.076283685863018
0.071789376437664
0.0668846145272255
0.0612739026546478
0.054616741836071
0.0466160103678703
0.0371025502681732
0.0260967332869768
0.0138347819447517
0.0007544793188571
-0.0125568890944123
-0.0254406426101923
-0.037250779569149
-0.0474263206124305
-0.0555459707975387
-0.0613644421100616
-0.0648291036486625
-0.0660763010382652
-0.0654074698686599
-0.0632453933358192
-0.0600747801363468
-0.0563821047544479
-0.0526094995439052
-0.049122966825962
-0.0461922660470008
-0.0439864844083786
-0.0425817146897316
-0.0419673509895801
-0.0420475602149963
-0.0426462739706039
-0.0435207560658454
-0.0443857796490192
-0.044947862625122
-0.0449414774775505
-0.0441597625613212
-0.0424761287868022
-0.0398522093892097
-0.036336001008749
-0.0320583842694759
-0.0272222030907869
-0.022075455635786
-0.0168761610984802
-0.0118627343326807
-0.0072360225021839
-0.0031498223543167
0.0002961289137601
0.0030605029314756
0.0051581896841526
0.0066528227180242
0.0076459925621747
0.0082623828202486
0.0086294841021299
0.0088466107845306
0.0089408289641141
0.0088254194706678
0.00828817486763
0.0070241726934909
0.0047054998576641
0.0010667107999324
-0.004018522799015
-0.0104878842830657
-0.0180767588317394
-0.0263420064002275
-0.0347171053290367
-0.0425845645368099
-0.0493530668318271
-0.0545308217406272
-0.0577814206480979
-0.0589514374732971
-0.0580760017037391
-0.0553693622350692
-0.051196165382862
-0.0460247211158275
-0.040372721850872
-0.0347533524036407
-0.0296248607337474
-0.025345979258418
-0.0221426971256732
-0.0200922563672065
-0.0191253814846277
-0.019045440480113
-0.0195624064654111
-0.0203361809253692
-0.0210185572504997
-0.0212859101593494
-0.0208694767206907
-0.0195874609053134
-0.0173638612031936
-0.0142247658222913
-0.0102804638445377
-0.0057012094184756
-0.0006917798891663
0.00453069107607
0.0097565297037363
0.0148018458858132
0.0195235460996627
0.023830410093069
0.0276889465749263
0.0311226062476634
0.0342049226164817
0.0370476990938186
0.0397813618183136
0.0425249747931957
0.0453538373112678
0.0482709258794784
0.0511774942278862
0.0538460165262222
0.0559162646532058
0.0569333732128143
0.0564258061349391
0.0540032386779785
0.049446202814579
0.042764563113451
0.034217432141304
0.0242938008159399
0.0136562502011656
0.0030591981485486
-0.0067446557804942
-0.0150946797803044
-0.021491078659892
-0.0256343577057123
-0.0274394191801548
-0.0270263124257326
-0.0246902201324701
-0.020858122035861
-0.016037905588746
-0.0107628647238016
-0.0055359811522066
-0.0007812697440385
0.0031910703983157
0.0062030777335166
0.0082125831395387
0.0093037392944097
0.0096612386405467
0.0095277540385723
0.0091581121087074
0.0087847914546728
0.0085965152829885
0.0087264021858572
0.0092491898685693
0.0101850675418972
0.0115017443895339
0.0131133254617452
0.0148850362747907
0.0166470501571893
0.0182141028344631
0.019408993422985
0.0200868193060159
0.0201534740626811
0.019570367410779
0.018345246091485
0.0165192820131778
0.0141568072140216
0.0113376649096608
0.008149011991918
0.0046676509082317
0.0009295591153204
-0.003098911140114
-0.0075272293761372
-0.0125161856412887
-0.0182277522981166
-0.0247598476707935
-0.0320857316255569
-0.0400212407112121
-0.0482293590903282
-0.056258674710989
-0.0636043474078178
-0.0697731599211692
-0.0743387639522552
-0.0769838169217109
-0.0775288641452789
-0.0759464353322982
-0.0723595842719078
-0.0670264810323715
-0.0603131838142871
-0.0526564829051494
-0.044520266354084
-0.0363489165902137
-0.0285218227654695
-0.0213159583508968
-0.0148837007582187
-0.0092525631189346
-0.0043477825820446
-2.411380410194397e-05
0.0039084125310182
0.0076635237783193
0.0114538315683603
0.0154623910784721
0.0198198650032281
0.0245924703776836
0.029777705669403
0.0353064313530921
0.0410529896616935
0.0468513518571853
0.0525160133838653
0.0578667074441909
0.0627500712871551
0.0670510306954383
0.0706940740346908
0.0736406594514846
0.0758864134550094
0.0774578154087066
0.0784069299697876
0.0788000524044036
0.0786978751420974
0.0781262069940567
0.077040784060955
0.0753018856048584
0.0726784318685531
0.0688904300332069
0.0636810809373855
0.0568961575627327
0.0485454872250556
0.0388284102082252
0.0281208287924528
0.0169350430369377
0.0058614811860024
-0.004500491078943
-0.0136100221425294
-0.0210391748696565
-0.0265098828822374
-0.0299118570983409
-0.0313005223870277
-0.0308768525719642
-0.0289537589997053
-0.025913767516613
-0.022163487970829
-0.0180902257561683
-0.0140224900096654
-0.0102004781365394
-0.0067638680338859
-0.0037506860680878
-0.0011017965152859
0.0013218875974416
0.0037065632641315
0.0062431944534182
0.0090853422880172
0.0123199597001075
0.0159570910036563
0.0199325606226921
0.0241169277578592
0.0283292327076196
0.0323570892214775
0.0359834060072898
0.0390124320983886
0.0412845462560653
0.0426804199814796
0.0431238897144794
0.0425867699086666
0.0410950370132923
0.0387324802577495
0.0356328748166561
0.0319592356681823
0.0278761051595211
0.02351800724864
0.0189541168510913
0.0141564831137657
0.008991003036499
0.0032444670796394
-0.0033159181475639
-0.0108658671379089
-0.0194570980966091
-0.0289820656180381
-0.0391720831394195
-0.0496235415339469
-0.0598475709557533
-0.0693349093198776
-0.0776212885975837
-0.0843377858400344
-0.0892397686839103
-0.0922164097428321
-0.0932876393198967
-0.0925953462719917
-0.0903882086277008
-0.0869956240057945
-0.0827906429767608
-0.0781483724713325
-0.0734099596738815
-0.0688562095165252
-0.0646871179342269
-0.0610067099332809
-0.0578177385032177
-0.0550321005284786
-0.0524971559643745
-0.0500272959470748
-0.0474332571029663
-0.0445510037243366
-0.0412675775587558
-0.0375369600951671
-0.0333832018077373
-0.0288916416466236
-0.0241894721984863
-0.0194205846637487
-0.0147255063056945
-0.0102317910641431
-0.0060499738901853
-0.0022697728127241
0.001045536249876
0.0038630943745374
0.0061789629980921
0.0080147897824645
0.0094098960980772
0.0103977965191006
0.0109696667641401
0.0110440012067556
0.0104598151519894
0.0089995209127664
0.0064413319341838
0.0026302090846002
-0.0024615549482405
-0.0087068285793066
-0.0158267673105001
-0.0234175752848386
-0.0309978164732456
-0.0380659289658069
-0.0441548936069011
-0.0488766282796859
-0.0519547462463378
-0.0532455034554004
-0.0527444891631603
-0.0505789965391159
-0.0469886101782321
-0.0422955378890037
-0.0368641018867492
-0.0310531593859195
-0.0251751579344272
-0.0194720588624477
-0.014104701578617
-0.0091501921415328
-0.0046074986457824
-0.0004120245575904
0.003542061895132
0.0073764733970165
0.0112066008150577
0.0151258967816829
0.0191979855298995
0.0234532430768013
0.0278870537877082
0.032463788986206
0.0371277146041393
0.0418133176863193
0.0464482642710208
0.0509518757462501
0.0552369654178619
0.0592169724404811
0.0628144145011901
0.0659677684307098
0.0686376243829727
0.0708116367459297
0.0725039839744567
0.0737456083297729
0.0745608806610107
0.0749312043190002
0.0747631639242172
0.073883019387722
0.0720640048384666
0.0690808370709419
0.0647743642330169
0.0591043308377265
0.0521806590259075
0.0442712008953094
0.0357808135449886
0.0272021666169166
0.0190514307469129
0.0118059087544679
0.0058536939322948
0.0014581978321075
-0.0012611076235771
-0.0023291297256946
-0.0018970407545566
-0.0002143196761608
0.0024008899927139
0.0055949259549379
0.0090159177780151
0.0123483370989561
0.015339758247137
0.0178177077323198
0.0196944735944271
0.0209617540240287
0.0216793082654476
0.0219589285552501
0.0219440758228302
0.0217875819653272
0.0216308031231164
0.0215891096740961
0.0217460840940475
0.0221524685621261
0.0228283125907182
0.0237695351243019
0.0249506719410419
0.0263172723352909
0.02777935937047
0.0292192976921796
0.0305112674832344
0.0315408147871494
0.032219260931015
0.0324924103915691
0.0323430933058261
0.0317895673215389
0.0308817457407712
0.0296949259936809
0.0283162724226713
0.0268193800002336
0.0252331551164388
0.0235161650925874
0.0215412732213735
0.0190984513610601
0.0159287340939044
0.0117857679724693
0.0065028816461563
4.625692963600159e-05
-0.0074566174298524
-0.0157190263271331
-0.0243264995515346
-0.032791331410408
-0.0406191274523735
-0.0473710745573043
-0.0527100153267383
-0.05642781406641
-0.0584554336965084
-0.0588572695851326
-0.0578149929642677
-0.055606685578823
-0.052577082067728
-0.0490956492722034
-0.0455119311809539
-0.0421171858906745
-0.0391167104244232
-0.0366174988448619
-0.0346302576363086
-0.0330829583108425
-0.0318471752107143
-0.0307714641094207
-0.0297086220234632
-0.028532700613141
-0.0271483939141035
-0.0254931077361106
-0.0235381852835416
-0.0212954152375459
-0.0188210420310497
-0.0162095166742801
-0.0135794281959533
-0.0110560795292258
-0.0087527511641383
-0.0067532137036323
-0.0051008965820074
-0.0037979558110237
-0.002813434228301
-0.0020971465855836
-0.0015930347144603
-0.0012467168271541
-0.0010061860084533
-0.000819930806756
-0.0006400253623723
-0.0004318542778491
-0.0001822467893362
0.000101389363408
0.0003945250064134
0.0006492938846349
0.0007798075675964
0.0006524883210659
9.162910282611848e-05
-0.0010985527187585
-0.003098165616393
-0.0060271639376878
-0.0099035361781716
-0.0146204037591815
-0.0199499577283859
-0.0255683176219463
-0.0310951247811317
-0.0361435264348983
-0.0403681620955467
-0.04349996894598
-0.0453662611544132
-0.0458982735872268
-0.045129656791687
-0.0431876257061958
-0.0402751639485359
-0.0366451703011989
-0.0325709767639637
-0.0283169336616992
-0.0241119693964719
-0.0201309230178594
-0.0164830088615417
-0.0132029261440038
-0.0102522438392043
-0.0075395819731056
-0.0049487445503473
-0.0023617455735802
0.0003231801092624
0.0031772716902196
0.0062341634184122
0.0094905914738774
0.0129110421985387
0.0164340175688266
0.0199801996350288
0.023462863638997
0.0267966277897357
0.029902035370469
0.0327125117182731
0.0351842418313026
0.0372977033257484
0.0390478335320949
0.0404323749244213
0.0414477288722991
0.0420946590602397
0.0423869639635086
0.0423542857170105
0.0420397333800792
0.0414980202913284
0.0407934598624706
0.0399930104613304
0.0391561575233936
0.0383271500468254
0.0375295802950859
0.0367662124335765
0.0360268354415893
0.0352889373898506
0.0344979129731655
0.033543512225151
0.0322568155825138
0.0304318647831678
0.0278631187975406
0.0243894308805465
0.0199353173375129
0.0145406275987625
0.0083722816780209
0.0017153602093458
-0.0050578359514474
-0.0115388007834553
-0.0173411611467599
-0.0221483893692493
-0.0257446728646755
-0.0280326195061206
-0.0290371999144554
-0.0288935676217079
-0.0278221704065799
-0.0260953977704048
-0.0239998716861009
-0.02180259488523
-0.019727200269699
-0.0179399065673351
-0.0165431872010231
-0.015573862940073
-0.0150030069053173
-0.0147417057305574
-0.014657124876976
-0.0145939337089657
-0.0143962474539875
-0.013931930065155
-0.0131150260567665
-0.0119159240275621
-0.0103564094752073
-0.0084961196407675
-0.0064184926450252
-0.0042187897488474
-0.0019917173776775
0.0001804148778319
0.0022333767265081
0.0041204877197742
0.0058105611242353
0.0072840112261474
0.008527398109436
0.009533142670989
0.010304732248187
0.0108561944216489
0.011202460154891
0.0113525399938225
0.0113138137385249
0.0111014302819967
0.0107434755191206
0.0102800521999597
0.0097589902579784
0.0092281810939311
0.0087251728400588
0.0082686115056276
0.0078499913215637
0.0074205650016665
0.0068796556442976
0.0060764476656913
0.0048298351466655
0.0029609957709908
0.000328647904098
-0.003139242529869
-0.0074210129678249
-0.0123894205316901
-0.0178158227354288
-0.0233921166509389
-0.0287702325731515
-0.0336091890931129
-0.0376145951449871
-0.040565438568592
-0.0423317998647689
-0.0428856238722801
-0.0423009507358074
-0.0407389439642429
-0.0384216159582138
-0.0356050543487072
-0.0325561985373497
-0.0295287817716598
-0.0267368201166391
-0.0243295766413211
-0.0223749000579118
-0.0208583045750856
-0.0196973849087953
-0.018763368949294
-0.0179051384329795
-0.0169727485626935
-0.0158350616693496
-0.0143911158666014
-0.0125767020508646
-0.0103643592447042
-0.0077578090131282
-0.0047883372753858
-0.00151645578444
0.0019686799496412
0.0055568274110555
0.0091285789385437
0.0125698903575539
0.0157860592007637
0.0187109038233757
0.0213100295513868
0.0235789380967617
0.0255363993346691
0.0272143241018056
0.0286490675061941
0.0298777110874652
0.0309374593198299
0.0318660400807857
0.032699380069971
0.0334634929895401
0.0341675579547882
0.0348056554794311
0.0353634990751743
0.0358219854533672
0.0361533612012863
0.0363095216453075
0.0362070500850677
0.0357192978262901
0.0346836857497692
0.032925046980381
0.0302921086549758
0.0267014577984809
0.0221775434911251
0.0168739072978496
0.0110643003135919
0.0051048751920461
-0.0006163651123642
-0.0057281581684947
-0.0099183153361082
-0.01296619605273
-0.0147608341649174
-0.0153042338788509
-0.0147023070603609
-0.0131462691351771
-0.0108881574124097
-0.0082143181934952
-0.0054175546392798
-0.0027670972049236
-0.0004789363592863
0.0013058367185294
0.0025276225060224
0.0031999642960727
0.0033934819512069
0.0032205316238105
0.0028213062323629
0.0023474325425922
0.0019436399452388
0.0017319209873676
0.0018027233891189
0.0022125672549009
0.0029835170134902
0.0041031283326447
0.0055254288017749
0.0071734800003468
0.008947167545557
0.0107392743229866
0.0124516990035772
0.0140016824007034
0.0153222111985087
0.0163633711636066
0.0170938968658447
0.0175019241869449
0.0175944380462169
0.0173935629427433
0.0169315431267023
0.0162478480488061
0.0153866410255432
0.0143928723409771
0.013308634981513
0.0121691320091485
0.0109955156221985
0.0097813159227371
0.0084708239883184
0.0069386065006256
0.0049900617450475
0.0023947041481733
-0.001057194545865
-0.0054950956255197
-0.0109228882938623
-0.0171987116336822
-0.0240439623594284
-0.0310750752687454
-0.0378494262695312
-0.0439198315143585
-0.0488876551389694
-0.0524449720978736
-0.0544016733765602
-0.0546976439654827
-0.0534057319164276
-0.0507259182631969
-0.0469643957912921
-0.0424978099763393
-0.037728451192379
-0.0330364219844341
-0.0287373177707195
-0.025052523240447
-0.0220929477363824
-0.0198575742542743
-0.0182505529373884
-0.0171103626489639
-0.0162370931357145
-0.0154146160930395
-0.014432979747653
-0.0131114497780799
-0.0113215502351522
-0.009006580337882
-0.0061850994825363
-0.0029350966215133
0.0006283009424805
0.0043719350360333
0.0081602670252323
0.0118674440309405
0.0153837958350777
0.0186201073229312
0.0215141642838716
0.0240343362092971
0.0261745825409889
0.0279452502727508
0.0293657332658767
0.0304605662822723
0.0312551856040954
0.0317678190767765
0.0320038497447967
0.0319601334631443
0.0316335074603557
0.0310181230306625
0.0300857182592153
0.0287621393799781
0.0269181169569492
0.0243826359510421
0.0209761913865804
0.0165552049875259
0.0110593875870108
0.0045521394349634
-0.002758789807558
-0.0105282682925462
-0.0183104798197746
-0.0256194937974214
-0.0319959074258804
-0.0370614193379879
-0.0405542999505996
-0.0423467978835105
-0.0424467138946056
-0.0409867279231548
-0.0382061973214149
-0.0344256423413753
-0.030011810362339
-0.0253365263342857
-0.0207384023815393
-0.0164934992790222
-0.0127929858863353
-0.0097278747707605
-0.0072892680764198
-0.0053869020193815
-0.0038769133388996
-0.0025904290378093
-0.0013572294265031
-2.035871148109436e-05
0.0015538558363914
0.0034636389464139
0.0057600624859333
0.0084431851282715
0.0114680975675582
0.0147569878026843
0.0182124227285385
0.0217279698699712
0.0251955855637788
0.0285134073346853
0.0315920822322368
0.0343553125858306
0.0367395281791687
0.0386969223618507
0.040199838578701
0.0412449426949024
0.0418556556105613
0.0420814380049705
0.0419922918081283
0.0416642874479293
0.0411542281508445
0.0404670238494873
0.0395247861742973
0.0381550379097461
0.0361140482127666
0.0331417322158813
0.0290272366255521
0.0236661862581968
0.0171008259057998
0.0095372879877686
0.0013362460304051
-0.0070218397304415
-0.014994466677308
-0.0220501590520143
-0.0277377683669328
-0.0317350141704082
-0.0338753685355186
-0.0341580547392368
-0.0327396020293235
-0.0299069546163082
-0.0260378550738096
-0.0215547624975442
-0.0168809778988361
-0.0124044092372059
-0.0084460657089948
-0.0052340114489197
-0.0028889884706586
-0.0014226282946765
-0.000745566911064
-0.0006856127874925
-0.0010161611717194
-0.0014911525649949
-0.0018798158271238
-0.0019936906173825
-0.0017023340333253
-0.0009385952143929
0.0003068821970373
0.0019998510833829
0.0040739523246884
0.0064325146377086
0.0089509468525648
0.0114893168210983
0.0139104835689067
0.0160960182547569
0.0179568361490964
0.019438361749053
0.0205197967588901
0.0212087482213974
0.0215348340570926
0.021542128175497
0.0212761014699935
0.0207614712417125
0.0199735984206199
0.0188139881938695
0.0171017348766326
0.014590173959732
0.011014599353075
0.0061634238809347
-5.1466748118400574e-05
-0.0075485743582248
-0.0160640440881252
-0.0251727569848299
-0.0343398712575435
-0.0429907217621803
-0.0505812764167785
-0.0566582456231117
-0.0609037354588508
-0.0631597191095352
-0.0634331926703453
-0.0618864595890045
-0.0588158816099166
-0.0546186827123165
-0.0497451648116111
-0.0446423254907131
-0.0397028401494026
-0.0352269634604454
-0.0313988663256168
-0.0282800272107124
-0.0258193779736757
-0.0238749235868453
-0.022242072969675
-0.0206875409930944
-0.0189864225685596
-0.0169545523822307
-0.0144686633720994
-0.0114725902676582
-0.0079743722453713
-0.004041695035994
0.0002048090100288
0.0046060001477599
0.0089857634156942
0.0131739228963851
0.0170248933136463
0.0204293001443147
0.0233187470585107
0.0256652347743511
0.027476780116558
0.0287904851138591
0.0296659208834171
0.0301782097667455
0.0304036885499954
0.0303918607532978
0.030125543475151
0.0294895246624946
0.028274642303586
0.0262208115309476
0.0230831522494554
0.0187021940946578
0.0130604337900877
0.006313762627542
-0.0012088967487215
-0.0090395463630557
-0.0166318733245134
-0.0234344899654388
-0.0289583392441272
