bvp
-0.0310896821320056
-0.0336099490523338
-0.0349554345011711
-0.0350655615329742
-0.0339848846197128
-0.0318429619073867
-0.0288258157670497
-0.0251569226384162
-0.0210909582674503
-0.0169089715927839
-0.0129084335640072
-0.0093886842951178
-0.0066324388608336
-0.0048794569447636
-0.0042871907353401
-0.0048858225345611
-0.0065483176149427
-0.0089903753250837
-0.0118005014955997
-0.0144997853785753
-0.0166272912174463
-0.0178241319954395
-0.0178852267563343
-0.0167736522853374
-0.0146092344075441
-0.0116356695070862
-0.0081648984923958
-0.0045111374929547
-0.0009367372840642
0.0023788209073245
0.0053492169827222
0.0079734586179256
0.010307933203876
0.0124239549040794
0.0143652223050594
0.0161134153604507
0.0175678636878728
0.0185523312538862
0.0188533309847116
0.0182746537029743
0.0166876818984746
0.0140650523826479
0.010493497364223
0.0061675640754401
0.0013674965593963
-0.0035778898745775
-0.0083388583734631
-0.0126270391047
-0.0162199139595031
-0.0189694054424762
-0.020798485726118
-0.0216922052204608
-0.0216908007860183
-0.0208804421126842
-0.0193754341453313
-0.0172954052686691
-0.0147430337965488
-0.0117883924394845
-0.0084660183638334
-0.0047847013920545
-0.0007441602647304
0.0036486331373453
0.0083671025931835
0.0133557114750146
0.0185257252305746
0.0237599480897188
0.0289220493286848
0.0338637419044971
0.0384314507246017
0.0424775183200836
0.0458771921694278
0.0485492348670959
0.050473254173994
0.0516936518251895
0.0523072443902492
0.0524425655603408
0.052242923527956
0.0518568269908428
0.0514268167316913
0.05106957629323
0.0508514046669006
0.0507691502571105
0.0507444441318511
0.0506308302283287
0.0502327233552932
0.0493393018841743
0.0477677918970584
0.0454040542244911
0.0422315448522567
0.0383409820497036
0.0339185670018196
0.0292186979204416
0.0245280303061008
0.0201282277703285
0.0162649042904377
0.0131254401057958
0.0108241867274045
0.0093942899256944
0.008788825944066
0.0088894888758659
0.0095165353268384
0.0104434248059988
0.0114232711493968
0.0122223868966102
0.0126508213579654
0.0125834941864013
0.0119671374559402
0.010813795030117
0.0091894567012786
0.0072030462324619
0.0049926154315471
0.0027073994278907
0.0004901140928268
-0.0015383623540401
-0.0032913871109485
-0.0047251433134078
-0.0058431662619113
-0.0066932551562786
-0.0073547884821891
-0.0079223215579986
-0.0084924884140491
-0.0091548450291156
-0.0099805854260921
-0.0110091529786586
-0.0122455134987831
-0.0136727504432201
-0.0152709297835826
-0.0170390009880065
-0.0190166868269443
-0.0212912820279598
-0.0239812023937702
-0.027208711951971
-0.0310722701251506
-0.0356142073869705
-0.0407897010445594
-0.0464554503560066
-0.0523817613720893
-0.0582799054682254
-0.0638374835252761
-0.0687528923153877
-0.0727637633681297
-0.0756708905100822
-0.0773569345474243
-0.0777961686253547
-0.0770545005798339
-0.0752783715724945
-0.0726707428693771
-0.0694636851549148
-0.0658979713916778
-0.0622041709721088
-0.0585798062384128
-0.0551689937710762
-0.0520530901849269
-0.049254972487688
-0.0467495135962963
-0.0444705598056316
-0.0423181615769863
-0.0401754528284072
-0.0379312448203563
-0.0354972518980503
-0.032816756516695
-0.0298662818968296
-0.026651756837964
-0.0232051778584718
-0.0195846073329448
-0.015869615599513
-0.0121486466377973
-0.0085051776841282
-0.0050077494233846
-0.001705203205347
0.0013726046308875
0.0042095929384231
0.0067962650209665
0.0091232173144817
0.0111734755337238
0.0129100512713193
0.0142629314213991
0.0151265999302268
0.0153740011155605
0.014881432056427
0.0135572124272584
0.0113720148801803
0.0083846244961023
0.004750249441713
0.0007059033960103
-0.0034584030508995
-0.0074323583394289
-0.0109173655509948
-0.0136546036228537
-0.015447718091309
-0.0161798298358917
-0.0158224385231733
-0.0144329518079757
-0.012141702696681
-0.0091352649033069
-0.0056414417922496
-0.0019118357449769
0.0018039904534816
0.0052880998700857
0.0083763767033815
0.010968517512083
0.0130298715084791
0.014591060578823
0.0157456137239933
0.0166391246020793
0.0174465831369161
0.0183437876403331
0.0194799788296222
0.0209568068385124
0.0228204242885112
0.0250663701444864
0.0276451893150806
0.0304636768996715
0.0333922803401947
0.036284826695919
0.0390021316707134
0.0414306744933128
0.0434942916035652
0.0451562404632568
0.0464119054377079
0.047278456389904
0.0477845892310142
0.0479626283049583
0.0478458330035209
0.04746625572443
0.0468453764915466
0.0459761694073677
0.0448038093745708
0.0432191416621208
0.041076373308897
0.0382311232388019
0.0345832407474517
0.0301111079752445
0.0248906947672367
0.0190973803400993
0.0129922777414321
0.0068965218961238
0.0011547934263944
-0.0039113014936447
-0.0080475099384784
-0.0110912658274173
-0.0129749905318021
-0.0137179978191852
-0.0134159978479146
-0.0122320912778377
-0.0103822518140077
-0.0081094577908515
-0.0056527201086282
-0.0032210554927587
-0.0009771082550287
0.000970110297203
0.0025654900819063
0.0038030762225389
0.0047195069491863
0.0053882468491792
0.0059106163680553
0.0064003560692071
0.0069684963673353
0.007714420557022
0.0087171178311109
0.0100220069289207
0.0116320857778191
0.0135095929726958
0.0155834360048174
0.0177599359303712
0.0199369676411151
0.0220171827822923
0.0239171292632818
0.0255727488547563
0.0269404035061597
0.0279935821890831
0.0287201404571533
0.0291247181594371
0.0292336568236351
0.0290933344513177
0.0287565141916275
0.0282605681568384
0.0276060570031404
0.0267428234219551
0.0255669951438903
0.0239310469478368
0.0216682143509387
0.0186265483498573
0.0147048709914088
0.0098849451169371
0.0042537068948149
-0.0019912160933017
-0.0085564423352479
-0.0150884054601192
-0.0212213434278965
-0.0266216285526752
-0.0310210660099983
-0.0342425219714641
-0.0362153053283691
-0.0369747504591941
-0.0366498120129108
-0.0354447029531002
-0.0336126238107681
-0.0314209125936031
-0.0291187278926372
-0.0269151590764522
-0.0249634496867656
-0.0233513452112674
-0.0221018008887767
-0.0211815740913152
-0.0205132663249969
-0.0199892912060022
-0.0194899141788482
-0.0189038068056106
-0.0181433241814374
-0.0171519480645656
-0.0159058608114719
-0.0144107770174741
-0.0126968398690223
-0.0108109908178448
-0.0088056037202477
-0.0067297373898327
-0.0046254089102149
-0.00252469885163
-0.0004502404481172
0.0015790457837283
0.0035442798398435
0.0054279221221804
0.0072130230255424
0.0088759930804371
0.0103796888142824
0.011672044172883
0.0126827452331781
0.0133145023137331
0.0134390862658619
0.0129076298326253
0.0115768620744347
0.0093447035178542
0.0061828289180994
0.0021569775417447
-0.0025700237601995
-0.0077528525143861
-0.0130893280729651
-0.0182511173188686
-0.0229194201529026
-0.0268220715224742
-0.0297589972615242
-0.0316103808581829
-0.0323373451828956
-0.0319817997515201
-0.0306622274219989
-0.0285614728927612
-0.0259061641991138
-0.0229406263679265
-0.0198996402323246
-0.0169838834553957
-0.0143412053585052
-0.0120559874922037
-0.0101470248773694
-0.0085738506168127
-0.0072523429989814
-0.0060766153037548
-0.0049395146779716
-0.0037471137475222
-0.0024278992787003
-0.0009387638419866
0.0007327436469495
0.0025716975796967
0.0045422841794788
0.0065941060893237
0.0086688846349716
0.0107082528993487
0.0126601103693246
0.0144825670868158
0.0161482132971286
0.0176468584686517
0.0189804509282112
0.0201540365815162
0.0211725160479545
0.0220418535172939
0.0227678790688514
0.0233493242412805
0.0237644482403993
0.0239574946463108
0.0238346010446548
0.0232728086411952
0.0221406761556863
0.0203269850462675
0.0177717674523592
0.0144910868257284
0.0105874128639698
0.0062426943331956
0.00169397611171
-0.0028016488067805
-0.0069968574680387
-0.0106739941984415
-0.013661490753293
-0.015845637768507
-0.0171758458018302
-0.0176653917878866
-0.0173853617161512
-0.0164511818438768
-0.0150077259168028
-0.0132165849208831
-0.0112432688474655
-0.009242758154869
-0.0073420293629169
-0.0056212958879768
-0.0041074845939874
-0.002788103884086
-0.0016311816871166
-0.0005959970876574
0.0003652172163128
0.0013084441889077
0.0022945834789425
0.0033789428416639
0.0046000406146049
0.0059735169634222
0.0074900100007653
0.0091142263263463
0.0107867578044533
0.0124319354072213
0.0139705268666148
0.0153340231627225
0.0164753310382366
0.0173693113029003
0.0180077943950891
0.0183985158801078
0.0185655727982521
0.0185464620590209
0.0183854606002569
0.0181220415979623
0.0177757367491722
0.0173336565494537
0.0167447291314601
0.0159196350723505
0.0147375343367457
0.0130642782896757
0.0107816122472286
0.0078201722353696
0.0041834097355604
-4.831049591302872e-05
-0.0047273081727325
-0.0096498448401689
-0.0145724192261695
-0.0192406624555587
-0.0234212148934602
-0.0269226916134357
-0.0296068508177995
-0.0313941165804863
-0.0322649478912353
-0.0322615131735801
-0.0314870700240135
-0.0300946719944477
-0.0282647628337144
-0.0261790305376052
-0.0240003149956464
-0.0218632984906435
-0.0198703221976757
-0.0180850569158792
-0.0165262557566165
-0.0151697164401412
-0.01395845413208
-0.012813152745366
-0.0116422176361083
-0.010357498191297
-0.0088928658515214
-0.0072136204689741
-0.0053142206743359
-0.0032137583475559
-0.0009519385639578
0.0014174496755003
0.003831289242953
0.0062164589762687
0.0084897708147764
0.0105659123510122
0.0123720522969961
0.0138598214834928
0.0150083070620894
0.0158214066177606
0.0163256209343671
0.0165679324418306
0.0166105758398771
0.0165241528302431
0.0163815803825855
0.0162480995059013
0.0161619745194911
0.0161111671477556
0.0160156115889549
0.0157263576984405
0.015051613561809
0.0138016734272241
0.0118346801027655
0.0090940603986382
0.0056307553313672
0.0016016453737393
-0.0027547660283744
-0.0071538416668772
-0.0113008385524153
-0.0149228125810623
-0.0177961084991693
-0.0197699051350355
-0.0207813065499067
-0.020857211202383
-0.0201077405363321
-0.0187146142125129
-0.0169083792716264
-0.0149337127804756
-0.0130119025707244
-0.0113126933574676
-0.0099429804831743
-0.0089473715052008
-0.0083120549097657
-0.0079720579087734
-0.0078248539939522
-0.0077475011348724
-0.007612993940711
-0.0073051648214459
-0.006729332730174
-0.0058178873732686
-0.004537183791399
-0.0028949836269021
-0.0009412448853254
0.0012389859184622
0.0035391924902796
0.0058490554802119
0.0080687925219535
0.0101145394146442
0.011918875388801
0.01343425642699
0.0146396281197667
0.0155431814491748
0.0161766745150089
0.016583889722824
0.0168101880699396
0.0168958716094493
0.0168648827821016
0.0167039595544338
0.0163454450666904
0.0156701188534498
0.0145307267084717
0.0127849634736776
0.0103282313793897
0.007121539209038
0.0032107611186802
-0.0012679966166615
-0.0060996627435088
-0.0110127618536353
-0.0157061032950878
-0.0198786780238151
-0.0232606399804353
-0.0256402306258678
-0.0268876515328884
-0.0269732009619474
-0.0259683988988399
-0.0240287370979785
-0.0213673822581768
-0.0182270612567663
-0.0148538369685411
-0.0114752557128667
-0.00828443095088
-0.0054298415780067
-0.0030071176588535
-0.0010518264025449
0.0004619695246219
0.0016153994947671
0.0025326497852802
0.0033635590225458
0.0042591355741024
0.0053450670093297
0.0067057106643915
0.008380657993257
0.0103679103776812
0.0126298265531659
0.0150999668985605
0.0176945403218269
0.0203282609581947
0.0229258108884096
0.0254248064011335
0.027773518115282
0.0299285277724266
0.0318559370934963
0.0335363894701004
0.0349690318107605
0.0361655987799167
0.0371378399431705
0.0378914698958396
0.0384251736104488
0.0387256480753421
0.0387605503201484
0.0384710133075714
0.0377625375986099
0.0365026779472827
0.0345354937016963
0.0317112952470779
0.0279227569699287
0.0231381263583898
0.0174239333719015
0.0109530268236994
0.0039968006312847
-0.0031016822904348
-0.0099723003804683
-0.0162659883499145
-0.021691782400012
-0.0260390080511569
-0.0291877388954162
-0.0311100073158741
-0.0318635329604148
-0.0315800793468952
-0.0304485578089952
-0.0286944899708032
-0.0265584401786327
-0.0242722891271114
-0.0220336690545082
-0.0199833959341049
-0.0181920174509286
-0.0166623629629611
-0.0153476893901824
-0.0141723733395338
-0.0130458232015371
-0.0118726147338747
-0.0105635393410921
-0.0090481294319033
-0.0072853243909776
-0.0052679432556033
-0.0030210318509489
-0.0005966168828308
0.0019339583814144
0.0044892388395965
0.0069871172308921
0.0093541806563735
0.0115337651222944
0.013487197458744
0.0151881454512476
0.0166190303862094
0.0177726000547409
0.0186541080474853
0.0192803479731082
0.0196762718260288
0.019870538264513
0.019884455949068
0.0197121519595384
0.0193004142493009
0.0185373201966285
0.0172559507191181
0.0152558414265513
0.0123398546129465
0.008359083905816
0.0032524410635232
-0.0029290672391653
-0.010013410821557
-0.0177139826118946
-0.0256554950028657
-0.0334159061312675
-0.0405741408467292
-0.0467553883790969
-0.0516666062176227
-0.0551182776689529
-0.0570334419608116
-0.0574456676840782
-0.056488923728466
-0.0543821826577186
-0.0514045245945453
-0.047858003526926
-0.0440312474966049
-0.0401749946177005
-0.0364844501018524
-0.0330847650766372
-0.0300239976495504
-0.0272771418094635
-0.0247614569962024
-0.0223598070442676
-0.0199462808668613
-0.0174090806394815
-0.0146665265783667
-0.0116738844662904
-0.0084236972033977
-0.0049444418400526
-0.0012943530455231
0.0024542491883039
0.0062291100621223
0.009960563853383
0.0135821821168065
0.017037495970726
0.0202864576131105
0.0233066845685243
0.0260904878377914
0.0286382567137479
0.0309507474303245
0.033022753894329
0.0348316878080368
0.036317229270935
0.0373624004423618
0.0377897284924984
0.0373797975480556
0.0359110757708549
0.0332100614905357
0.0291970185935497
0.0239201970398426
0.0175748132169246
0.0104967476800084
0.0031253197230398
-0.0040543843060731
-0.0105714118108153
-0.0160190723836421
-0.0200908221304416
-0.0226018466055393
-0.023499371483922
-0.0228616185486316
-0.0208818260580301
-0.0178397055715322
-0.0140667296946048
-0.0099111087620258
-0.0057072918862104
-0.0017471704632043
0.0017492659389972
0.0046550258994102
0.006940665654838
0.0086622796952724
0.0099372584372758
0.0109158447012305
0.0117567777633667
0.0126085728406906
0.0135944858193397
0.014802174642682
0.0162786003202199
0.0180298294872045
0.0200263392180204
0.0222096350044012
0.0244978964328765
0.0267959460616111
0.0290089976042509
0.0310529842972755
0.0328591950237751
0.0343757346272468
0.0355689376592636
0.0364260226488113
0.0369571335613727
0.0371917411684989
0.0371657535433769
0.0369003824889659
0.036375492811203
0.0355051755905151
0.0341283753514289
0.0320211760699749
0.0289301332086324
0.0246252864599227
0.0189627837389707
0.0119369560852646
0.0037052975967526
-0.0054178703576326
-0.0149940038099884
-0.0245106779038906
-0.0334391221404075
-0.0412904061377048
-0.0476646423339843
-0.0522875189781188
-0.0550315529108047
-0.0559182427823543
-0.0550996139645576
-0.0528322495520114
-0.0494521707296371
-0.045341320335865
-0.0408848635852336
-0.0364326946437358
-0.0322716794908046
-0.0286052860319614
-0.0255392417311668
-0.0230767987668514
-0.0211270563304424
-0.0195267125964164
-0.0180710460990667
-0.016546756029129
-0.0147614628076553
-0.0125668179243803
-0.0098722325637936
-0.0066518313251435
-0.002948313485831
0.0011329110711812
0.0054437057115137
0.0098189814016222
0.014099289663136
0.0181475207209587
0.0218597389757633
0.0251688342541456
0.0280412435531616
0.0304722674190998
0.0324836261570453
0.0341199748218059
0.0354385077953338
0.0364877209067344
0.0372769832611084
0.0377447046339511
0.0377399139106273
0.0370347797870636
0.0353709608316421
0.0325231589376926
0.028361827135086
0.0228997264057397
0.0163090359419584
0.0089085139334201
0.0011267103254795
-0.0065540689975023
-0.0136591056361794
-0.0197714772075414
-0.0245678722858428
-0.0278424620628356
-0.0295190811157226
-0.0296533405780792
-0.0284242704510688
-0.0261104740202426
-0.0230505615472793
-0.0195969939231872
-0.0160757768899202
-0.0127571765333414
-0.0098346369341015
-0.0074117411859333
-0.0055005825124681
-0.0040325485169887
-0.0028777520637959
-0.0018691504374146
-0.0008296696469187
0.0004040799103677
0.0019668866880238
0.0039526373147964
0.0063997311517596
0.0092823430895805
0.0125134922564029
0.0159560739994049
0.0194400940090417
0.0227867532521486
0.0258347354829311
0.0284593142569065
0.0305791329592466
0.0321546792984008
0.033182680606842
0.0336870774626731
0.0337095782160759
0.0333038121461868
0.0325311496853828
0.0314464643597602
0.0300678424537181
0.0283461734652519
0.026154201477766
0.0233023613691329
0.0195804294198751
0.0148148201406002
0.0089241955429315
0.0019580759108066
-0.0058888252824544
-0.0142876617610454
-0.0228122491389513
-0.0309938658028841
-0.038376223295927
-0.0445577166974544
-0.0492226257920265
-0.0521699450910091
-0.0533377267420291
-0.0528077520430088
-0.05078586935997
-0.0475696921348571
-0.0435139760375022
-0.0389961265027523
-0.0343806520104408
-0.0299836993217468
-0.0260425489395856
-0.0226950328797101
-0.0199739169329404
-0.017817510291934
-0.0160917062312364
-0.0146190570667386
-0.0132100358605384
-0.0116917844861745
-0.0099324751645326
-0.0078550456091761
-0.0054360702633857
-0.0026983683928847
0.0002949927002191
0.0034466683864593
0.0066334046423435
0.009721104055643
0.0125859398394823
0.0151303485035896
0.0172888506203889
0.0190290603786706
0.0203513950109481
0.0212872140109539
0.0218936838209629
0.0222418121993541
0.022397868335247
0.0224072057753801
0.0222868882119655
0.0220225527882576
0.021563570946455
0.0208163578063249
0.019642261788249
0.0178700070828199
0.0153254773467779
0.0118716973811388
0.0074484404176473
0.0021009370684623
-0.0040086563676595
-0.0106062460690736
-0.0173269733786582
-0.0237569641321897
-0.0294905621558427
-0.0341830365359783
-0.0375843159854412
-0.0395555049180984
-0.0400732047855854
-0.0392220579087734
-0.03717627748847
-0.0341761335730552
-0.0305052883923053
-0.0264666751027107
-0.0223524011671543
-0.0184134021401405
-0.0148375201970338
-0.0117357531562447
-0.0091351997107267
-0.006985112093389
-0.0051800492219626
-0.0035905139520764
-0.0020887544378638
-0.0005666268989443
0.0010545421391725
0.0028221094980835
0.0047533041797578
0.006835029926151
0.0090237306430935
0.011248318478465
0.0134187992662191
0.0154405701905488
0.017230462282896
0.0187303069978952
0.0199136156588792
0.0207815803587436
0.0213522296398878
0.0216525197029113
0.0217157006263732
0.0215780287981033
0.0212707184255123
0.0208070911467075
0.0201658234000206
0.0192739702761173
0.0179997161030769
0.0161676257848739
0.0135981580242514
0.0101555958390235
0.0057881595566868
0.0005539543926715
-0.0053729289211332
-0.0117188850417733
-0.0181442387402057
-0.0242849439382553
-0.0297934915870428
-0.0343726053833961
-0.0378002598881721
-0.0399449504911899
-0.0407705940306186
-0.0403327792882919
-0.038767784833908
-0.0362757034599781
-0.0330992490053176
-0.0294986255466938
-0.0257243644446134
-0.0219922251999378
-0.0184641815721988
-0.0152407325804233
-0.0123649407178163
-0.0098286364227533
-0.0075770020484924
-0.0055190464481711
-0.0035454370081424
-0.0015474315732717
0.0005661752074956
0.0028561372309923
0.0053473343141376
0.0080313179641962
0.0108734313398599
0.0138192865997552
0.0167991463094949
0.0197354722768068
0.0225541032850742
0.0251895785331726
0.0275828503072261
0.0296821072697639
0.0314498767256736
0.0328674241900444
0.0339321494102478
0.0346541628241539
0.0350552126765251
0.0351632684469223
0.0349980033934116
0.0345519669353961
0.0337758809328079
0.0325755216181278
0.0308233611285686
0.0283849611878395
0.0251581091433763
0.0211105830967426
0.0162982214242219
0.010863184928894
0.0050231907516717
-0.0009440281428396
-0.0067235110327601
-0.0119951125234365
-0.0164701491594314
-0.0199242308735847
-0.0222188979387283
-0.0233093854039907
-0.0232426226139068
-0.02214908413589
-0.0202282555401325
-0.0177248772233724
-0.0148955080658197
-0.0119773522019386
-0.0091704837977886
-0.0066276588477194
-0.0044442783109843
-0.0026530157774686
-0.0012289369478821
-0.0001032906584441
0.0008193817920982
0.0016443058848381
0.0024711936712265
0.0033829282037913
0.0044381711632013
0.0056655649095773
0.0070612551644444
0.0085939979180693
0.0102152656763792
0.0118632949888706
0.0134612563997507
0.0149240009486675
0.0161740034818649
0.0171542782336473
0.0178345553576946
0.0182113274931907
0.0183023083955049
0.0181393846869468
0.0177618451416492
0.0172102600336074
0.0165226329118013
0.0157298389822244
0.0148434452712535
0.0138375014066696
0.0126366410404443
0.0111170765012502
0.009120712056756
0.0064865760505199
0.003095697145909
-0.0010879365727305
-0.005995612591505
-0.0114551549777388
-0.0172085724771022
-0.0229377746582031
-0.0282987058162689
-0.0329638123512268
-0.0366613194346427
-0.0392013117671012
-0.0404884554445743
-0.0405213087797164
-0.0393805503845214
-0.0372163727879524
-0.0342380888760089
-0.0306962840259075
-0.0268552377820014
-0.0229637287557125
-0.0192316602915525
-0.0158161781728267
-0.0128139508888125
-0.0102553311735391
-0.0081031071022152
-0.0062625613063573
-0.0046052439138293
-0.0029968982562422
-0.0013169227167963
0.0005326326936483
0.0026219561696052
0.0049838423728942
0.0076020909473299
0.0104119190946221
0.0133138429373502
0.0161902792751789
0.0189212784171104
0.0213993936777114
0.0235408954322338
0.0252930931746959
0.0266388319432735
0.0275945626199245
0.028198879212141
0.0284984819591045
0.0285417027771472
0.0283793732523918
0.0280640833079814
0.027639664709568
0.0271213687956333
0.0264771431684494
0.0256186798214912
0.0244041495025157
0.0226544290781021
0.0201844181865453
0.0168452356010675
0.012565353885293
0.0073773995973169
0.0014254624256864
-0.0050450097769498
-0.0117129199206829
-0.0182195529341697
-0.0242093540728092
-0.0293643698096275
-0.0334330350160598
-0.036256343126297
-0.0377850830554962
-0.0380793139338493
-0.03729048371315
-0.0356333032250404
-0.0333547294139862
-0.0307056922465562
-0.0279170218855142
-0.0251803547143936
-0.0226373728364706
-0.0203756690025329
-0.0184269621968269
-0.0167691521346569
-0.0153322154656052
-0.0140082370489835
-0.0126722157001495
-0.0112096620723605
-0.0095352046191692
-0.0075990501791238
-0.0053876051679253
-0.0029198862612247
-0.0002425219863653
0.0025746077299118
0.0054449243471026
0.0082749491557478
0.0109741725027561
0.0134616382420063
0.0156709905713796
0.0175571870058774
0.019101470708847
0.0203111581504344
0.0212141741067171
0.0218484308570623
0.0222515854984521
0.0224549267441034
0.0224758479744195
0.0223046652972698
0.0218894779682159
0.0211284346878528
0.0198784656822681
0.0179811306297779
0.0153001835569739
0.0117646632716059
0.0074054873548448
0.0023702029138803
-0.0030875066295266
-0.008634328842163
-0.0138938231393694
-0.0184911079704761
-0.0220977365970611
-0.0244675315916538
-0.025459349155426
-0.0250450316816568
-0.023304533213377
-0.0204136800020933
-0.0166248753666877
-0.0122377499938011
-0.0075667891651391
-0.0029153041541576
0.0014479719102382
0.0053138108924031
0.0085530038923025
0.0111266747117042
0.0130818700417876
0.0145309027284383
0.0156230824068188
0.0165189914405345
0.0173705909401178
0.0183060672134161
0.019419090822339
0.0207644030451774
0.0223586019128561
0.0241817124187946
0.0261795707046985
0.0282724741846323
0.030370919033885
0.0323894917964935
0.0342518165707588
0.0358903706073761
0.0372444316744804
0.0382547564804554
0.0388617254793643
0.0390136539936065
0.0386776700615882
0.0378440059721469
0.0365256890654563
0.0347574651241302
0.0325898937880992
0.0300734490156173
0.0272348430007696
0.0240547005087137
0.0204577967524528
0.0163222774863243
0.0115104289725422
0.0059165675193071
-0.0004875864833593
-0.0076279230415821
-0.0153233772143721
-0.0232957601547241
-0.0311913695186376
-0.038614884018898
-0.0451754555106163
-0.0505359321832656
-0.0544499419629573
-0.056781843304634
-0.0575157478451728
-0.0567549467086792
-0.0547077730298042
-0.0516606196761131
-0.0479409210383892
-0.0438745021820068
-0.0397501289844512
-0.0357995443046093
-0.0321865901350975
-0.028999974951148
-0.0262526795268058
-0.0238899420946836
-0.0218044314533472
-0.0198565628379583
-0.0178978741168975
-0.0157934427261352
-0.0134392250329256
-0.0107735199853777
-0.007782987318933
-0.0045020594261586
-0.0010044565424323
0.0026120487600564
0.0062402305193245
0.0097689507529139
0.0130852563306689
0.0160833820700645
0.0186763852834701
0.020802928134799
0.0224306657910347
0.0235580671578645
0.0242132507264614
0.0244479514658451
0.0243271347135305
0.023918816819787
0.0232857447117567
0.0224745944142341
0.0215010121464729
0.0203340239822864
0.0188828445971012
0.0169939156621694
0.0144732929766178
0.011136095970869
0.0068631405010819
0.0016446304507553
-0.0043982816860079
-0.0110177118331193
-0.0178667642176151
-0.0245419424027204
-0.0306308344006538
-0.0357568152248859
-0.0396155826747417
-0.0420054048299789
-0.0428482964634895
-0.0421915687620639
-0.0401927083730697
-0.0370989181101322
-0.0332205481827259
-0.0288972500711679
-0.0244635380804538
-0.0202178880572319
-0.0163959115743637
-0.0131479576230049
-0.0105244684964418
-0.008476541377604
-0.0068730311468243
-0.0055272253230214
-0.0042286878451704
-0.0027765361592173
-0.0010068463161587
0.0011883536353707
0.003848498687148
0.0069412537850439
0.0103735420852899
0.0140122892335057
0.01770512573421
0.0212985053658485
0.0246533453464508
0.0276555530726909
0.0302212350070476
0.0322984829545021
0.0338660739362239
0.0349299199879169
0.0355187952518463
0.035677682608366
0.0354584194719791
0.0349086448550224
0.0340531319379806
0.0328680463135242
0.0312659628689289
0.0291060041636228
0.0262262467294931
0.0224882215261459
0.0178246144205331
0.012280436232686
0.0060340375639498
-0.0006119331810623
-0.0072669726796448
-0.0135036865249276
-0.0189108457416296
-0.0231428816914558
-0.0259577054530382
-0.0272339545190334
-0.0269752256572246
-0.0253089535981416
-0.0224707573652267
-0.0187719818204641
-0.0145610542967915
-0.0101854223757982
-0.0059575927443802
-0.0021294928155839
0.0011236304417252
0.0037111293058842
0.0056250854395329
0.0069273333065211
0.0077280588448047
0.0081611238420009
0.0083644492551684
0.0084698125720024
0.0085945995524525
0.0088293962180614
0.0092279948294162
0.0098069086670875
0.0105527024716138
0.0114305922761559
0.0123909134417772
0.0133763290941715
0.0143313901498913
0.0152111742645502
0.0159850511699914
0.0166366025805473
0.0171628631651401
0.0175719689577817
0.0178800243884325
0.0181078296154737
0.0182717125862836
0.0183696001768112
0.0183702949434518
0.0182049125432968
0.0177572704851627
0.0168603658676147
0.0153104662895202
0.0129013964906334
0.0094698881730437
0.0049396706745028
-0.000645344145596
-0.0071074953302741
-0.0141479903832077
-0.0213800519704818
-0.0283706672489643
-0.0346872545778751
-0.0399481020867824
-0.0438670516014099
-0.0462801940739154
-0.0471519120037555
-0.0465667024254798
-0.0447124205529689
-0.041853729635477
-0.0382973663508892
-0.0343595072627067
-0.0303387511521577
-0.0264911390841007
-0.0230094250291585
-0.0200102627277374
-0.017529908567667
-0.0155286025255918
-0.0139037631452083
-0.0125130824744701
-0.0112040285021066
-0.0098370108753442
-0.0082960464060306
-0.0064941062591969
-0.0043775374069809
-0.0019285418093204
0.0008345218375325
0.0038613013457506
0.0070799263194203
0.010410776361823
0.0137792490422725
0.0171243418008089
0.0204010438174009
0.0235803201794624
0.0266519896686077
0.029623869806528
0.032509222626686
0.0353117734193801
0.0380189642310142
0.0406000353395938
0.0430020913481712
0.0451420210301876
0.0468957982957363
0.0480924025177955
0.0485222339630126
0.0479614436626434
0.0462064519524574
0.0431158952414989
0.0386537909507751
0.0329196602106094
0.02615362778306
0.0187125280499458
0.0110232783481478
0.0035286098718643
-0.0033618872985243
-0.0093092182651162
-0.0140682011842727
-0.017497930675745
-0.0195642467588186
-0.0203359443694353
-0.0199724435806274
-0.0187026690691709
-0.0167982224375009
-0.0145438909530639
-0.0122079728171229
-0.0100159738212823
-0.0081304889172315
-0.0066413255408406
-0.0055701415985822
-0.0048839226365089
-0.004508813843131
-0.0043437778949737
-0.0042757764458656
-0.0041956100612878
-0.0040117837488651
-0.0036596450954675
-0.0031058806926012
-0.0023499298840761
-0.0014217402786016
-0.0003755837678909
0.0007192678749561
0.0017919559031724
0.0027840044349431
0.0036542266607284
0.0043746922165155
0.0049281138926744
0.0053079593926668
0.0055184178054332
0.0055763553828001
0.0055089220404624
0.0053378976881504
0.0050552748143672
0.0046015977859497
0.0038575194776058
0.0026543028652668
0.0008016563951969
-0.0018716268241405
-0.0054713785648345
-0.0099970307201147
-0.0153225511312484
-0.0212102122604846
-0.0273452922701835
-0.0333748534321785
-0.0389456935226917
-0.0437384508550167
-0.0474955290555954
-0.0500434786081314
-0.0513075143098831
-0.0513139106333255
-0.0501805320382118
-0.0480998456478118
-0.0453175008296966
-0.0421056225895881
-0.0387288071215152
-0.0354101546108722
-0.0323121175169944
-0.0295340996235609
-0.0271139778196811
-0.0250290222465991
-0.0232039131224155
-0.021527836099267
-0.0198751091957092
-0.0181261822581291
-0.016187060624361
-0.0140035785734653
-0.0115681532770395
-0.0089175468310713
-0.0061224973760545
-0.0032744612544775
-0.0004707219777628
0.0022032558917999
0.0046835322864353
0.0069219283759593
0.0088787544518709
0.0105255348607897
0.0118524748831987
0.0128739764913916
0.013627978041768
0.014165268279612
0.0145292058587074
0.0147317741066217
0.014734586700797
0.0144424419850111
0.0137142576277256
0.0123921819031238
0.0103440498933196
0.0075057847425341
0.00390668772161
-0.0003266269341111
-0.0049798339605331
-0.0097714820876717
-0.0143867842853069
-0.0185193978250026
-0.0219066552817821
-0.0243485309183597
-0.025716733187437
-0.0259624924510717
-0.0251211915165185
-0.0233083944767713
-0.0207055509090423
-0.0175396353006362
-0.0140592586249113
-0.0105039123445749
-0.0070736091583967
-0.0039139352738857
-0.0011134725064039
0.0012977141886949
0.0033473595976829
0.0051133036613464
0.0067090243101119
0.0082641243934631
0.0099040158092975
0.0117344949394464
0.0138307381421327
0.0162287577986717
0.0189224872738122
0.0218674708157777
0.0249891690909862
0.0281942188739776
0.03137893602252
0.0344311855733394
0.0372327156364917
0.0396704785525798
0.0416541323065757
0.0431297793984413
0.0440849587321281
0.0445456206798553
0.0445662327110767
0.0442147105932235
0.0435549914836883
0.0426294393837451
0.0414421595633029
0.0399457849562168
0.0380395613610744
0.0355879217386245
0.03245709836483
0.0285568162798881
0.0238765329122543
0.0185066163539886
0.0126379495486617
0.0065433382987976
0.0005462057888507
-0.0050182230770587
-0.0098404344171285
-0.013666683807969
-0.0163209084421396
-0.0177183635532856
-0.0178722608834505
-0.0168938804417848
-0.0149805545806884
-0.0123891085386276
-0.0094030052423477
-0.0063027441501617
-0.0033428166061639
-0.000732447952032
0.0013827849179506
0.0029350947588682
0.0039380686357617
0.0044775074347853
0.0046927100047469
0.0047528110444545
0.0048340316861867
0.0051002744585275
0.0056841904297471
0.0066730249673128
0.0081051439046859
0.0099728470668196
0.0122248465195298
0.0147686209529638
0.0174789112061262
0.0202143713831901
0.0228364989161491
0.025226030498743
0.0272940658032894
0.028984498232603
0.0302687622606754
0.0311391744762659
0.0316045843064785
0.03168660774827
0.0314141623675823
0.0308145023882389
0.02989930100739
0.028647406026721
0.0269900150597095
0.0248065665364265
0.0219402164220809
0.0182357598096132
0.0135893635451793
0.0079920273274183
0.0015543708577752
-0.0054905200377106
-0.0128064192831516
-0.0199936293065547
-0.0266404971480369
-0.0323742590844631
-0.0369025319814682
-0.0400424599647522
-0.0417336374521255
-0.0420308783650398
-0.0410850122570991
-0.0391234308481216
-0.0364292934536933
-0.0333148315548896
-0.0300909671932458
-0.0270381644368171
-0.0243814531713724
-0.0222723335027694
-0.0207800175994634
-0.019890259951353
-0.0195125844329595
-0.0194995980709791
-0.0196731910109519
-0.019847834482789
-0.0198488198220729
-0.0195287130773067
-0.0187851041555404
-0.017576478421688
-0.0159249976277351
-0.0139034204185009
-0.0116154635325074
-0.0091763101518154
-0.0066963457502424
-0.0042705642990767
-0.0019752085208892
0.0001305043697357
0.0020050788298249
0.0036302199587225
0.0050122886896133
0.0061722071841359
0.007130354642868
0.0078967651352286
0.0084613757207989
0.0087745394557714
0.00872637424618
0.0081443125382065
0.0068184034898877
0.0045464327558875
0.0011833673343062
-0.0033149868249893
-0.0088622933253645
-0.0152343669906258
-0.0220867097377777
-0.0289944000542163
-0.0355068296194076
-0.0412030071020126
-0.0457326993346214
-0.0488401539623737
-0.0503797903656959
-0.0503271892666816
-0.0487769693136215
-0.0459252148866653
-0.0420415736734867
-0.0374364107847213
-0.0324281565845012
-0.0273123793303966
-0.0223360136151313
-0.0176819413900375
-0.013461647555232
-0.0097148856148123
-0.0064198998734354
-0.0035112351179122
-0.0008978098630905
0.0015222495421767
0.0038477405905723
0.0061590317636728
0.0085064992308616
0.010908605530858
0.0133576747030019
0.0158288571983575
0.0182876177132129
0.0206934809684753
0.0230035446584224
0.0251794159412384
0.0271955579519271
0.0290422439575195
0.0307214558124542
0.0322434939444065
0.0336284637451171
0.0349088124930858
0.0361259430646896
0.0373174473643302
0.0385031551122665
0.0396783798933029
0.0408106297254562
0.0418327897787094
0.042632944881916
0.0430475324392318
0.0428659953176975
0.0418521873652935
0.0397824496030807
0.0364925898611545
0.0319210886955261
0.0261394958943128
0.0193644352257251
0.0119436215609312
0.0043130372650921
-0.0030645416118204
-0.0097608435899019
-0.0154265686869621
-0.019813047721982
-0.0227785799652338
-0.0242894608527421
-0.0244154166430234
-0.0233151018619537
-0.0212139822542667
-0.0183795448392629
-0.015095317736268
-0.0116336699575185
-0.0082303909584879
-0.0050655091181397
-0.0022503323853015
0.000175108667463
0.0022278213873505
0.003958978690207
0.0054342662915587
0.0067196749150753
0.0078727258369326
0.0089399432763457
0.0099571971222758
0.0109481606632471
0.0119228074327111
0.0128774503245949
0.0137950908392667
0.0146499825641512
0.0154171977192163
0.0160825923085212
0.0166499614715576
0.017139608040452
0.0175768323242664
0.0179818142205476
0.018369311466813
0.0187537856400012
0.0191510282456874
0.0195727907121181
0.0200214814394712
0.0204893704503774
0.0209582969546318
0.0213972609490156
0.0217554494738578
0.021950077265501
0.021855853497982
0.0213055592030286
0.020106729120016
0.0180690325796604
0.0150346476584672
0.0109119359403848
0.0057095848023891
-0.0004409030079841
-0.007285963743925
-0.0144753055647015
-0.0216031316667795
-0.0282547492533922
-0.0340513288974761
-0.0386886782944202
-0.0419659167528152
-0.0437996461987495
-0.0442220270633697
-0.043362196534872
-0.0414153411984443
-0.0386130362749099
-0.0352042019367218
-0.0314407460391521
-0.0275587700307369
-0.0237562023103237
-0.020174765959382
-0.0168946646153926
-0.0139436377212405
-0.0113113671541213
-0.0089624598622322
-0.0068483501672744
-0.0049170479178428
-0.0031195962801575
-0.0014161542057991
0.0002185907214879
0.0017958842217922
0.0033158995211124
0.0047663133591413
0.0061219967901706
0.0073520205914974
0.0084287244826555
0.0093335192650556
0.0100608579814434
0.0106206461787223
0.0110353287309408
0.011332057416439
0.0115376096218824
0.0116797238588333
0.01178864762187
0.0118942745029926
0.0120219625532627
0.0121893938630819
0.0124006457626819
0.0126358084380626
0.0128424055874347
0.0129298511892557
0.0127633288502693
0.0121650658547878
0.0109350066632032
0.0088864434510469
0.0058816540986299
0.0018630996346473
-0.0031188149005174
-0.0088906846940517
-0.0151658207178115
-0.0215793494135141
-0.0277355145663023
-0.033253651112318
-0.0378103218972682
-0.0411751493811607
-0.0432295762002468
-0.0439632982015609
-0.0434571355581283
-0.0418637990951538
-0.039388969540596
-0.0362712815403938
-0.0327633991837501
-0.0291124954819679
-0.0255371388047933
-0.0222064908593893
-0.0192301459610462
-0.0166595354676246
-0.0144940260797739
-0.0126861929893493
-0.0111538004130125
-0.0098044099286198
-0.0085569359362125
-0.0073462817817926
-0.0061200899071991
-0.004838686902076
-0.0034780094865709
-0.0020334005821496
-0.0005214194534346
0.0010273560183122
0.002582561224699
0.0041222912259399
0.0056326491758227
0.0071055716834962
0.0085381586104631
0.0099319824948906
0.0112886885181069
0.012605451978743
0.0138776581734418
0.0151042407378554
0.016287924721837
0.0174311324954032
0.0185269434005022
0.0195434615015983
0.0204086862504482
0.0210046786814928
0.0211733244359493
0.0207340475171804
0.0195132624357938
0.0173793323338031
0.0142755219712853
0.0102471448481082
0.0054527157917618
0.0001492322189733
-0.0053426716476678
-0.0106807081028819
-0.0155401090160012
-0.0196443945169448
-0.0227860286831855
-0.0248374082148075
-0.025753803551197
-0.0255703125149011
-0.024395577609539
-0.0224005989730358
-0.0197971239686012
-0.0168096981942653
-0.0136514892801642
-0.0105061428621411
-0.0075151873752474
-0.0047736335545778
-0.0023329854011535
-0.0002070507034659
0.001622837036848
0.0032023377716541
0.0045958189293742
0.0058761816471815
0.0071156695485115
0.0083788009360432
0.0097158271819353
0.0111547764390707
0.0126962251961231
0.0143170412629842
0.0159812085330486
0.0176497995853424
0.0192842241376638
0.0208446811884641
0.0222909823060035
0.0235879644751548
0.0247118603438138
0.0256553124636411
0.0264301672577857
0.0270659439265728
0.0276046022772789
0.028094582259655
0.0285820662975311
0.0290978401899337
0.0296450480818748
