bvp
-0.0656359940767288
-0.0636855661869049
-0.0618683956563472
-0.0600148290395736
-0.0579780116677284
-0.0556401312351226
-0.0529151186347007
-0.0497506372630596
-0.0461316332221031
-0.0420820415019989
-0.0376629568636417
-0.0329693965613842
-0.028124563395977
-0.0232673827558755
-0.0185329113155603
-0.0140334442257881
-0.0098507218062877
-0.0060395235195755
-0.0026319855824112
0.0003635343164205
0.0029654884710907
0.0052201626822352
0.0071999309584498
0.0089989714324474
0.0107260588556528
0.0124916862696409
0.0143841998651623
0.0164329204708337
0.0185694862157106
0.0206081178039312
0.0222615636885166
0.0231946520507335
0.0230953712016344
0.0217399708926677
0.0190446805208921
0.0150983165949583
0.0101644033566117
0.0046510244719684
-0.0009400590788573
-0.0060723172500729
-0.0102352295070886
-0.0130039090290665
-0.0140901859849691
-0.0133746434003114
-0.0109162740409374
-0.0069403112865984
-0.0018020304851233
0.004066836554557
0.0102121774107217
0.0162030085921287
0.0216707736253738
0.0263426695019006
0.0300634391605854
0.0328014381229877
0.0346402302384376
0.0357582308351993
0.0363961830735206
0.0368167273700237
0.0372659303247928
0.0379410795867443
0.0389670021831989
0.0403885543346405
0.0421803668141365
0.0442642234265804
0.0465258993208408
0.0488286279141902
0.0510256811976432
0.0529762953519821
0.0545611232519149
0.0556892231106758
0.0562974549829959
0.0563490241765975
0.0558328032493591
0.054762490093708
0.0531760342419147
0.0511336252093315
0.0487129241228103
0.0460042804479599
0.0431080907583236
0.0401308164000511
0.0371723026037216
0.0343050956726074
0.0315538272261619
0.028874535113573
0.0261351764202117
0.0231105722486972
0.0195036269724369
0.0149953700602054
0.0093142688274383
0.0023054704070091
-0.0060187317430973
-0.0154595524072647
-0.0256481207907199
-0.036092959344387
-0.0462431013584136
-0.0555506758391857
-0.0635303631424903
-0.0698142945766449
-0.0741884410381317
-0.0766017660498619
-0.0771542564034462
-0.0760718286037445
-0.0736726745963096
-0.0703290775418281
-0.0664271712303161
-0.0623276904225349
-0.0583347678184509
-0.0546761378645896
-0.051492191851139
-0.0488318838179111
-0.0466565564274787
-0.0448538921773433
-0.0432636812329292
-0.0417118929326534
-0.0400412566959857
-0.0381291434168815
-0.0358950048685073
-0.0333013907074928
-0.0303477793931961
-0.0270595960319042
-0.0234781540930271
-0.0196536108851432
-0.0156444329768419
-0.0115241352468729
-0.0073867542669177
-0.0033453162759542
0.0004780758172273
0.0039693713188171
0.0070374999195337
0.0096215289086103
0.0116950180381536
0.0132689056918025
0.0143885342404246
0.0151242297142744
0.0155544551089406
0.0157364122569561
0.0156699195504188
0.0152727598324418
0.0143802473321557
0.0127722267061471
0.0102221183478832
0.0065549220889806
0.0017016930505633
-0.004261253401637
-0.0111023569479584
-0.0184572041034698
-0.0258729644119739
-0.0328629650175571
-0.0389602296054363
-0.0437637940049171
-0.046976663172245
-0.0484315305948257
-0.0481026619672775
-0.0461060218513011
-0.0426853522658348
-0.0381821133196353
-0.0329936221241951
-0.0275267586112022
-0.0221500992774963
-0.0171479955315589
-0.0126928389072418
-0.0088454969227314
-0.0055703185498714
-0.0027512200176715
-0.0002118237316608
0.0022550038993358
0.0048525761812925
0.0077486298978328
0.0110505633056163
0.0147924087941646
0.0189360566437244
0.0233811102807521
0.0279795732349157
0.0325572341680526
0.0369394309818744
0.0409732982516288
0.0445384718477726
0.0475456118583679
0.0499340556561946
0.0516775250434875
0.0527913644909858
0.0533322095870971
0.0533904395997524
0.0530779585242271
0.0525127425789833
0.0518001392483711
0.0510092936456203
0.0501455590128898
0.0491256043314933
0.0477668792009353
0.045801818370819
0.0429206043481826
0.0388347655534744
0.033345490694046
0.0264030210673809
0.0181467588990926
0.0089130150154232
-0.0007971692830324
-0.0103823319077491
-0.0192207265645265
-0.0267498604953289
-0.0325319245457649
-0.0362960547208786
-0.0379532650113105
-0.0375872887670993
-0.0354288443922996
-0.031818188726902
-0.0271588470786809
-0.0218730084598064
-0.0163693949580192
-0.01101597212255
-0.0061104372143745
-0.0018571000546216
0.0016441419720649
0.0043962895870208
0.0064902044832706
0.0080788731575012
0.009345656260848
0.0104722529649734
0.0116141643375158
0.012888504192233
0.0143711222335696
0.0160972755402326
0.0180639959871768
0.0202297512441873
0.0225105341523885
0.0247840657830238
0.0269083343446254
0.0287473779171705
0.0301946438848972
0.0311881508678197
0.0317168831825256
0.0318183973431587
0.0315690413117408
0.0310736130923032
0.030455756932497
0.0298417229205369
0.029336217790842
0.028997965157032
0.0288155823945999
0.0286776684224605
0.02835095487535
0.027496688067913
0.0257321186363697
0.0227140672504901
0.0182183049619197
0.0121981231495738
0.0048102457076311
-0.0035984099376946
-0.0125383008271455
-0.0214454978704452
-0.029752904549241
-0.0369509123265743
-0.0426330640912056
-0.0465246364474296
-0.0484951511025428
-0.0485630482435226
-0.0468946434557437
-0.0437890850007534
-0.0396453216671943
-0.0349149405956268
-0.0300468616187572
-0.0254342146217823
-0.0213742852210998
-0.018045675009489
-0.0155031001195311
-0.0136886499822139
-0.0124554559588432
-0.011599289253354
-0.010892691090703
-0.0101152937859296
-0.0090781087055802
-0.007643757853657
-0.0057404320687055
-0.0033624498173594
-0.000558232422918
0.0025850855745375
0.0059566483832895
0.0094365570694208
0.0129086356610059
0.0162714105099439
0.0194458737969398
0.0223772823810577
0.0250320397317409
0.027392242103815
0.0294508803635835
0.0312115103006362
0.0326916128396987
0.033918734639883
0.034909538924694
0.0356390587985515
0.0360149145126342
0.0358644761145114
0.0349418893456459
0.0329630002379417
0.0296641010791063
0.0248679388314485
0.018540184944868
0.0108220390975475
0.0020294841378927
-0.0073806550353765
-0.0168692767620086
-0.0258825197815895
-0.0339122526347637
-0.0405462570488452
-0.045508287847042
-0.0486791767179966
-0.0500953495502471
-0.0499306432902812
-0.0484663918614387
-0.0460527241230011
-0.0430644564330577
-0.0398572012782096
-0.0367306470870971
-0.0339029282331466
-0.0314976125955581
-0.0295434053987264
-0.027984119951725
-0.0266949608922004
-0.0255031511187553
-0.0242151878774166
-0.0226514749228954
-0.0206775981932878
-0.0182185694575309
-0.0152568817138671
-0.0118248350918293
-0.0079961894080042
-0.0038758041337132
0.0004128898726776
0.0047396128065884
0.0089765060693025
0.0130049725994467
0.0167186819016933
0.0200237222015857
0.0228421986103057
0.0251225400716066
0.0268479008227586
0.0280337966978549
0.0287205018103122
0.0289658978581428
0.028832459822297
0.0283623654395341
0.0275456644594669
0.0262964256107807
0.0244519580155611
0.0218004155904054
0.0181310940533876
0.0132945524528622
0.0072571076452732
0.0001350929960608
-0.0077979434281587
-0.0161298476159572
-0.0243574306368827
-0.0319601483643054
-0.0384745970368385
-0.0435448475182056
-0.0469449236989021
-0.0485830344259738
-0.0484978780150413
-0.0468485504388809
-0.0438919998705387
-0.0399467870593071
-0.0353525765240192
-0.0304339732974767
-0.0254696998745203
-0.0206680297851562
-0.0161519050598144
-0.0119587536901235
-0.0080568781122565
-0.0043706838041543
-0.0008032154291868
0.0027476511895656
0.0063771419227123
0.0101631795987486
0.0141542237251997
0.018356354907155
0.0227269884198904
0.0271796956658363
0.0315976217389106
0.035849392414093
0.0398017242550849
0.0433262400329113
0.0463062934577465
0.0486506223678588
0.0503046549856662
0.0512485839426517
0.051491230726242
0.0510692782700061
0.0500477775931358
0.0485174022614955
0.0465855821967124
0.0443566851317882
0.0419008024036884
0.0392184890806674
0.0362159274518489
0.032708466053009
0.028460320085287
0.0232505686581134
0.0169448722153902
0.0095509588718414
0.0012413100339472
-0.0076615256257355
-0.0167262367904186
-0.0254653319716453
-0.0333894677460193
-0.0400579087436199
-0.0451218374073505
-0.0483568832278251
-0.0496811680495739
-0.04915776476264
-0.0469811037182807
-0.0434517562389373
-0.0389462560415267
-0.0338813625276088
-0.0286707282066345
-0.0236803572624921
-0.0191956665366888
-0.0154062919318676
-0.0124003877863287
-0.0101639237254858
-0.0085916556417942
-0.0075104213319718
-0.0067106462083756
-0.0059818867594003
-0.0051427464932203
-0.004057818558067
-0.0026419898495078
-0.0008555208332836
0.0013044327497482
0.0038098376244306
0.0066043804399669
0.0096054887399077
0.0127063002437353
0.0157805103808641
0.0186953675001859
0.0213293582201004
0.0235878676176071
0.0254133362323045
0.0267868526279926
0.0277223512530326
0.0282570328563451
0.0284393075853586
0.0283136144280433
0.0278991665691137
0.0271624587476253
0.0259924493730068
0.0241959225386381
0.0215264726430177
0.0177388079464435
0.0126499319449067
0.0061979084275662
-0.0015145763754844
-0.0102090518921613
-0.0194556955248117
-0.0287235304713249
-0.0374450907111167
-0.04508613422513
-0.0512074008584022
-0.0555061362683773
-0.0578367933630943
-0.0582155510783195
-0.0568087846040725
-0.0539044998586177
-0.0498711764812469
-0.0451158471405506
-0.0400493703782558
-0.0350524224340915
-0.0304360147565603
-0.0264070518314838
-0.0230526812374591
-0.0203449465334415
-0.0181603990495204
-0.0163089018315076
-0.0145669281482696
-0.012711651623249
-0.0105508603155612
-0.0079450346529483
-0.0048214439302682
-0.0011768080294132
0.0029338151216506
0.0074112107977271
0.0121230250224471
0.016921017318964
0.0216639749705791
0.0262332707643508
0.0305385515093803
0.0345201343297958
0.0381495766341686
0.0414250046014785
0.0443623140454292
0.0469873547554016
0.0493295639753341
0.0514140725135803
0.0532535426318645
0.0548433251678943
0.0561541691422462
0.057109635323286
0.0575552359223365
0.0572470463812351
0.0558750107884407
0.0531172938644886
0.0487139001488685
0.0425390936434268
0.034652255475521
0.0253165047615766
0.0149805666878819
0.0042270608246326
-0.0063003138639032
-0.0159761756658554
-0.0242653712630271
-0.0307733472436666
-0.0352699123322963
-0.0376973561942577
-0.0381708331406116
-0.0369618386030197
-0.0344590209424495
-0.0311145056039094
-0.0273866336792707
-0.023689305409789
-0.0203544963151216
-0.0176074113696813
-0.0155529147014021
-0.0141764460131526
-0.0133618377149105
-0.0129215940833091
-0.0126309320330619
-0.012258275412023
-0.0115913897752761
-0.0104640452191233
-0.0087805557996034
-0.006525273900479
-0.0037524264771491
-0.0005660543683916
0.0029005506075918
0.0065028280951082
0.0100973602384328
0.0135478423908352
0.0167293529957532
0.0195351298898458
0.0218867976218462
0.0237457863986492
0.0251174196600914
0.0260426439344882
0.0265848636627197
0.0268169250339269
0.0268078111112117
0.026614487171173
0.026281464844942
0.0258431173861026
0.0253238305449485
0.0247300937771797
0.024028405547142
0.0231123864650726
0.021775959059596
0.0197143703699111
0.0165627654641866
0.0119639411568641
0.0056502819061279
-0.0024769641458988
-0.0122921643778681
-0.0234328042715787
-0.0353356525301933
-0.0473091639578342
-0.0586215257644653
-0.0685867592692375
-0.0766368135809898
-0.0823718607425689
-0.0855864137411117
-0.0862734243273735
-0.0846099108457565
-0.0809276849031448
-0.0756709799170494
-0.0693438723683357
-0.0624556541442871
-0.0554704219102859
-0.0487629175186157
-0.0425885207951068
-0.0370760522782802
-0.0322377458214759
-0.0279863476753234
-0.0241603590548038
-0.0205592587590217
-0.0169798173010349
-0.0132426638156175
-0.0092091150581836
-0.0047942828387022
2.471916377544403e-05
0.0052105728536844
0.0106767565011978
0.0163029041141271
0.0219519436359405
0.0274880472570657
0.0327893570065498
0.037751417607069
0.0422877445816993
0.0463317483663558
0.0498370826244354
0.0527760349214077
0.0551396571099758
0.0569407939910888
0.0582154095172882
0.0590188838541507
0.0594188123941421
0.0594875924289226
0.0592967718839645
0.0589111074805259
0.0583822727203369
0.0577406473457813
0.0569740384817123
0.055992268025875
0.0546032302081584
0.0525249615311622
0.0494338497519493
0.0450359843671321
0.0391440019011497
0.0317384079098701
0.0229967106133699
0.0132854375988245
0.0031206139829009
-0.0068951286375522
-0.0161492004990577
-0.0240932460874319
-0.0302987471222877
-0.0344906002283096
-0.0365681163966655
-0.0366162434220314
-0.0348937511444091
-0.0317926965653896
-0.0277829766273498
-0.023356070742011
-0.018973346799612
-0.0150213576853275
-0.0117769017815589
-0.0093855801969766
-0.0078570786863565
-0.0070790844038128
-0.0068485317751765
-0.0069120996631681
-0.007005201652646
-0.0068837469443678
-0.006350964307785
-0.0052803587168455
-0.0036261086352169
-0.0014155111275613
0.0012685162946581
0.0043054879643023
0.0075538391247391
0.0108663383871316
0.0141050554811954
0.0171547569334507
0.0199306663125753
0.0223800726234912
0.0244816504418849
0.0262425914406776
0.0276909247040748
0.028864100575447
0.0297969970852136
0.0305116809904575
0.0310100968927145
0.031271930783987
0.0312614515423774
0.0309418644756078
0.030288303270936
0.0292914602905511
0.0279488414525985
0.0262440461665391
0.0241171848028898
0.0214379802346229
0.0180026292800903
0.013565357774496
0.0078982934355735
0.0008669979870319
-0.0075049065053462
-0.0170112326741218
-0.0272767171263694
-0.0377923138439655
-0.0479681231081485
-0.0571992844343185
-0.0649347081780433
-0.070737674832344
-0.07432821393013
-0.07560496032238
-0.07465111464262
-0.0717254430055618
-0.0672328397631645
-0.061674065887928
-0.0555835142731666
-0.0494660437107086
-0.0437446944415569
-0.0387272574007511
-0.0345900692045688
-0.0313753634691238
-0.0290029048919677
-0.0272933989763259
-0.0259996876120567
-0.0248463042080402
-0.0235717818140983
-0.021961897611618
-0.0198691431432962
-0.0172189492732286
-0.0140060633420944
-0.0102871609851717
-0.0061690369620919
-0.001788473688066
0.0027081007137894
0.0071757957339286
0.0114794010296463
0.0155031140893697
0.0191552452743053
0.0223670769482851
0.0250916164368391
0.027302773669362
0.0289953500032424
0.0301880203187465
0.0309261046350002
0.0312812328338623
0.0313467048108577
0.0312258526682853
0.0310174264013767
0.0308011099696159
0.0306136347353458
0.0304146707057952
0.0300617963075637
0.0293112453073263
0.0278478451073169
0.0253414176404476
0.0215193666517734
0.0162367857992649
0.0095258401706814
0.0016135722398757
-0.007095044478774
-0.0160644892603158
-0.0246946290135383
-0.0323923826217651
-0.0386379584670066
-0.0430359542369842
-0.045351929962635
-0.0455382764339447
-0.0437400713562965
-0.0402712784707546
-0.0355680547654628
-0.0301340892910957
-0.0244873967021703
-0.0191090237349271
-0.0143934171646833
-0.0106093641370534
-0.0078812558203935
-0.0061911172233521
-0.0053982534445822
-0.0052716531790792
-0.0055253915488719
-0.0058518815785646
-0.0059591666795313
-0.0056112641468644
-0.0046549248509109
-0.0030253399163484
-0.0007408303208649
0.0021084561012685
0.005382016301155
0.0089155873283743
0.012542437762022
0.0161072704941034
0.0194746702909469
0.02253451757133
0.0252071358263492
0.0274468064308166
0.0292421299964189
0.0306160375475883
0.031621616333723
0.032327514141798
0.0328013598918914
0.0331031493842601
0.0332865566015243
0.0333971045911312
0.0334616154432296
0.03346798568964
0.0333358272910118
0.0328913368284702
0.0318670384585857
0.0299351681023836
0.0267678499221801
0.0221100952476263
0.0158519148826599
0.0080811129882931
-0.000906964065507
-0.0106479078531265
-0.0205723978579044
-0.0300717260688543
-0.0385577045381069
-0.0455178432166576
-0.0505629517138004
-0.0534637495875358
-0.0541730560362339
-0.0528273172676563
-0.0497271977365016
-0.0453041903674602
-0.0400749556720256
-0.0345826260745525
-0.0293312929570674
-0.0247246213257312
-0.0210231989622116
-0.0183311700820922
-0.0166077092289924
-0.0156935863196849
-0.0153465131297707
-0.0152774360030889
-0.0151801910251379
-0.0147566478699445
-0.0137432347983121
-0.0119366627186536
-0.0092137698084115
-0.0055438112467527
-0.0009916704148054
0.0042901653796434
0.0100808925926685
0.0161183420568704
0.0221256557852029
0.0278354659676551
0.0330170802772045
0.0375014916062355
0.0411921888589859
0.0440613627433776
0.046137124300003
0.0474844574928283
0.0481862388551235
0.0483320020139217
0.0480088591575622
0.0472816228866577
0.0461620315909385
0.0445801615715026
0.0423735454678535
0.0393051877617836
0.0351101234555244
0.0295608229935169
0.0225380584597587
0.0140889212489128
0.004456044640392
-0.0059290770441293
-0.0164906252175569
-0.0265821702778339
-0.035568181425333
-0.0428964421153068
-0.0481558367609977
-0.0511164553463459
-0.0517462715506553
-0.0502011217176914
-0.0467954762279987
-0.0419631488621234
-0.0362131744623184
-0.0300852376967668
-0.0241019036620855
-0.01871401630342
-0.0142493154853582
-0.0108809079974889
-0.0086214784532785
-0.0073388274759054
-0.0067868009209632
-0.0066465809941291
-0.0065755266696214
-0.0062575247138738
-0.0054424703121185
-0.0039654094725847
-0.0017462987452745
0.0012199208140373
0.004873402416706
0.0090962462127208
0.0137194171547889
0.0185374766588211
0.0233322381973266
0.0278958976268768
0.0320477746427059
0.0356468260288238
0.0386005043983459
0.0408686660230159
0.0424621775746345
0.0434340424835681
0.0438610538840293
0.0438155829906463
0.0433308407664299
0.0423668287694454
0.0407844670116901
0.0383419319987297
0.0347302183508873
0.0296498648822307
0.0229075662791728
0.014497629366815
0.0046416744589805
-0.0062183337286114
-0.0174654815346002
-0.028380487114191
-0.03822872787714
-0.0463452711701393
-0.0522031933069229
-0.0554622113704681
-0.0559966973960399
-0.0538986660540103
-0.0494612082839012
-0.0431477315723896
-0.0355396531522274
-0.0272644255310297
-0.0189248863607645
-0.0110460445284843
-0.0040373001247644
0.0018351096659898
0.0064631570130586
0.0098924487829208
0.0122946072369813
0.0139247812330722
0.0150768123567104
0.0160418283194303
0.0170735120773315
0.0183642879128456
0.0200293306261301
0.0220949444919824
0.0245006047189235
0.0271210558712482
0.0297985225915908
0.0323715694248676
0.0346952714025974
0.0366531834006309
0.0381625667214393
0.0391754582524299
0.0396787896752357
0.0396937169134616
0.0392715334892272
0.0384846590459346
0.0374147705733776
0.0361368656158447
0.0346886776387691
0.033024750649929
0.0309786405414342
0.0282602459192276
0.0244970303028821
0.0193115584552288
0.0124165639281272
0.0037018498405814
-0.0067095980048179
-0.0184483863413333
-0.0309296883642673
-0.0434216856956481
-0.0551381967961788
-0.0653350725769996
-0.0733899399638176
-0.0788594186305999
-0.0815190896391868
-0.0813830643892288
-0.0786944106221199
-0.0738881230354309
-0.0675334706902504
-0.060262132436037
-0.0526958405971527
-0.0453871898353099
-0.0387773104012012
-0.0331692025065422
-0.028713459149003
-0.0254033394157886
-0.0230832919478416
-0.0214763060212135
-0.0202253218740224
-0.0189405437558889
-0.0172502696514129
-0.0148516632616519
-0.011550310999155
-0.0072790291160345
-0.0020955502986907
0.0038357786834239
0.0102724516764283
0.0169280208647251
0.02350864559412
0.0297447964549064
0.0354115739464759
0.0403391607105731
0.0444163419306278
0.0475838035345077
0.0498155318200588
0.0510968565940856
0.0514085069298744
0.0507143065333366
0.0489462465047836
0.045991338789463
0.0416928231716156
0.035876590758562
0.028406299650669
0.0192552097141742
0.0085689555853605
-0.0033031571656465
-0.0158179104328155
-0.028287686407566
-0.0399592295289039
-0.0501040741801261
-0.0581000111997127
-0.0634880438446998
-0.0660045519471168
-0.0655940473079681
-0.0623997896909713
-0.0567337423563003
-0.0490388050675392
-0.0398502275347709
-0.0297528132796287
-0.0193332321941852
-0.009133331477642
0.000391773879528
0.0089083202183246
0.0162251368165016
0.0222956463694572
0.0272021312266588
0.031131749972701
0.0343475602567195
0.0371477454900741
0.0398177467286586
0.0425938181579113
0.0456446260213851
0.049064427614212
0.0528746843338012
0.0570329427719116
0.0614452585577964
0.0659787505865097
0.070473663508892
0.0747549384832382
0.0786428898572921
0.0819649100303649
0.0845699235796928
0.0863455310463905
0.087232306599617
0.0872230380773544
0.0863478183746337
0.0846612527966499
0.0822358131408691
0.0791472792625427
0.075443111360073
0.0711023434996604
0.0660059601068496
0.0599336959421634
0.0525971725583076
0.0437110550701618
0.0330872200429439
0.02072174847126
0.0068459101021289
-0.0080720968544483
-0.0233714003115892
-0.0382788628339767
-0.0520091578364372
-0.0638591796159744
-0.0732792988419532
-0.0799209773540496
-0.083662137389183
-0.0846069380640983
-0.0830628871917724
-0.0795026421546936
-0.0745100677013397
-0.0687101185321807
-0.062693677842617
-0.0569522008299827
-0.0518327951431274
-0.0475169792771339
-0.0440209656953811
-0.0412184931337833
-0.0388859286904335
-0.0367548316717147
-0.0345546603202819
-0.0320445075631141
-0.0290394835174083
-0.0254293121397495
-0.0211864598095417
-0.0163662079721689
-0.0110998302698135
-0.0055804587900638
-4.1346997022628784e-05
0.005271028727293
0.0101240314543247
0.0143245533108711
0.0177400819957256
0.020305823534727
0.0220168568193912
0.0229156278073787
0.0230816230177879
0.0226245820522308
0.0216777399182319
0.020384918898344
0.0188820995390415
0.0172761194407939
0.0156168490648269
0.0138651877641677
0.0118726156651973
0.0093884542584419
0.0060999616980552
0.0017004311084747
-0.0040290020406246
-0.0111483335494995
-0.019518245011568
-0.0287956111133098
-0.0384674482047557
-0.0479197092354297
-0.0565216802060604
-0.0637050345540046
-0.0690278708934784
-0.0722199827432632
-0.0732061117887497
-0.0721045434474945
-0.0692006796598434
-0.0649003162980079
-0.0596728362143039
-0.0539925172924995
-0.0482848063111305
-0.0428868532180786
-0.0380270630121231
-0.0338184535503387
-0.0302593391388654
-0.027243323624134
-0.0245844926685094
-0.0220540929585695
-0.0194187685847282
-0.0164757426828145
-0.013081319630146
-0.0091671692207455
-0.0047429781407117
0.0001101922243833
0.0052522905170917
0.0105056967586278
0.0156855937093496
0.020625265315175
0.0251847859472036
0.0292493924498558
0.032728761434555
0.0355606749653816
0.0377163551747798
0.0392013415694236
0.0400503911077976
0.0403209328651428
0.0400861948728561
0.0394268780946731
0.0384251847863197
0.0371629111468791
0.0357202515006065
0.0341742970049381
0.0325953215360641
0.031031958758831
0.0294791813939809
0.0278413332998752
0.0259148031473159
0.0234070755541324
0.0199937690049409
0.0153975337743759
0.0094633251428604
0.0022118780761957
-0.0061384290456771
-0.0151868099346756
-0.0244019031524658
-0.0331977680325508
-0.0410115532577037
-0.0473657250404357
-0.0519113764166832
-0.054458811879158
-0.054997406899929
-0.0536936447024345
-0.0508617311716079
-0.0469172522425651
-0.0423224866390228
-0.0375279672443866
-0.0329203456640243
-0.0287863872945308
-0.0252961553633213
-0.0225026123225688
-0.0203526355326175
-0.0187062434852123
-0.017361931502819
-0.0160845592617988
-0.0146342916414141
-0.0127998571842908
-0.0104332771152257
-0.0074724908918142
-0.003943788819015
5.151238292455673e-05
0.0043594203889369
0.0088002532720565
0.0131941651925444
0.0173785425722599
0.0212180707603693
0.0246112532913684
0.0274919234216213
0.029826957732439
0.0316147729754447
0.0328838005661964
0.0336889140307903
0.03410355001688
0.0342063158750534
0.034070249646902
0.033761229366064
0.0333396978676319
0.0328578576445579
0.0323481447994709
0.0318000465631485
0.0311310701072216
0.0301703587174415
0.0286708325147628
0.0263512022793293
0.02295858040452
0.0183354765176773
0.0124750193208456
0.0055522099137306
-0.0020827329717576
-0.00995316170156
-0.0175297111272811
-0.024304524064064
-0.0298494976013898
-0.0338538810610771
-0.0361455827951431
-0.0366995073854923
-0.0356303416192531
-0.0331694483757019
-0.0296319723129272
-0.0253794007003307
-0.0207817088812589
-0.016182105988264
-0.0118634905666112
-0.0080190673470497
-0.004739012569189
-0.0020194873213768
0.0002170540392398
0.0021013133227825
0.0037962477654218
0.005473755300045
0.0072906278073787
0.0093685816973447
0.0117816878482699
0.0145518388599157
0.0176527202129364
0.0210190005600452
0.0245558843016624
0.0281485151499509
0.031673889607191
0.0350160785019397
0.0380768999457359
0.0407758653163909
0.043048333376646
0.0448499135673046
0.0461626350879669
0.0469962395727634
0.0473840534687042
0.0473769344389438
0.0470371022820472
0.0464334599673748
0.0456383787095546
0.044720709323883
0.0437339320778846
0.0427006408572196
0.0415908023715019
0.0402999781072139
0.0386408939957618
0.0363584421575069
0.0331752598285675
0.0288599617779254
0.0232949219644069
0.0165229365229606
0.0087603460997343
0.0003753136843442
-0.0081603471189737
-0.0163362734019756
-0.0236730128526687
-0.0297811776399612
-0.0344003364443779
-0.0374141708016395
-0.0388446077704429
-0.0388327278196811
-0.0376176573336124
-0.035515047609806
-0.0328828990459442
-0.030074268579483
-0.0273933038115501
-0.0250641740858554
-0.0232135951519012
-0.0218687187880277
-0.0209692046046257
-0.0203883610665798
-0.0199602749198675
-0.0195100605487823
-0.01888108253479
-0.0179542489349842
-0.0166572798043489
-0.0149640077725052
-0.012891236692667
-0.0104998042806983
-0.0078926514834165
-0.0052013369277119
-0.002565826755017
-0.0001162299886345
0.0020418381318449
0.0038362815976142
0.0052287615835666
0.0062107369303703
0.006800047121942
0.0070360880345106
0.0069727934896945
0.0066717779263854
0.0061981454491615
0.0056188516318798
0.0049975151196122
0.0043841609731316
0.00380948651582
0.0032870303839445
0.002814426086843
0.0023645535111427
0.0018661692738533
0.0011842800304293
0.0001136343926191
-0.0016030864790081
-0.004229879938066
-0.0079785427078604
-0.0129538718611001
-0.0191134586930274
-0.0262491181492805
-0.0339956693351268
-0.0418725870549678
-0.0493546538054943
-0.0559470877051353
-0.0612409636378288
-0.0649457424879074
-0.0669040530920028
-0.0670923441648483
-0.0656109228730201
-0.0626644119620323
-0.0585340969264507
-0.0535466037690639
-0.0480437688529491
-0.0423533841967582
-0.0367591828107833
-0.0314764790236949
-0.0266412124037742
-0.0223125722259283
-0.0184842124581336
-0.0150971952825784
-0.0120510179549455
-0.0092140901833772
-0.0064374096691608
-0.0035746917128562
-0.0005047433078289
0.0028533525764942
0.006535505875945
0.0105355381965637
0.014811310917139
0.0192911550402641
0.023882120847702
0.0284819491207599
0.03299231082201
0.0373267568647861
0.0414091683924198
0.0451702214777469
0.0485506951808929
0.0515067800879478
0.0540113076567649
0.0560550093650817
0.0576493367552757
0.0588248744606971
0.059623148292303
0.0600865744054317
0.0602526366710662
0.0601538196206092
0.0598188415169715
0.0592670068144798
0.0584886670112609
0.0574140101671218
0.0558871254324913
0.0536685809493064
0.0504755936563015
0.0460483059287071
0.0402219519019126
0.0329854413866996
0.0245118997991085
0.0151531854644417
0.0053989896550774
-0.0041881864890456
-0.0130457766354084
-0.0206780284643173
-0.0267069302499294
-0.0309002064168453
-0.0331778228282928
-0.0336078628897666
-0.0323978513479232
-0.0298732705414295
-0.0264372006058692
-0.0225179158151149
-0.0185160525143146
-0.0147631000727415
-0.0114972526207566
-0.0088527426123619
-0.0068601267412304
-0.005457654595375
-0.0045090829953551
-0.0038255266845226
-0.0031924247741699
-0.0023980252444744
-0.0012592813000082
0.0003544464707374
0.0025027086958289
0.0051686661317944
0.0082692429423332
0.0116732604801654
0.0152209196239709
0.0187440365552902
0.022085228934884
0.0251101627945899
0.0277133621275424
0.0298232901841402
0.0314057283103466
0.0324608162045478
0.0330145433545112
0.03311063721776
0.0328058190643787
0.0321642383933067
0.0312484428286552
0.0301127359271049
0.0288026425987482
0.0273571889847517
0.0258109495043754
0.0241921078413724
0.0225120801478624
0.0207442473620176
0.0187965370714664
0.0164955034852027
0.0135997012257575
0.0098433978855609
0.0049990452826023
-0.0010560769587755
-0.0082874856889247
-0.0164856519550085
-0.0252874232828617
-0.0342206619679927
-0.0427589789032936
-0.0503830164670944
-0.0566394738852977
-0.0611881017684936
-0.0638333112001419
-0.064538724720478
-0.0634235963225364
-0.0607424601912498
-0.0568526089191436
-0.052175935357809
-0.0471568554639816
-0.0422149524092674
-0.0376992896199226
-0.0338581390678882
-0.030826311558485
-0.0286239422857761
-0.0271668173372745
-0.0262891985476017
-0.0257750675082206
-0.0253907088190317
-0.0249147303402423
-0.0241640899330377
-0.0230102501809597
-0.0213834252208471
-0.0192712619900703
-0.0167152024805545
-0.0138013623654842
-0.0106437429785728
-0.0073646428063511
-0.0040814792737364
-0.000900687649846
0.0020898538641631
0.0048298016190528
0.0072873500175774
0.0094515737146139
0.0113243106752634
0.0129151931032538
0.0142387533560395
0.0153141198679804
0.0161673426628112
0.0168318841606378
0.0173413306474685
0.01771199144423
0.017918974161148
0.0178736913949251
0.0174113810062408
0.0163005031645298
0.0142822787165641
0.0111318901181221
0.0067237396724522
0.0010833023115992
-0.0055897692218422
-0.0129340942949056
-0.0204711128026247
-0.0276694726198911
-0.0340123586356639
-0.0390561670064926
-0.0424770899116992
-0.0441044755280017
-0.0439336076378822
-0.0421123802661895
-0.0389132350683212
-0.0347027704119682
-0.029905904084444
-0.0249604806303977
-0.0202671829611063
-0.0161441899836063
-0.0127939153462648
-0.010285971686244
-0.0085591301321983
-0.007442507892847
-0.0066926963627338
-0.006040696054697
-0.0052385069429874
-0.0040927100926637
-0.0024791471660137
-0.0003442037850618
0.0022971834987401
0.0053644962608814
0.0087240915745496
0.0122156478464603
0.0156828109174966
0.0189955290406942
0.022061375901103
0.0248282589018344
0.0272791311144828
0.0294224452227354
0.0312843061983585
0.0329034477472305
0.0343267321586608
0.0356014594435691
0.0367650166153907
0.0378362834453582
0.0388051606714725
0.0396143943071365
0.0401397719979286
0.0401800312101841
0.039463460445404
0.0376757718622684
0.0345124192535877
0.0297493953257799
0.0233122110366821
0.0153193939477205
0.0060905367136001
-0.0038772244006395
-0.0139597449451684
-0.0234790463000535
-0.0317838303744792
-0.038320142775774
-0.0426888316869735
-0.044687382876873
-0.0443252995610237
-0.0418090634047985
-0.0375035777688026
-0.0318797715008258
-0.0254577472805976
-0.0187523402273654
-0.0122243277728557
-0.0062391385436058
-0.0010370351374149
0.0032798796892166
0.0067411735653877
0.0094828139990568
0.0117111150175333
0.0136672854423522
0.0155922211706638
0.0176904499530792
0.0201050359755754
0.0229079388082027
0.0260994564741849
0.0296164378523826
0.0333496071398258
0.0371631830930709
0.0409107655286788
0.0444472357630729
0.0476378798484802
0.0503651946783065
0.0525351837277412
0.0540827736258506
0.0549728795886039
0.0551989451050758
0.054782573133707
0.0537720397114753
0.0522382706403732
0.050268355756998
0.0479553863406181
0.0453820079565048
0.0425929576158523
0.0395585224032402
0.0361454337835311
0.0321177430450916
0.0271795615553855
0.0210508331656456
0.0135520193725824
0.0046712844632565
-0.0054020071402192
-0.0162808448076248
-0.0274200327694416
-0.0381862558424472
-0.0479415208101272
-0.0561183094978332
-0.0622769482433795
-0.0661456957459449
-0.0676415860652923
-0.0668691024184227
-0.0640978217124939
-0.0597234591841697
-0.0542200170457363
-0.0480894781649112
-0.041812065988779
-0.0358006730675697
-0.0303640346974134
-0.0256843846291303
-0.0218158327043056
-0.0187017209827899
-0.0162005480378866
-0.0141129400581121
-0.0122099481523036
-0.0102651771157979
-0.0080874944105744
-0.0055449781939387
-0.0025736019015312
0.0008268440142273
0.0046017770655453
0.008651003241539
0.0128391310572624
0.0170104447752237
0.0210104957222938
0.0247094929218292
0.0280142445117235
0.0308638419955968
0.0332204475998878
0.0350673235952854
0.0364133454859256
0.0372956022620201
0.0377758294343948
0.0379262864589691
0.0377991907298564
0.0373847782611846
0.0365761145949363
0.0351597964763641
0.0328417159616947
0.029307896271348
0.0243098717182874
0.0177468750625848
0.0097156707197427
0.0005182418972253
-0.0093672461807727
-0.0193443857133388
-0.0287736915051937
-0.0370496995747089
-0.0436691418290138
-0.0482819303870201
-0.0507187284529209
-0.0509960204362869
-0.0493031218647956
-0.045974027365446
-0.0414466708898544
-0.0362143889069557
-0.0307746920734643
-0.0255789868533611
-0.0209903120994567
-0.0172533486038446
-0.0144756771624088
-0.012625889852643
-0.0115534029901027
-0.0110217640176415
-0.0107465740293264
-0.0104355486109852
-0.0098259458318352
-0.008712725713849
-0.0069655547849833
-0.0045367064885795
-0.0014605523319914
0.0021572513505816
0.0061617963947355
0.0103779975324869
0.0146337263286113
0.0187683664262294
0.0226374175399541
0.026124132797122
0.0291523952037096
0.0316918678581714
0.0337539538741111
0.0353822335600853
0.0366417728364467
0.0376053564250469
0.0383291617035865
0.0388157926499843
0.0389740951359272
0.038596011698246
0.0373725034296512
0.0349521338939666
0.0310222841799259
0.0253896601498127
0.01804412715137
0.0091914497315883
-0.0007537230849266
-0.0112127447500824
-0.0215174742043018
-0.0309988446533679
-0.0390689745545387
-0.0452830754220485
-0.04937594383955
-0.0512732043862342
-0.051083318889141
-0.0490758642554283
-0.0456451177597045
-0.0412587970495224
-0.0364031456410884
-0.0315348431468009
-0.0270370747894048
-0.0231803096830844
-0.020097991451621
-0.0177837535738945
-0.0161103773862123
-0.0148641224950551
-0.0137849878519773
-0.0126074450090527
-0.011097602546215
-0.009081482887268
-0.0064604971557855
-0.0032151632476598
0.0006006928160786
0.0048758061602711
0.009461535140872
0.0141882486641407
0.018880657851696
0.0233753882348537
0.027536541223526
0.031263206154108
0.0344897210597991
0.0371839106082916
0.0393427945673465
0.0409848093986511
0.0421414002776145
0.0428481996059417
0.0431356355547905
0.0430177189409732
0.0424739755690097
0.0414249822497367
0.039712056517601
0.0370977520942688
0.0333014652132988
0.0280681047588586
0.0212488733232021
0.0128693860024213
0.0031653568148612
-0.0074250940233469
-0.0183091051876544
-0.0288136899471282
-0.0382701382040977
-0.046092115342617
-0.0518381893634796
-0.0552528165280818
-0.0562817454338073
-0.055064246058464
-0.0519094355404377
-0.0472608059644699
-0.0416464731097221
-0.0356148295104503
-0.0296672284603118
-0.0242046136409044
-0.0194955933839082
-0.0156640261411666
-0.012694165110588
-0.0104534998536109
-0.0087293060496449
-0.0072686066851019
-0.0058156661689281
-0.004146653227508
-0.0020955465734004
0.0004335138946771
0.0034615360200405
0.0069334935396909
0.0107259843498468
0.0146669540554285
0.0185629986226558
0.0222261697053909
0.0254946798086166
0.0282467380166053
0.0304072741419076
0.031948484480381
0.032885730266571
0.0332698300480842
0.0331780686974525
0.0327030271291732
0.0319372788071632
0.0309549234807491
0.029787914827466
0.0283969137817621
0.0266504865139722
0.0243316534906625
0.0211794003844261
0.0169545598328113
0.0115074664354324
0.0048303455114364
-0.0029117763042449
-0.0113776884973049
-0.020080167800188
-0.0284469071775674
-0.0358977802097797
-0.041917473077774
-0.0461088344454765
-0.0482288151979446
-0.0482152439653873
-0.0461995154619216
-0.042491503059864
-0.037536472082138
-0.0318573042750358
-0.025992764160037
-0.0204391162842512
-0.0156013937667012
-0.0117572452872991
-0.0090375524014234
-0.007427392527461
-0.0067855957895517
-0.006878568790853
-0.0074201505631208
-0.0081089632585644
-0.0086625479161739
-0.008850391022861
-0.0085221203044056
-0.0076216086745262
-0.0061807660385966
-0.0042977919802069
-0.0021098908036947
0.0002331789582967
0.0025897901505231
0.004839077591896
0.0068884305655956
0.0086761433631181
0.0101685728877782
0.0113570056855678
0.0122558027505874
0.0128991678357124
0.0133391376584768
0.0136417765170335
0.0138734132051467
0.0140796918421983
0.0142622329294681
0.0143528673797845
0.0141934696584939
0.0135367400944232
0.0120774377137422
0.0095112416893243
0.0056070555001497
0.0002746973186731
-0.0063885822892189
-0.0140869729220867
-0.0223548747599124
-0.030615858733654
-0.0382573455572128
-0.0447100214660167
-0.0495183318853378
-0.0523873418569564
-0.0532034486532211
-0.0520336329936981
-0.0491072945296764
-0.0447852164506912
-0.0395177714526653
-0.0337939113378524
-0.0280866604298353
-0.0228022225201129
-0.0182385593652725
-0.014558907598257
-0.0117839332669973
-0.009801972657442
-0.0083945346996188
-0.0072789499536156
-0.0061651673167943
-0.0048063369467854
-0.0030267965048551
-0.0007302397862076
0.0021048672497272
0.0054380344226956
0.0091825956478714
0.0132206138223409
0.0174151398241519
0.0216200891882181
0.0256894268095493
0.0294888280332088
0.032911404967308
0.0358929485082626
0.0384173914790153
0.0405067764222621
0.0422030612826347
0.0435539186000824
0.0446034893393516
0.0453797280788421
0.0458694212138652
0.0459844544529914
0.04554233700037
0.0442826375365257
0.0419201478362083
0.0382172688841819
0.0330532416701316
0.026473119854927
0.018706064671278
0.0101495524868369
0.0013218792155385
-0.0072089927271008
-0.0149020589888095
-0.0213043093681335
-0.026089359074831
-0.0290796086192131
-0.0302542094141244
-0.0297405235469341
-0.0277910456061363
-0.0247522834688425
-0.0210301950573921
-0.0170501545071601
-0.0132098691537976
-0.0098328487947583
-0.0071326745674014
-0.0051942504942417
-0.0039750784635543
-0.0033277943730354
-0.0030397213995456
-0.0028767958283424
-0.0026192869991064
-0.0020846854895353
-0.001139611005783
0.0002952925860881
0.0022458378225564
0.0046900818124413
0.007565994746983
0.010776899755001
0.014196028932929
0.0176773574203252
0.0210753511637449
0.0242651551961898
0.0271547827869653
