bvp
-0.0720269978046417
-0.069992758333683
-0.0682087913155555
-0.0667305886745452
-0.0655316114425659
-0.0645124465227127
-0.0635223463177681
-0.0623861253261566
-0.0609304420650005
-0.0590096563100814
-0.0565302856266498
-0.0534684024751186
-0.0498760342597961
-0.0458734855055809
-0.041625540703535
-0.0373101830482482
-0.0330954231321811
-0.0291282944381237
-0.0255274586379528
-0.0223738476634025
-0.0197030417621135
-0.0175065584480762
-0.0157431289553642
-0.0143528971821069
-0.0132688861340284
-0.0124276522547006
-0.0117794219404459
-0.0112906973809003
-0.0109360590577125
-0.0106854811310768
-0.0104937497526407
-0.0102964751422405
-0.0100190881639719
-0.0096014495939016
-0.0090327840298414
-0.0083856880664825
-0.0078331194818019
-0.0076374318450689
-0.008114056661725
-0.0095789581537246
-0.0122869256883859
-0.0163695719093084
-0.0217909514904022
-0.0283367354422807
-0.0356355644762516
-0.0432026870548725
-0.0504986010491848
-0.0569953136146068
-0.0622411593794822
-0.0659119933843612
-0.0678358674049377
-0.0679895281791687
-0.0664765760302543
-0.0634953379631042
-0.0593003071844577
-0.0541628487408161
-0.0483400449156761
-0.0420581623911857
-0.0355070121586322
-0.0288377609103918
-0.0221618134528398
-0.0155497621744871
-0.0090312659740448
-0.0026017650961875
0.0037599653005599
0.0100688217207789
0.0163160450756549
0.0224636401981115
0.0284490119665861
0.0341944545507431
0.0396160744130611
0.0446288585662841
0.0491489246487617
0.0530996024608612
0.0564229004085063
0.0590887181460857
0.0610996037721633
0.0624939352273941
0.0633448660373687
0.0637520551681518
0.06382767111063
0.0636790543794632
0.063392624258995
0.0630269199609756
0.0626155212521553
0.0621716305613517
0.0616909936070442
0.06115597859025
0.0605396926403045
0.0598024949431419
0.0588774643838405
0.0576541051268577
0.0559726394712924
0.0536346286535263
0.0504331886768341
0.0462002828717231
0.0408533960580825
0.0344225391745567
0.0270560439676046
0.0190125685185194
0.0106408521533012
0.0023450397420674
-0.005461377557367
-0.0124047044664621
-0.0181930866092443
-0.0226438306272029
-0.0256962087005376
-0.0274090617895126
-0.0279407445341348
-0.0275191776454448
-0.0264102537184953
-0.0248861331492662
-0.0231998600065708
-0.0215699896216392
-0.0201666913926601
-0.0190963074564933
-0.0183920562267303
-0.0180154405534267
-0.0178687702864408
-0.0178168732672929
-0.0177127718925476
-0.0174212343990802
-0.0168354585766792
-0.0158876776695251
-0.0145557885989546
-0.0128614883869886
-0.0108578009530901
-0.0086147272959351
-0.0062118591740727
-0.0037366319447755
-0.0012816879898309
0.0010620069224387
0.003215521806851
0.0051210233941674
0.0067447968758642
0.0080767916515469
0.0091306827962398
0.009941466152668
0.0105587039142847
0.011038115248084
0.0114315971732139
0.0117784664034843
0.0121033154428005
0.0124184023588895
0.0127220479771494
0.012986128218472
0.013136837631464
0.0130417421460151
0.0125125152990221
0.0113271027803421
0.0092716738581657
0.0061935102567076
0.0020463168621063
-0.0030864924192428
-0.0089933965355157
-0.0153588121756911
-0.0218027718365192
-0.0279248226433992
-0.033345453441143
-0.0377448983490467
-0.0408985204994678
-0.0427018851041793
-0.0431761741638183
-0.0424546971917152
-0.0407586432993412
-0.038366824388504
-0.0355819351971149
-0.0326964110136032
-0.0299614891409873
-0.0275621302425861
-0.0256012827157974
-0.0240979976952075
-0.022998297587037
-0.0221937466412782
-0.0215426068753004
-0.0208890885114669
-0.0200825370848178
-0.0189987402409315
-0.0175550691783428
-0.0157131701707839
-0.0134743582457304
-0.0108724040910601
-0.0079648392274975
-0.0048247827216982
-0.0015347562730312
0.0018180962651968
0.0051465798169374
0.0083684008568525
0.0114116054028272
0.0142196677625179
0.0167581811547279
0.0190235376358032
0.021041389554739
0.0228490531444549
0.0244775116443634
0.0259446445852518
0.0272564925253391
0.0284110903739929
0.0294015258550643
0.0302166827023029
0.030835572630167
0.0312107317149639
0.0312478151172399
0.0307969748973846
0.0296663269400596
0.0276591628789901
0.0246264711022377
0.02051467821002
0.0153884934261441
0.0094271935522556
0.0029088882729411
-0.003809860907495
-0.0103234304115176
-0.0162178073078393
-0.0211181789636611
-0.0247336365282535
-0.0268874056637287
-0.0275289081037044
-0.0267330352216959
-0.0246892087161541
-0.0216782633215188
-0.0180385671555995
-0.0141236782073974
-0.0102562811225652
-0.0066937413066625
-0.0036147385835647
-0.0011162683367729
0.0007870234549045
0.0021565351635217
0.0031158830970525
0.003833170980215
0.0044983718544244
0.0052957776933908
0.006377674639225
0.0078453253954648
0.0097406925633549
0.0120497681200504
0.0147123578935861
0.0176331680268049
0.0206943936645984
0.0237668752670288
0.0267157796770334
0.0294065289199352
0.0317170582711696
0.0335525311529636
0.0348568558692932
0.0356181114912033
0.0358650721609592
0.0356580689549446
0.0350806787610054
0.0342291891574859
0.0331963375210762
0.0320522375404834
0.0308223702013492
0.0294667184352874
0.0278724730014801
0.0258644465357065
0.0232306942343711
0.0197661444544792
0.0153301041573286
0.0098986197263002
0.0035918122157454
-0.0033304849639534
-0.0104990843683481
-0.017483027651906
-0.0238449294120073
-0.0291940327733755
-0.0332300625741481
-0.0357728488743305
-0.0367737188935279
-0.0363088138401508
-0.034560814499855
-0.0317986011505126
-0.0283535085618495
-0.0245829690247774
-0.0208245627582073
-0.0173544697463512
-0.0143607333302497
-0.0119335306808352
-0.0100692054256796
-0.0086836284026503
-0.0076319244690239
-0.0067347651347517
-0.0058103464543819
-0.004703551530838
-0.0033039590343832
-0.0015520579181611
0.0005626545753329
0.0030051416251808
0.0056983726099133
0.0085337860509753
0.0113888001069426
0.014143755659461
0.0166944470256567
0.0189601443707942
0.0208876952528953
0.0224507674574852
0.0236431919038295
0.0244715716689825
0.0249547623097896
0.0251277647912502
0.0250398628413677
0.0247459579259157
0.0242943484336137
0.0237045064568519
0.0229353383183479
0.0218641087412834
0.0202939454466104
0.0179890263825655
0.0147273484617471
0.0103588951751589
0.0048532271757721
-0.0016780570149421
-0.0089867077767848
-0.0167145617306232
-0.024437092244625
-0.0317162945866584
-0.0381499007344245
-0.0434097200632095
-0.0472667217254638
-0.0496048629283905
-0.0504285581409931
-0.0498577877879142
-0.0481037832796573
-0.0454370789229869
-0.0421599596738815
-0.038577914237976
-0.0349650830030441
-0.0315337255597114
-0.0284190457314252
-0.025678489357233
-0.0233013778924942
-0.0212254356592893
-0.0193540584295988
-0.0175704136490821
-0.0157487336546182
-0.0137681663036346
-0.0115326410159468
-0.0089884623885154
-0.0061290855519473
-0.0029882951639592
0.0003694822080433
0.0038576340302824
0.007374910172075
0.0108130117878317
0.0140652488917112
0.0170353297144174
0.0196461081504821
0.0218484103679656
0.0236258991062641
0.0249943025410175
0.0259985253214836
0.0267049372196197
0.0271863974630832
0.0275080557912588
0.0277180261909961
0.0278373267501592
0.0278428308665752
0.027646841481328
0.0270880926400423
0.025943998247385
0.0239652916789054
0.0209288094192743
0.0166941788047552
0.0112478323280811
0.0047253491356968
-0.0025906662922352
-0.0102979764342308
-0.0179273765534162
-0.0250094290822744
-0.0311334878206253
-0.0359879061579704
-0.0393824949860572
-0.0412540100514888
-0.0416558757424354
-0.0407368317246437
-0.0387138836085796
-0.0358450338244438
-0.0324033126235008
-0.0286497473716735
-0.0248081944882869
-0.0210494473576545
-0.017488831654191
-0.0141944456845521
-0.0112011265009641
-0.0085231661796569
-0.0061555719003081
-0.0040647648274898
-0.0021801516413688
-0.0003939885646104
0.0014285584911704
0.0034313360229134
0.0057449331507086
0.0084645515307784
0.0116342520341277
0.0152410166338086
0.019217662513256
0.0234543606638908
0.0278179720044136
0.0321732684969902
0.0363961532711982
0.0403747707605361
0.0440073534846305
0.0472065582871437
0.0499072968959808
0.0520708709955215
0.0536855868995189
0.0547664761543273
0.0553515367209911
0.0554910413920879
0.0552290230989456
0.0545782372355461
0.053495168685913
0.0518667586147785
0.0495189800858497
0.0462494567036628
0.0418742783367633
0.0362758561968803
0.0294451713562011
0.0215088948607444
0.0127301244065165
0.0034840553998947
-0.0057843867689371
-0.0146153094246983
-0.0225884653627872
-0.0293644946068525
-0.0347105860710144
-0.0385115705430507
-0.04076674208045
-0.0415781438350677
-0.0411343574523925
-0.0396886989474296
-0.0375351533293724
-0.0349843353033065
-0.0323345251381397
-0.0298385806381702
-0.0276761185377836
-0.0259363781660795
-0.0246156118810176
-0.0236325822770595
-0.0228549689054489
-0.0221252776682376
-0.0212825816124677
-0.0201810151338577
-0.0187069103121757
-0.0167932342737913
-0.0144254621118307
-0.0116379652172327
-0.0085087083280086
-0.0051562669686973
-0.0017313016578555
0.0016028024256229
0.0046928329393267
0.0074143642559647
0.0096840299665927
0.0114630041643977
0.0127521259710192
0.0135850496590137
0.0140215530991554
0.0141388121992349
0.0140222106128931
0.0137561960145831
0.0134128592908382
0.013040829449892
0.0126540623605251
0.0122135151177644
0.0116089638322591
0.0106612239032983
0.0091511346399784
0.006864508613944
0.0036422312259674
-0.000572707504034
-0.0057047121226787
-0.011543626897037
-0.017770878970623
-0.0240045804530382
-0.0298520438373088
-0.0349563807249069
-0.0390284284949302
-0.0418641492724418
-0.0433547720313072
-0.0434946045279502
-0.0423797741532325
-0.0401918888092041
-0.0371712334454059
-0.0335877574980258
-0.0297156684100627
-0.0258099008351564
-0.0220811367034912
-0.0186751913279294
-0.0156644564121961
-0.0130512062460184
-0.0107784774154424
-0.0087449885904788
-0.0068224873393774
-0.0048757884651422
-0.0027861166745424
-0.0004732990928459
0.0020929786842316
0.0048959800042212
0.007882029749453
0.0109725454822182
0.0140762943774461
0.0171001870185136
0.0199585072696208
0.0225811768323183
0.024919718503952
0.0269485767930746
0.0286610461771488
0.0300617050379514
0.0311604477465152
0.0319736711680889
0.0325268357992172
0.0328478440642356
0.0329575389623642
0.0328687019646167
0.0325907692313194
0.0321346819400787
0.0315159894526004
0.0307530611753463
0.0298573151230812
0.0288165397942066
0.0275781713426113
0.0260412339121103
0.0240640826523304
0.0214904136955738
0.0181888192892074
0.0140951564535498
0.009241372346878
0.0037591606378555
-0.0021359976381063
-0.0081696668639779
-0.0140378549695014
-0.0194379650056362
-0.0240985825657844
-0.0278045423328876
-0.0304128788411617
-0.0318619683384895
-0.0321761146187782
-0.031460203230381
-0.0298837013542652
-0.0276606827974319
-0.0250284429639577
-0.0222235098481178
-0.0194595865905284
-0.0169133320450782
-0.0147127276286482
-0.0129232471808791
-0.0115387020632624
-0.010484623722732
-0.0096364123746752
-0.008847190067172
-0.0079744942486286
-0.0069001810625195
-0.0055456720292568
-0.0038812016136944
-0.0019263974390923
0.0002547753974795
0.0025648903101682
0.0048915417864918
0.007125231437385
0.0091675510630011
0.0109338946640491
0.0123592922464013
0.0134061658754944
0.0140678705647587
0.0143667003139853
0.0143473362550139
0.0140675129368901
0.0135905584320425
0.01298104878515
0.0123001830652356
0.0116005530580878
0.0109229870140552
0.0102981897071003
0.0097524235025048
0.0093082254752516
0.0089747561141848
0.0087370630353689
0.0085513452067971
0.008339031599462
0.0079765962436795
0.0072930753231048
0.0060858307406306
0.0041535105556249
0.0013375151902437
-0.0024404525756835
-0.0071548400446772
-0.0126700419932603
-0.0187507905066013
-0.0250872746109962
-0.03133250400424
-0.0371464267373085
-0.0422358959913253
-0.0463794879615306
-0.0494358390569686
-0.051343061029911
-0.0521153695881366
-0.0518365800380706
-0.0506473369896411
-0.0487272143363952
-0.0462769940495491
-0.0435015335679054
-0.0405917093157768
-0.0377090945839881
-0.0349751971662044
-0.0324610471725463
-0.0301777049899101
-0.0280794017016887
-0.0260841492563486
-0.0240976102650165
-0.0220280084758996
-0.0197946801781654
-0.0173345170915126
-0.0146061573177576
-0.0115924663841724
-0.0083009898662567
-0.0047613978385925
-0.0010211821645498
0.0028592925518751
0.0068115126341581
0.0107622053474187
0.0146391727030277
0.0183809325098991
0.0219400916248559
0.0252738259732723
0.0283329635858535
0.0310631766915321
0.0334161110222339
0.0353605449199676
0.0368890985846519
0.0380200669169425
0.0387948676943779
0.0392736569046974
0.0395283512771129
0.0396308153867721
0.0396430753171443
0.0396146662533283
0.0395779758691787
0.039533857256174
0.0394318513572216
0.0391557700932025
0.0385267660021781
0.0373298227787017
0.0353595875203609
0.0324732959270477
0.0286348983645439
0.023938775062561
0.0186069011688232
0.0129586942493915
0.0073608215898275
0.0021707341074943
-0.0023118592798709
-0.0058763045817613
-0.0084116030484437
-0.0099008567631244
-0.0104097947478294
-0.010073522105813
-0.0090783722698688
-0.0076379776000976
-0.0059668980538845
-0.0042566172778606
-0.0026568919420242
-0.0012629758566617
-0.000110637396574
0.0008195228874683
0.0015921127051115
0.0023051872849464
0.003075310960412
0.0040167663246393
0.0052163228392601
0.0067097228020429
0.0084665138274431
0.0103905135765671
0.0123415933921933
0.0141718303784728
0.0157607477158308
0.0170402750372886
0.0180057063698768
0.0187103599309921
0.0192466732114553
0.0197222214192152
0.0202374830842018
0.0208692643791437
0.0216618217527866
0.0226245671510696
0.0237354915589094
0.0249493103474378
0.0262052025645971
0.0274310577660799
0.0285498034209013
0.0294929295778274
0.0302139036357402
0.0306913405656814
0.030920261517167
0.0308933146297931
0.0305763762444257
0.0298885237425565
0.0286982953548431
0.0268427450209856
0.0241643525660038
0.0205522719770669
0.0159784443676471
0.0105247385799884
0.0043888520449399
-0.0021412726491689
-0.0087304571643471
-0.0150369266048073
-0.0207476317882537
-0.025608891621232
-0.0294472333043813
-0.0321782082319259
-0.0338060781359672
-0.034417025744915
-0.0341663509607315
-0.0332598686218261
-0.0319310910999774
-0.0304161198437213
-0.0289280973374843
-0.0276347175240516
-0.0266452953219413
-0.0260096695274114
-0.0257233045995235
-0.0257341992110013
-0.025951100513339
-0.0262543689459562
-0.0265120547264814
-0.026598647236824
-0.0264102183282375
-0.0258730258792638
-0.0249469727277755
-0.0236267894506454
-0.0219402499496936
-0.0199414081871509
-0.0177010539919137
-0.0152972629293799
-0.0128107359632849
-0.0103267282247543
-0.0079339426010847
-0.0057141939178109
-0.0037307832390069
-0.0020240498706698
-0.0006128018721938
0.0005051735788583
0.0013545099645853
0.001978613436222
0.0024290159344673
0.0027551604434847
0.0029997192323207
0.0031972117722034
0.0033731712028384
0.0035398611798882
0.0036806985735893
0.0037245815619826
0.003528406843543
0.0028838571161031
0.0015466064214706
-0.000720121897757
-0.0040945447981357
-0.0086492160335183
-0.0143189178779721
-0.0208903830498456
-0.0280193723738193
-0.0352728292346
-0.0421852320432662
-0.0483176968991756
-0.053307868540287
-0.0569016262888908
-0.0589687190949916
-0.0595075003802776
-0.0586359351873397
-0.056567445397377
-0.0535779595375061
-0.0499706864356994
-0.0460431948304176
-0.0420600697398185
-0.0382313281297683
-0.0346965417265892
-0.0315175652503967
-0.0286823473870754
-0.0261172372847795
-0.0237030256539583
-0.0212921872735023
-0.0187272708863019
-0.0158645175397396
-0.0126009099185466
-0.0088907331228256
-0.0047441571950912
-0.0002158172428607
0.004607118666172
0.0096156187355518
0.014690401032567
0.0197161342948675
0.0245964508503675
0.0292636305093765
0.0336783751845359
0.0378218404948711
0.0416870638728141
0.0452771000564098
0.0486078895628452
0.051703542470932
0.0545823574066162
0.0572480857372283
0.0596935823559761
0.0619096383452415
0.0638909786939621
0.0656367689371109
0.0671470314264297
0.0684180781245231
0.0694395303726196
0.0701926201581955
0.0706461891531944
0.0707481652498245
0.070412740111351
0.0695094019174575
0.0678630769252777
0.0652669370174408
0.0615099221467971
0.0564228482544422
0.0499322935938835
0.042102038860321
0.033149916678667
0.0234360862523317
0.013424439355731
0.0036276360042393
-0.0054517053067684
-0.0133773330599069
-0.0198246836662292
-0.0246050097048282
-0.0276689399033784
-0.0290966089814901
-0.0290781371295452
-0.0278874281793832
-0.025853494182229
-0.02332947216928
-0.0206582471728324
-0.0181385558098554
-0.0159981679171323
-0.0143782002851367
-0.0133282002061605
-0.0128099285066127
-0.0127102946862578
-0.0128635326400399
-0.0130778634920716
-0.0131624592468142
-0.0129526229575276
-0.0123276831582188
-0.011218131519854
-0.0096076428890228
-0.007534300442785
-0.0050844755023717
-0.0023759694304317
0.0004600543761625
0.0032920432277023
0.0060004983097314
0.0084909405559301
0.0107014356181025
0.0126007739454507
0.014179341495037
0.0154399164021015
0.0163929723203182
0.0170541070401668
0.0174438171088695
0.017592491582036
0.0175426509231328
0.0173406042158603
0.0170264616608619
0.0166316535323858
0.0161804985255002
0.0156892538070678
0.0151559524238109
0.0145396515727043
0.0137383248656988
0.012578796595335
0.0108287557959556
0.008232956752181
0.0045680366456508
-0.0002972017973661
-0.006354684010148
-0.0134372431784868
-0.0212316121906042
-0.0293195452541112
-0.0372318886220455
-0.0445026606321334
-0.0507188364863395
-0.0555609986186027
-0.0588297098875045
-0.0604568719863891
-0.0605026111006736
-0.0591406673192977
-0.0566367134451866
-0.0533202067017555
-0.0495501346886158
-0.0456791445612907
-0.0420180186629295
-0.0388007089495658
-0.0361604019999504
-0.0341270491480827
-0.0326392352581024
-0.0315598212182521
-0.0306952446699142
-0.0298201702535152
-0.0287051871418952
-0.0271434560418128
-0.0249730478972196
-0.0220927204936742
-0.0184709336608648
-0.0141489719972014
-0.0092364251613616
-0.0038968983571976
0.0016742548905313
0.0072738211601972
0.0127077121287584
0.0177985690534114
0.0223922822624444
0.0263684540987014
0.0296487230807542
0.0321991443634033
0.0340296998620033
0.0351916961371898
0.035769548267126
0.0358689650893211
0.0356069989502429
0.0351023077964782
0.0344628691673278
0.033770352602005
0.033062893897295
0.0323211625218391
0.0314547084271907
0.0302911344915628
0.0285884756594896
0.0260811541229486
0.0225454755127429
0.0178622044622898
0.0120604988187551
0.0053346315398812
-0.0019708578474819
-0.0094049386680126
-0.0164720974862575
-0.0226958934217691
-0.0276716239750385
-0.0311055779457092
-0.0328382551670074
-0.0328488945960998
-0.0312486290931701
-0.0282682999968528
-0.0242347810417413
-0.0195333547890186
-0.0145642552524805
-0.0097029218450188
-0.0052692862227559
-0.0015055262483656
0.001439340878278
0.0035164770670235
0.0047731478698551
0.0053371991962194
0.0053931265138089
0.0051537528634071
0.0048330132849514
0.0046238088980317
0.0046773217618465
0.0050840573385357
0.0058680609799921
0.0069971652701497
0.0084002567455172
0.0099875824525952
0.0116711230948567
0.0133765619248151
0.0150435352697968
0.0166204813867807
0.0180618278682231
0.0193295590579509
0.0203963704407215
0.0212479121983051
0.0218858700245618
0.0223331339657306
0.0226319544017314
0.0228288657963275
0.0229597073048353
0.0230466574430465
0.0231002308428287
0.023113751783967
0.0230468567460775
0.022804994136095
0.0222260970622301
0.0210856199264526
0.0191266890615224
0.0161111280322074
0.0118776531890034
0.0063926810398697
-0.0002172198146581
-0.0076598301529884
-0.0155055476352572
-0.0232458375394344
-0.0303636267781257
-0.0363981649279594
-0.0409958474338054
-0.0439395122230052
-0.045153621584177
-0.0446956530213356
-0.0427433289587497
-0.0395743437111377
-0.0355343036353588
-0.0309966541826725
-0.0263216830790042
-0.0218203961849212
-0.0177244432270526
-0.0141659872606396
-0.0111782057210803
-0.0087155411019921
-0.0066786366514861
-0.0049345176666975
-0.0033330719452351
-0.0017244606278836
2.308771945536137e-05
0.0020090509206056
0.0042889020405709
0.0068670492619276
0.0097013916820287
0.0127154225483536
0.015807980671525
0.0188615582883358
0.0217544622719287
0.0243770703673362
0.0266456101089715
0.0285063423216342
0.0299342703074216
0.0309324320405721
0.0315296798944473
0.0317749492824077
0.0317285619676113
0.031451117247343
0.0309913661330938
0.0303715765476226
0.0295678041875362
0.0284922588616609
0.026990994811058
0.0248619131743907
0.0218915380537509
0.0179039388895034
0.0128066902980208
0.0066232634708285
-0.0004884377121925
-0.0082373255863785
-0.0162274297326803
-0.024006363004446
-0.0311204120516777
-0.0371660999953746
-0.0418310016393661
-0.0449211150407791
-0.0463744290173053
-0.0462602972984313
-0.0447672791779041
-0.0421807691454887
-0.0388475880026817
-0.0351308546960353
-0.031368039548397
-0.0278414767235517
-0.0247577987611293
-0.0222333390265703
-0.0202893652021884
-0.0188585743308067
-0.0178016778081655
-0.0169330164790153
-0.0160512924194335
-0.0149686317890882
-0.0135326460003852
-0.0116412807255983
-0.0092521365731954
-0.0063847266137599
-0.0031130393035709
0.0004510465078055
0.0041776401922106
0.0079362066462636
0.0116101652383804
0.0151084475219249
0.0183695964515209
0.0213561281561851
0.0240454617887735
0.0264247395098209
0.0284879263490438
0.0302314329892396
0.0316511951386928
0.0327457822859287
0.0335206501185894
0.033980842679739
0.0341084823012352
0.0338370092213153
0.0330351032316684
0.0315093770623207
0.0290352590382099
0.0254123862832784
0.0205259770154953
0.0143947061151266
0.0071915513835847
-0.0007659210823476
-0.0090507045388221
-0.0171786565333604
-0.024667527526617
-0.0310917943716049
-0.0361261554062366
-0.0395730435848236
-0.0413708463311195
-0.0415866896510124
-0.0404010787606239
-0.0380851738154888
-0.0349691584706306
-0.0314050465822219
-0.0277290921658277
-0.0242288000881671
-0.021118177101016
-0.0185218565165996
-0.0164688266813755
-0.0148991867899894
-0.0136847868561744
-0.0126569652929902
-0.0116343153640627
-0.0104491421952843
-0.0089681763201951
-0.0071028312668204
-0.00481460057199
-0.0021193362772464
0.0009154053404927
0.0041819410398602
0.0075486195273697
0.0108785964548587
0.0140482876449823
0.0169595256447792
0.0195445641875267
0.0217666029930114
0.0236163344234228
0.0251058973371982
0.0262624397873878
0.0271242745220661
0.0277427285909652
0.0281837321817874
0.0285184644162654
0.0288046225905418
0.0290682427585124
0.0292883850634098
0.0293810926377773
0.0291857160627841
0.0284673515707254
0.0269478932023048
0.0243615731596946
0.0205179452896118
0.0153565984219312
0.0089796483516693
0.0016508868429809
-0.006236192304641
-0.0142071302980184
-0.0217602476477623
-0.028424834832549
-0.0338196121156215
-0.0376933068037033
-0.039935614913702
-0.0405662730336189
-0.0397163927555084
-0.037607803940773
-0.0345260873436927
-0.0307853166013956
-0.026692721992731
-0.0225224196910858
-0.0184984393417835
-0.0147817879915237
-0.0114622209221124
-0.0085581876337528
-0.0060233920812606
-0.0037611424922943
-0.0016495641320943
0.0004316195845603
0.0025859158486127
0.004895057529211
0.0074146604165434
0.0101692834869027
0.0131514901295304
0.0163258966058492
0.019636183977127
0.023013599216938
0.0263850912451744
0.0296801589429378
0.032837301492691
0.0358088761568069
0.0385623499751091
0.0410781763494014
0.0433464050292968
0.0453654378652572
0.0471439436078071
0.0487024262547493
0.0500696636736393
0.0512727349996566
0.052327461540699
0.0532375946640968
0.0539991520345211
0.0546014383435249
0.0550216175615787
0.0552112236618995
0.0550765506923198
0.0544630289077758
0.0531562380492687
0.0509044155478477
0.0474587529897689
0.0426263287663459
0.0363251864910125
0.0286269020289182
0.0197719000279903
0.010147925466299
0.0002397019416093
-0.0094320066273212
-0.0183707661926746
-0.0261579230427742
-0.0324918217957019
-0.0372068621218204
-0.0402727089822292
-0.0417798459529876
-0.0419174879789352
-0.0409499481320381
-0.0391926988959312
-0.0369804985821247
-0.0346284136176109
-0.032397624105215
-0.0304725915193557
-0.0289510078728199
-0.0278467163443565
-0.0271040648221969
-0.0266208443790674
-0.0262734238058328
-0.0259370803833007
-0.0255015231668949
-0.0248846411705017
-0.0240415502339601
-0.0229650624096393
-0.0216825492680072
-0.020255159586668
-0.0187739823013544
-0.0173466447740793
-0.0160778630524873
-0.0150529723614454
-0.0143310595303773
-0.013944424688816
-0.0138992350548505
-0.0141796022653579
-0.0147541109472513
-0.0155802126973867
-0.0166063345968723
-0.0177730973809957
-0.0190155059099197
-0.0202666036784648
-0.021462507545948
-0.0225495994091033
-0.0234902948141098
-0.0242622159421443
-0.0248494539409875
-0.0252298675477504
-0.0253694988787174
-0.0252329595386981
-0.0248076617717742
-0.0241343788802623
-0.0233343839645385
-0.0226183664053678
-0.0222651697695255
-0.0225721318274736
-0.0237882453948259
-0.0260481294244527
-0.0293328762054443
-0.0334722399711608
-0.0381772145628929
-0.0430855154991149
-0.0478104017674922
-0.0519859865307807
-0.0553048774600029
-0.0575473979115486
-0.0585981979966163
-0.0584442429244518
-0.0571563951671123
-0.0548635795712471
-0.0517286472022533
-0.0479313246905803
-0.0436559841036796
-0.0390778332948684
-0.0343487672507762
-0.0295895487070083
-0.0248870477080345
-0.0202915165573358
-0.0158166643232107
-0.0114470906555652
-0.0071497410535812
-0.0028829500079154
0.0013979189097881
0.005734883248806
0.0101600382477045
0.0146869346499443
0.019302187487483
0.0239619053900241
0.0285984314978122
0.0331338159739971
0.0374892279505729
0.041588194668293
0.0453617461025714
0.0487583950161933
0.0517528690397739
0.0543482154607772
0.0565704368054866
0.058459848165512
0.060064498335123
0.061434619128704
0.0626164376735687
0.0636484995484352
0.0645609349012374
0.0653750449419021
0.066103808581829
0.0667554885149002
0.0673353224992752
0.0678383558988571
0.0682366490364074
0.0684652999043464
0.0684077739715576
0.0678909495472908
0.0667037442326545
0.0646368190646171
0.0615289583802223
0.0573081001639366
0.0520185157656669
0.0458279550075531
0.0390117913484573
0.0319178402423858
0.0249247476458549
0.0184033755213022
0.0126776825636625
0.007985963486135
0.0044563207775354
0.0021034143865108
0.0008382662199437
0.0004846211522817
0.0008034957572817
0.0015244812238961
0.0023784632794559
0.0031287553720176
0.0035955056082457
0.0036690898705273
0.0033157460857182
0.0025757770054042
0.0015510348603129
0.0003849822096526
-0.0007618903182446
-0.0017399112693965
-0.0024323845282197
-0.0027651819400489
-0.002706722356379
-0.0022631976753473
-0.0014715138822793
-0.0003910521045327
0.0009051067754626
0.0023378543555736
0.0038262959569692
0.0052893869578838
0.0066489521414041
0.0078356843441724
0.0087968129664659
0.0095018222928047
0.0099386554211378
0.0101002473384141
0.009974930435419
0.0095496345311403
0.0088202394545078
0.007799606770277
0.0065189898014068
0.0050242915749549
0.0033700577914714
0.0016129575669765
-0.0001921169459819
-0.001993354409933
-0.0037461631000041
-0.0054220333695411
-0.0070201680064201
-0.0085818879306316
-0.0102044865489006
-0.0120428130030632
-0.0142878629267215
-0.0171255096793174
-0.0206895284354686
-0.025023303925991
-0.0300591029226779
-0.0356161668896675
-0.0414165332913398
-0.0471190810203552
-0.0523674599826335
-0.0568397678434848
-0.0602883547544479
-0.0625631213188171
-0.0636140406131744
-0.0634786635637283
-0.0622710362076759
-0.0601764619350433
-0.0574395582079887
-0.054338838905096
-0.0511533319950103
-0.0481287017464637
-0.0454498417675495
-0.0432268530130386
-0.041494745761156
-0.0402212925255298
-0.0393195115029811
-0.0386647805571556
-0.0381155684590339
-0.03753362596035
-0.0367987416684627
-0.0358153879642486
-0.0345160141587257
-0.0328690968453884
-0.030888320878148
-0.0286322273313999
-0.0261926762759685
-0.0236773565411567
-0.0211916826665401
-0.018823605030775
-0.0166339315474033
-0.0146536268293857
-0.0128856571391224
-0.0113087687641382
-0.0098836962133646
-0.0085608689114451
-0.0072856629267334
-0.0059997527860105
-0.0046446816995739
-0.0031718118116259
-0.0015506735071539
0.0002297181636095
0.002160801552236
0.0042144590988755
0.0063462257385253
0.008496830239892
0.0105872973799705
0.012511040084064
0.0141303278505802
0.0152856577187776
0.0158211812376976
0.0156199885532259
0.0146406469866633
0.0129463104531168
0.0107128471136093
0.0082069262862205
0.0057437010109424
0.0036407466977834
0.0021744593977928
0.0015411525964736
0.0018316116183996
0.0030252803117036
0.0050014574080705
0.0075641497969627
0.0104749742895364
0.0134833697229623
0.0163485743105411
0.0188566036522388
0.0208371020853519
0.0221803355962038
0.022846657782793
0.0228617396205663
0.0223042424768209
0.0212955139577388
0.0199906323105096
0.0185656249523162
0.0171985663473606
0.0160494856536388
0.0152468159794807
0.0148802641779184
0.014997836202383
0.015608986839652
0.0166913531720638
0.0181961469352245
0.0200550332665443
0.0221902150660753
0.0245196968317031
0.0269549749791622
0.0294010937213897
0.0317634269595146
0.0339548513293266
0.0359028056263923
0.0375587977468967
0.0389050059020519
0.0399534851312637
0.0407401137053966
0.0413145273923873
0.0417265072464942
0.0420125275850296
0.0421838350594043
0.0422139130532741
0.0420269072055816
0.0414908677339553
0.0404222719371318
0.0386112555861473
0.0358663871884346
0.0320648625493049
0.0271932929754257
0.0213672928512096
0.0148255452513694
0.0079042557626962
0.0009980257600545
-0.0054893707856535
-0.0111948261037468
-0.0158345662057399
-0.0192271471023559
-0.0212996639311313
-0.0220810640603303
-0.0216949228197336
-0.0203538443893194
-0.0183415859937667
-0.0159764215350151
-0.0135664958506822
-0.0113712763413786
-0.0095758670940995
-0.0082805585116148
-0.0075038243085145
-0.0071918917819857
-0.0072311358526349
-0.0074636079370975
-0.0077071422711014
-0.0077813174575567
-0.007533399388194
-0.0068556014448404
-0.0056938398629426
-0.0040517952293157
-0.0019888132810592
0.0003896285779774
0.0029480217490345
0.0055406508035957
0.0080279754474759
0.010286197066307
0.0122129805386066
0.013732305727899
0.014798398129642
0.015397067181766
0.0155451893806457
0.0152890551835298
0.0147003959864377
0.013870034366846
0.0128983259201049
0.0118824373930692
0.0109045319259166
0.0100224772468209
0.0092600146308541
0.0085936104878783
0.0079395323991775
0.0071514230221509
0.0060366876423358
0.0043898988515138
0.0020327791571617
-0.0011491375043988
-0.0051795374602079
-0.0099784694612026
-0.0153643824160099
-0.021071096882224
-0.0267819575965404
-0.0321759097278118
-0.0369686856865882
-0.0409370958805084
-0.0439276173710823
-0.0458572171628475
-0.0467139184474945
-0.0465559139847755
-0.0455029606819152
-0.0437211692333221
-0.0414056554436683
-0.0387606732547283
-0.0359778851270675
-0.0332168415188789
-0.0305898003280162
-0.0281521864235401
-0.025903670117259
-0.0238028634339571
-0.0217882506549358
-0.0197963844984769
-0.0177739989012479
-0.0156831704080104
-0.0135026574134826
-0.0112287150695919
-0.0088739432394504
-0.006464306730777
-0.0040359739214181
-0.0016313360538333
0.0007060323841869
0.0029373434372246
0.0050354832783341
0.0069901207461953
0.0088043324649333
0.0104835163801908
0.0120289986953139
0.0134400743991136
0.0147171579301357
0.0158637706190347
0.0168874766677618
0.0177980698645114
0.0186053439974784
0.0193192884325981
0.0199490152299404
0.0204940531402826
0.0209274608641862
0.0211773086339235
0.0211162902414798
0.020568873733282
0.0193353705108165
0.0172238294035196
0.0140874311327934
0.0098657393828034
0.0046187615953385
-0.0014599690912291
-0.0080590667203068
-0.014790347777307
-0.0212423261255025
-0.0270327050238847
-0.0318518318235874
-0.0354900695383548
-0.0378444045782089
-0.0389083474874496
-0.038753118366003
-0.0375074557960033
-0.0353414267301559
-0.0324510894715786
-0.0290381554514169
-0.0252884663641452
-0.0213577784597873
-0.0173671003431081
-0.0134031809866428
-0.0095189772546291
-0.0057361796498298
-0.0020532365888357
0.0015448629856109
0.0050788149237632
0.0085687637329101
0.0120302392169833
0.015474010258913
0.0189082846045494
0.0223367176949977
0.0257499031722545
0.0291198436170816
0.0324061810970306
0.0355714634060859
0.0385960787534713
0.0414836406707763
0.0442536063492298
0.0469280332326889
0.0495187044143676
0.0520123019814491
0.0543563887476921
0.0564560443162918
0.058185625821352
0.0594111047685146
0.0600128397345542
0.0598994195461273
0.0590117909014225
0.0573255643248558
0.0548546276986599
0.0516476742923259
0.0477710589766502
0.0432808622717857
0.0381951630115509
0.0324820801615715
0.026074644178152
0.0189083404839038
0.0109655866399407
0.0023128567263484
-0.0068780547007918
-0.0163300409913063
-0.025683794170618
-0.0345411039888858
-0.0425188541412353
-0.0492973551154136
-0.054650954902172
-0.0584610514342784
-0.0607160180807113
-0.0615022517740726
-0.0609893575310707
-0.059409212321043
-0.0570284835994243
-0.0541177839040756
-0.0509231202304363
-0.047644454985857
-0.0444230884313583
-0.0413364507257938
-0.0383990295231342
-0.0355708189308643
-0.0327742621302604
-0.0299143902957439
-0.0268949251621961
-0.0236301310360431
-0.0200579743832349
-0.0161565728485584
-0.0119578540325164
-0.0075515275821089
-0.0030768015421926
0.0012978583108633
0.0054010795429348
0.0090833464637398
0.0122382398694753
0.0148194301873445
0.016848212108016
0.0184035059064626
0.0195947829633951
0.0205346643924713
0.0213250238448381
0.0220512822270393
0.0227752942591905
0.023527942597866
0.0243082605302333
0.0250904504209756
0.0258344393223524
0.0264971628785133
0.0270424876362085
0.027446374297142
0.0276944227516651
0.0277693700045347
0.0276288036257028
0.0271798763424158
0.0262674055993556
0.0246914625167846
0.0222530104219913
0.0188094265758991
0.0143207218497991
0.0088759120553731
0.0026943190023303
-0.0038983952254056
-0.0105119850486516
-0.0167409181594848
-0.0222110301256179
-0.0266169942915439
-0.0297496169805526
-0.0315108820796012
-0.0319148451089859
-0.0310806315392255
-0.0292214769870042
-0.0266226772218942
-0.0236065462231636
-0.020491924136877
-0.0175562556833028
-0.0150062758475542
-0.0129604469984769
-0.0114450035616755
-0.0104045420885086
-0.0097227841615676
-0.0092458548024296
-0.0088047757744789
-0.0082379151135683
-0.0074107609689235
-0.006228657439351
-0.0046465373598039
-0.002678289078176
-0.0003959536552429
0.0020858757197856
0.0046334266662597
0.0071183675900101
0.009437158703804
0.0115188769996166
0.0133234933018684
0.0148378349840641
0.0160718094557523
0.0170519296079874
0.0178115665912628
0.0183833669871091
0.0187988765537738
0.019092796370387
0.0193032659590244
0.0194641537964344
0.0195961445569992
0.0197057705372571
0.019791604951024
0.0198498517274856
0.0198743157088756
0.0198467448353767
0.0197161696851253
0.0193775352090597
0.0186650454998016
0.0173669625073671
0.0152603723108768
0.0121604446321725
0.0079728849232196
0.0027333963662385
-0.0033810120075941
-0.0100715067237615
-0.0169573221355676
-0.0236259121447801
-0.0296839252114295
-0.0348000600934028
-0.0387351438403129
-0.0413570813834667
-0.0426434613764286
-0.0426763296127319
-0.0416280180215835
-0.0397380180656909
-0.0372842848300933
-0.0345522388815879
-0.0318038687109947
-0.0292505547404289
-0.0270386505872011
-0.025250045582652
-0.0239066444337368
-0.0229743532836437
-0.0223718676716089
-0.021982342004776
-0.0216632559895515
-0.0212583467364311
-0.0206138975918293
-0.0195939913392066
-0.0180908180773258
-0.0160298775881528
-0.013372384943068
-0.0101186074316501
-0.0063114883378148
-0.0020383994560688
0.0025685597211122
0.0073356018401682
0.012056078761816
0.0165064949542284
0.0204701852053403
0.0237608924508094
0.0262378416955471
0.0278163515031337
0.0284764617681503
0.0282609872519969
0.0272614248096942
0.0256016217172145
0.0234252568334341
0.0208848789334297
0.0181302782148122
0.0152987390756607
0.0125048588961362
0.0098221004009246
0.007259112317115
0.004742354620248
0.0021158196032047
-0.0008327523246407
-0.0043221246451139
-0.0085212187841534
-0.0135004045441746
-0.0191980842500925
-0.0254108272492885
-0.0318113081157207
-0.0379892475903034
-0.0435064248740673
-0.0479539223015308
-0.0509996712207794
-0.0524231679737567
-0.0521368868649005
-0.0501889213919639
-0.0467470288276672
-0.0420719869434833
-0.0364867001771926
-0.0303448978811502
-0.0240004044026136
-0.0177763029932975
-0.0119370408356189
-0.006667174398899
-0.0020611174404621
0.001870434731245
0.0051820240914821
0.007976034656167
0.010387647897005
0.0125633832067251
0.0146360900253057
0.0167080461978912
0.018845647573471
0.0210815723985433
0.0234201774001121
0.0258439276367425
0.0283189415931701
0.0307987947016954
0.0332280322909355
0.0355447642505168
0.0376830510795116
0.039579439908266
0.041182741522789
0.0424632392823696
0.0434186980128288
0.0440699905157089
0.0444465093314647
0.0445770770311355
0.0444941669702529
0.0442413203418254
0.0438739508390426
0.0434500277042388
0.0430081039667129
0.0425357222557067
0.0419403947889804
0.0410393290221691
0.0395806655287742
0.0372946187853813
0.0339570492506027
0.0294483117759227
0.0237959492951631
0.0171873122453689
0.0099462457001209
0.0024863742291927
-0.0047432444989681
-0.0113100372254848
-0.0168410912156105
-0.0210572872310876
-0.0237981155514717
-0.0250327549874782
-0.0248550157994031
-0.0234650317579507
-0.0211416818201541
-0.018208097666502
-0.0149944629520177
-0.0118013080209493
-0.0088667385280132
-0.006348717957735
-0.0043268613517284
-0.0028100106865167
-0.0017400216311216
-0.0009992402046918
-0.0004287045449018
0.0001451857388019
0.0008810870349407
0.0018988382071256
0.0032682409510016
0.0050086695700883
0.0070960940793156
0.0094748064875602
0.0120673002675175
0.0147805819287896
0.0175148043781518
