bvp
0.0804570913314819
0.0822517201304435
0.0842975378036499
0.086649551987648
0.0893569886684417
0.0924563109874725
0.0959666669368743
0.0998823493719101
0.1041603237390518
0.1087083965539932
0.1133836507797241
0.1180067807435989
0.1223818212747573
0.1262984871864318
0.1295075416564941
0.1316817700862884
0.132386639714241
0.1310886889696121
0.1272191107273101
0.120279923081398
0.1099608913064003
0.0962368994951248
0.079424187541008
0.060180302709341
0.0394392125308513
0.0182926505804061
-0.002148188650608
-0.0208750143647193
-0.0370734147727489
-0.0501824542880058
-0.0599229335784912
-0.0662942081689834
-0.0695457085967063
-0.0701344087719917
-0.0686755031347274
-0.0658838674426078
-0.0625022649765014
-0.0592222660779953
-0.0566127263009548
-0.0550676323473453
-0.0547770410776138
-0.0557238385081291
-0.0577078312635421
-0.0603922121226787
-0.0633632391691207
-0.0661910101771354
-0.0684796646237373
-0.069903589785099
-0.0702333897352218
-0.0693540349602699
-0.0672728568315506
-0.0641144514083862
-0.0601030923426151
-0.0555367656052112
-0.0507580004632473
-0.046123418956995
-0.0419724211096763
-0.0386010631918907
-0.036244660615921
-0.0350638180971145
-0.0351329669356346
-0.0364341735839843
-0.0388541743159294
-0.0421878844499588
-0.0461625605821609
-0.0504830665886402
-0.0548771694302558
-0.059129174798727
-0.0631101429462432
-0.0668116360902786
-0.0703748613595962
-0.0740922391414642
-0.0783634111285209
-0.0836095958948135
-0.0901625230908393
-0.0981538444757461
-0.1074395775794982
-0.1175841614603996
-0.1279043853282928
-0.137558251619339
-0.1456625908613205
-0.1514177322387695
-0.154211938381195
-0.1536912322044372
-0.1497912406921386
-0.1427299678325653
-0.1329644620418548
-0.1211209446191787
-0.1079159528017044
-0.0940832197666168
-0.0803062990307807
-0.0671562701463699
-0.0550443902611732
-0.0441999845206737
-0.0346708744764328
-0.026338567957282
-0.0189519990235567
-0.0121837928891181
-0.0056943669915199
0.0008146036416292
0.0075638191774487
0.0146774537861347
0.0221808403730392
0.0300119221210479
0.0380419231951236
0.0460991635918617
0.0539911948144435
0.0615248084068298
0.0685262307524681
0.0748593583703041
0.0804353207349777
0.0852118730545044
0.0891843289136886
0.0923705995082855
0.0947991758584976
0.0965058058500289
0.0975338816642761
0.0979332849383354
0.0977580472826957
0.0970634371042251
0.095903493463993
0.0943318605422973
0.0924033969640731
0.0901723057031631
0.0876872763037681
0.0849775150418281
0.0820207819342613
0.0787058025598526
0.0748137682676315
0.0700346529483795
0.0640270709991455
0.0565142333507537
0.0473820641636848
0.0367414429783821
0.0249406900256872
0.0125361867249012
0.0002285949885845
-0.0112281013280153
-0.02112802490592
-0.0289031527936458
-0.0341831967234611
-0.0368221253156662
-0.036897175014019
-0.0346831753849983
-0.0306113678961992
-0.0252228416502475
-0.0191123187541961
-0.0128647228702902
-0.007000658661127
-0.0019372832030057
0.0020387470722198
0.0047862948849797
0.0063103511929512
0.0067483643069863
0.0063427295535802
0.0054006399586796
0.0042488817125558
0.0031932797282934
0.0024884436279535
0.0023193806409835
0.0027915993705391
0.0039270613342523
0.0056695872917771
0.0079026091843843
0.0104749258607625
0.0132264848798513
0.0160093866288661
0.0187015086412429
0.021211639046669
0.0234795175492763
0.0254732649773359
0.0271843113005161
0.0286210402846336
0.0298019759356975
0.0307502821087837
0.031491219997406
0.0320486687123775
0.0324391424655914
0.0326710045337677
0.0327496863901615
0.0326774418354034
0.0324396342039108
0.0319778956472873
0.0311573799699544
0.0297455545514822
0.0274250339716672
0.0238486789166927
0.0187206231057643
0.0118782967329025
0.0033573452383279
-0.0065754111856222
-0.0174330472946167
-0.0285653788596391
-0.0392483659088611
-0.0487799532711505
-0.0565592497587204
-0.0621422231197357
-0.0652777329087257
-0.0659271031618118
-0.0642640218138694
-0.0606494098901748
-0.0555840507149696
-0.0496490150690078
-0.0434420332312583
-0.0375150889158248
-0.0323194153606891
-0.028163194656372
-0.025185914710164
-0.0233572386205196
-0.0225035157054662
-0.0223500877618789
-0.0225660763680934
-0.0228072572499513
-0.0227553360164165
-0.022151306271553
-0.0208206549286842
-0.0186868887394666
-0.0157709401100873
-0.0121763097122311
-0.0080641321837902
-0.0036268616095185
0.0009354846552014
0.0054376740008592
0.0097268847748637
0.0136890104040503
0.0172432828694582
0.020334169268608
0.0229285135865211
0.0250170156359672
0.0266153756529092
0.0277632139623165
0.0285221263766288
0.0289722681045532
0.0292055215686559
0.0293157771229743
0.0293884016573429
0.0294912755489349
0.0296609532088041
0.0298729389905929
0.0300039052963256
0.0298085547983646
0.0289296079427003
0.0269491225481033
0.0234720334410667
0.0182174071669578
0.0110939117148518
0.0022450038231909
-0.0079466411843895
-0.0189017876982688
-0.0299248751252889
-0.0402958691120147
-0.0493521802127361
-0.0565545298159122
-0.0615354664623737
-0.0641248524188995
-0.0643484592437744
-0.0624098852276802
-0.0586667135357856
-0.0535932853817939
-0.0477238334715366
-0.0415869243443012
-0.0356448516249656
-0.030247613787651
-0.0256073679774999
-0.0217928979545831
-0.0187419839203357
-0.0162882693111896
-0.0141967479139566
-0.0122042763978242
-0.0100629553198814
-0.0075765140354633
-0.0046191774308681
-0.0011403113603591
0.0028373040258884
0.0072272885590791
0.0118996910750865
0.016704112291336
0.0214886274188756
0.0261129904538393
0.0304558612406253
0.0344185680150985
0.0379294715821743
0.0409474968910217
0.0434618704020977
0.0454875901341438
0.0470575988292694
0.0482166595757007
0.0490212887525558
0.0495394095778465
0.049842070788145
0.0499882884323596
0.0500016584992408
0.049834955483675
0.049335554242134
0.0482372976839542
0.0461905226111412
0.0428236499428749
0.0378243848681449
0.0310219638049602
0.022447545081377
0.0123588414862751
0.0012275036424398
-0.0103065520524978
-0.0215090606361627
-0.0316447541117668
-0.0400712043046951
-0.0463112145662307
-0.050093300640583
-0.0513624362647533
-0.05026800557971
-0.0471356511116027
-0.0424235984683036
-0.0366652905941009
-0.0304102692753076
-0.0241708438843488
-0.0183719359338283
-0.0133088286966085
-0.0091269463300704
-0.0058279186487197
-0.0032912269234657
-0.0013068132102489
0.0003807414323091
0.0020282361656427
0.0038624238222837
0.0060609299689531
0.0087401513010263
0.0119489300996065
0.0156702846288681
0.019830772653222
0.0243138708174228
0.0289743207395076
0.0336534604430198
0.0381957031786441
0.0424625054001808
0.0463414303958416
0.0497522503137588
0.0526473298668861
0.0550029501318931
0.056810475885868
0.0580757036805152
0.0588229335844516
0.059098981320858
0.0589714758098125
0.0585109144449234
0.0577527210116386
0.0566479638218879
0.055023580789566
0.0525790639221668
0.048930786550045
0.0436906442046165
0.0365577787160873
0.0274042673408985
0.0163329429924488
0.0036917766556143
-0.0099542262032628
-0.0238877795636653
-0.0373300313949584
-0.0495350360870361
-0.0598681271076202
-0.067861407995224
-0.0732467919588089
-0.0759686604142189
-0.0761775523424148
-0.0742033869028091
-0.0705094262957573
-0.0656348094344139
-0.0601334646344184
-0.0545146577060222
-0.0491963997483253
-0.0444789715111255
-0.0405309200286865
-0.037383921444416
-0.0349443219602108
-0.0330214165151119
-0.0313637517392635
-0.0296989046037197
-0.0277752876281738
-0.0253991372883319
-0.0224570389837026
-0.0189202837646007
-0.0148338293656706
-0.0102975284680724
-0.005446745082736
-0.0004325918853282
0.0045953728258609
0.0094968294724822
0.0141436904668807
0.0184284690767526
0.0222747847437858
0.0256404466927051
0.028513953089714
0.0309125557541847
0.0328812636435031
0.034486711025238
0.0358053334057331
0.0369054749608039
0.0378181226551532
0.0384946539998054
0.0387657135725021
0.0383278429508209
0.0367749445140361
0.033669926226139
0.0286403372883796
0.0214790627360343
0.0122250607237219
0.0011972486972808
-0.011029789224267
-0.0236981008201837
-0.0359649509191513
-0.0470047816634178
-0.0561016760766506
-0.0627274960279464
-0.0665947422385215
-0.0676722079515457
-0.0661664381623268
-0.0624813586473465
-0.0571644604206085
-0.0508438199758529
-0.0441590286791324
-0.0376908853650093
-0.0318982638418674
-0.0270738471299409
-0.0233279354870319
-0.0205994509160518
-0.0186863746494054
-0.0172885470092296
-0.0160579308867454
-0.0146504202857613
-0.0127712031826376
-0.010205864906311
-0.0068327132612466
-0.0026221508160233
0.0023638708516955
0.0079746935516595
0.0139927919954061
0.0201723873615264
0.0262737553566694
0.0320841893553733
0.0374308042228221
0.042188860476017
0.0462838038802146
0.0496852546930313
0.0523978173732757
0.0544534623622894
0.0559019185602664
0.0567946024239063
0.0571631044149398
0.0569916367530822
0.0561798028647899
0.0545099303126335
0.0516534931957721
0.0472318418323993
0.0409111641347408
0.0325024388730526
0.0220411866903305
0.0098261535167694
-0.0035922522656619
-0.017470235005021
-0.0309622734785079
-0.043224886059761
-0.053513303399086
-0.0612598732113838
-0.0661258697509765
-0.0680209547281265
-0.0670944079756736
-0.0637070834636688
-0.0583849661052227
-0.0517525300383567
-0.0444557033479213
-0.0370914824306964
-0.0301542058587074
-0.0240021012723445
-0.0188417844474315
-0.0147233204916119
-0.011547127738595
-0.009091343730688
-0.0070584397763013
-0.0051266457885503
-0.0029918160289525
-0.0003979224711656
0.002836924046278
0.0067977393046021
0.0114634009078145
0.0167201273143291
0.0223916377872228
0.0282699316740036
0.0341381095349788
0.0397892296314239
0.0450456365942955
0.0497740358114242
0.0538893416523933
0.057348258793354
0.0601412914693355
0.0622893832623958
0.0638407692313194
0.0648584812879562
0.0653893202543258
0.0654144138097763
0.064802698791027
0.0632938891649246
0.0605241656303405
0.0560944154858589
0.0496638119220733
0.0410409308969974
0.0302536338567733
0.017588548362255
0.0035881530493497
-0.0110022537410259
-0.0253269895911216
-0.0385273620486259
-0.0498402789235115
-0.0586729533970356
-0.0646510645747184
-0.0676443725824356
-0.0677681416273117
-0.0653569772839546
-0.0609151907265186
-0.0550522692501544
-0.0484134294092655
-0.0416131168603897
-0.0351751931011676
-0.0294851809740066
-0.0247626118361949
-0.0210583917796611
-0.0182755757123231
-0.0162064358592033
-0.0145743610337376
-0.0130730168893933
-0.0114065976813435
-0.0093317264690995
-0.0066865840926766
-0.0033972586970776
0.0005293665453791
0.0050137522630393
0.0099145220592617
0.0150486696511507
0.0202165748924016
0.0252222549170255
0.0298891048878431
0.0340751446783542
0.0376843363046646
0.0406672582030296
0.0430131182074546
0.0447430983185768
0.0459040105342865
0.0465523488819599
0.0467291660606861
0.0464278347790241
0.0455548763275146
0.0439039915800094
0.0411712191998958
0.0370145812630653
0.0311393085867166
0.0233850125223398
0.0137938354164361
0.0026447083801031
-0.009555721655488
-0.0221254881471395
-0.0342896319925785
-0.0452760234475135
-0.0544120147824287
-0.0612048655748367
-0.0653870850801467
-0.0669228062033653
-0.0659873560070991
-0.0629335567355156
-0.0582482889294624
-0.0524960607290267
-0.0462515577673912
-0.0400334112346172
-0.0342560857534408
-0.0292067192494869
-0.0250377748161554
-0.021767470985651
-0.0192904956638813
-0.0174009092152118
-0.0158276464790105
-0.0142810903489589
-0.0124987214803695
-0.0102782305330038
-0.0074974643066525
-0.0041225450113415
-0.0002044234424829
0.0041349399834871
0.0087264804169535
0.0133834574371576
0.0179259739816188
0.0221956353634595
0.026065107434988
0.0294474884867668
0.0323041677474975
0.0346453562378883
0.0365179479122161
0.0379844084382057
0.0391062423586845
0.0399383082985878
0.0405255705118179
0.0408909022808074
0.0410077422857284
0.0407622903585433
0.0399247407913208
0.0381533987820148
0.0350448600947856
0.0302232839167118
0.0234411284327507
0.0146611202508211
0.004102099686861
-0.0077592711895704
-0.0202371086925268
-0.0325297191739082
-0.0438297837972641
-0.0534222945570945
-0.0607572607696056
-0.0654942169785499
-0.0675240457057952
-0.0669709593057632
-0.0641674399375915
-0.0596047826111316
-0.0538717433810234
-0.047586802393198
-0.0413287840783596
-0.0355762429535388
-0.0306632779538631
-0.0267565511167049
-0.0238577835261821
-0.0218284167349338
-0.0204253681004047
-0.0193416681140661
-0.0182527396827936
-0.0168639943003654
-0.0149484332650899
-0.0123668769374489
-0.0090714693069458
-0.0050977375358343
-0.0005502491258084
0.0044171512126922
0.0096249803900718
0.014888365752995
0.0200303383171558
0.0248932130634784
0.0293470546603202
0.0332908816635608
0.0366537310183048
0.0394001752138137
0.0415334030985832
0.0430922359228134
0.044145755469799
0.0447876825928688
0.0451260134577751
0.0452586114406585
0.0452298484742641
0.0449798107147216
0.0443127267062664
0.0429085567593574
0.0403798446059227
0.0363553054630756
0.0305666308850049
0.0229218192398548
0.0135547034442424
0.0028397794812917
-0.0086364317685365
-0.0201471708714962
-0.0309264175593853
-0.0402711294591426
-0.047618705779314
-0.0525939539074897
-0.055033840239048
-0.0549928173422813
-0.0527257211506366
-0.0486483797430992
-0.0432806238532066
-0.0371807739138603
-0.0308846347033977
-0.0248572118580341
-0.0194551534950733
-0.014899868518114
-0.011266553774476
-0.00849075242877
-0.0063933813944458
-0.0047232331708073
-0.0032058674842119
-0.0015862938016653
0.0003402335569262
0.0027103619650006
0.0055850711651146
0.0089512774720788
0.0127347689121961
0.016820328310132
0.0210681334137916
0.0253228545188903
0.0294229444116354
0.0332155376672744
0.0365734249353408
0.0394062548875808
0.0416618660092353
0.0433223322033882
0.0444007664918899
0.0449394844472408
0.0450078062713146
0.0446980521082878
0.0441181808710098
0.0433821007609367
0.0425988398492336
0.0418555326759815
0.0411841869354248
0.0405149459838867
0.039641011506319
0.0382214337587356
0.0358286276459693
0.0320308394730091
0.0264872051775455
0.0190310552716255
0.0097280880436301
-0.0011014696210622
-0.0129082798957824
-0.0249838009476661
-0.0365551896393299
-0.0468819439411163
-0.0553368479013443
-0.0614658556878566
-0.0650290101766586
-0.0660189911723136
-0.0646487325429916
-0.0613095089793205
-0.0565130673348903
-0.050828531384468
-0.0448170453310012
-0.0389707870781421
-0.0336689800024032
-0.0291548613458871
-0.0255283117294311
-0.0227529518306255
-0.0206789374351501
-0.0190780255943536
-0.0176841430366039
-0.0162306688725948
-0.0144817726686596
-0.0122604947537183
-0.0094691598787903
-0.0060953693464398
-0.0022021275945007
0.0020916401408612
0.0066300332546234
0.0112373493611812
0.015737036243081
0.0199696868658065
0.0238065011799335
0.0271568708121776
0.0299684964120388
0.0322219841182231
0.0339279100298881
0.0351279452443122
0.0358871705830097
0.0362745858728885
0.0363496951758861
0.0361620634794235
0.0357537865638732
0.0351619087159633
0.0344223454594612
0.0335717424750328
0.032642912119627
0.0316487476229667
0.0305511783808469
0.0292243771255016
0.0274333804845809
0.0248481035232543
0.0210984125733375
0.0158558897674083
0.0089164720848202
0.0002637803554534
-0.0098961945623159
-0.0211355462670326
-0.0328440815210342
-0.0443019419908523
-0.0547689199447631
-0.0635730475187301
-0.0701860710978508
-0.0742763951420784
-0.0757328048348426
-0.0746608525514602
-0.0713592767715454
-0.0662810057401657
-0.0599796958267688
-0.0530453585088253
-0.0460394062101841
-0.0394400767982006
-0.0336018428206443
-0.0287303887307643
-0.0248757004737854
-0.0219429545104503
-0.0197209157049655
-0.0179253257811069
-0.0162479542195796
-0.0144024649634957
-0.012161411345005
-0.0093775764107704
-0.0059877485036849
-0.0020063687115907
0.002485979348421
0.0073620900511741
0.0124700525775551
0.017647286877036
0.022732175886631
0.0275788623839616
0.03206767141819
0.0361090935766696
0.0396475754678249
0.0426637828350067
0.045169286429882
0.0471952483057975
0.0487814806401729
0.0499703586101532
0.050804778933525
0.0513267889618873
0.0515779070556163
0.051600731909275
0.0514357797801494
0.0511139184236526
0.0506510995328426
0.0500424690544605
0.049245148897171
0.0481494292616844
0.0465544052422046
0.0441669709980487
0.0406352877616882
0.0356150120496749
0.0288518965244293
0.0202580392360687
0.0099638383835554
-0.0016658031381666
-0.0140569172799587
-0.0264905523508787
-0.0381934009492397
-0.0484368503093719
-0.0566234439611434
-0.0623461566865444
-0.0654190927743911
-0.0658833384513855
-0.0639899522066116
-0.0601632632315158
-0.0549491494894027
-0.0489519573748111
-0.0427654087543487
-0.0369060821831226
-0.0317601934075355
-0.0275550261139869
-0.0243564173579216
-0.0220828112214803
-0.0205348655581474
-0.0194433219730854
-0.0185197927057743
-0.0174914561212062
-0.0161218121647834
-0.0142288226634264
-0.011699391528964
-0.0084944795817136
-0.0046468060463666
-0.0002521816641092
0.0045463219285011
0.0095790680497884
0.0146712195128202
0.0196576863527297
0.0243902448564767
0.0287429876625537
0.0326146595180034
0.0359244830906391
0.0386068448424339
0.0406108647584915
0.0419075563549995
0.042500801384449
0.0424335524439811
0.0417871698737144
0.0406758114695549
0.0392365679144859
0.0376155078411102
0.0359486415982246
0.0343372263014316
0.032816395163536
0.0313200503587722
0.029654961079359
0.0274984631687402
0.0244312547147274
0.0200101118534803
0.0138681912794709
0.0058144466020166
-0.0040969108231365
-0.0155417947098612
-0.027949271723628
-0.040567796677351
-0.0525604225695133
-0.0631092712283134
-0.0715097114443779
-0.0772421360015869
-0.0800203308463096
-0.0798142105340957
-0.0768409594893455
-0.0715288072824478
-0.0644633919000625
-0.0563198439776897
-0.0477859452366828
-0.0394875556230545
-0.0319277793169021
-0.0254474859684705
-0.020208965986967
-0.0162028800696134
-0.0132734049111604
-0.0111532006412744
-0.0095065180212259
-0.0079781897366046
-0.006240114569664
-0.004027783870697
-0.0011633746325969
0.0024327002465724
0.0067383665591478
0.0116385072469711
0.0169505812227726
0.0224576666951179
0.02793650329113
0.0331804081797599
0.0380169749259948
0.0423168390989303
0.0459961481392383
0.0490176752209663
0.0513903647661209
0.0531630367040634
0.0544114857912063
0.0552261993288993
0.0557057783007621
0.0559491142630577
0.0560428127646446
0.0560525804758071
0.0560221746563911
0.0559742003679275
0.0559045560657978
0.0557596087455749
0.0553970113396644
0.0545538961887359
0.0528494641184806
0.0498318783938884
0.0450618043541908
0.0382097698748111
0.0291408132761716
0.0179719999432563
0.0050950860604643
-0.0088499076664447
-0.0230513252317905
-0.0366252474486827
-0.0487132854759693
-0.0585714131593704
-0.0656410381197929
-0.069595880806446
-0.0703675374388694
-0.0681488662958145
-0.0633659362792968
-0.056617647409439
-0.048598788678646
-0.0400227047502994
-0.0315521582961082
-0.023740591481328
-0.0169835612177848
-0.0114916963502764
-0.0072949882596731
-0.0042678052559494
-0.002163409255445
-0.0006566168740391
0.0006088418886065
0.0019744932651519
0.0037288097664713
0.0060805790126323
0.0091451276093721
0.0129442503675818
0.0174179822206497
0.022442365065217
0.0278495140373706
0.0334487110376358
0.0390446931123733
0.0444472506642341
0.0494752787053585
0.0539661422371864
0.057788461446762
0.0608500055968761
0.0630999580025672
0.0645270049571991
0.0651558861136436
0.0650443211197853
0.0642773881554603
0.0629584789276123
0.0611986592411994
0.0591020360589027
0.0567374415695667
0.0540919415652751
0.0510249361395835
0.0472498126327991
0.0423565283417701
0.0358803607523441
0.0274088457226753
0.0166974030435085
0.0037593878805637
-0.0110917463898658
-0.0272541958838701
-0.0438959971070289
-0.0600494965910911
-0.07472924888134
-0.0870523899793624
-0.0963401943445205
-0.1021870598196983
-0.1044902130961418
-0.1034407392144203
-0.0994856059551239
-0.0932699739933013
-0.0855608880519867
-0.0771579146385192
-0.068807229399681
-0.0611324496567249
-0.0545849502086639
-0.0494130253791809
-0.0456535071134567
-0.0431509986519813
-0.0416019633412361
-0.040610522031784
-0.0397445037961006
-0.0385910123586654
-0.0368061289191246
-0.0341467671096324
-0.0304876435548067
-0.0258292723447084
-0.0202888883650302
-0.0140722608193755
-0.0074385199695825
-0.000669150147587
0.0059578740037977
0.0121923340484499
0.0178315173834562
0.0227307323366403
0.0268059708178043
0.0300313085317611
0.032433595508337
0.0340863168239593
0.0351008921861648
0.0356144607067108
0.0357704237103462
0.0356832779943943
0.0353875793516635
0.0347850061953067
0.0336146652698516
0.0314691811800003
0.0278603490442037
0.0223225019872188
0.0145313274115324
0.004407518543303
-0.0078215738758444
-0.0216146148741245
-0.036163680255413
-0.0504895411431789
-0.0635651424527168
-0.0744381994009018
-0.0823367312550544
-0.0867520794272422
-0.0874866619706153
-0.0846593827009201
-0.0786755979061126
-0.0701683610677719
-0.0599180646240711
-0.0487628504633903
-0.0375107899308204
-0.0268623773008584
-0.0173508320003747
-0.0093040242791175
-0.0028317850083112
0.002159209921956
0.0059292465448379
0.0088552664965391
0.0113678965717554
0.0138846766203641
0.0167545955628156
0.0202218722552061
0.024411454796791
0.0293335616588592
0.034900315105915
0.040949210524559
0.0472686663269996
0.0536233037710189
0.0597794093191623
0.0655276477336883
0.0706984251737594
0.0751679241657257
0.0788577944040298
0.0817340910434722
0.0838027969002723
0.0850977897644043
0.0856695175170898
0.0855802074074745
0.0848992988467216
0.0836858451366424
0.081944927573204
0.0795682445168495
0.0762951448559761
0.0717258155345916
0.0653931200504303
0.0568746142089366
0.0459120534360408
0.032508336007595
0.0169831234961748
-2.4454668164253235e-05
-0.0176163464784622
-0.0347525887191295
-0.0503871589899063
-0.0635855868458747
-0.0736146867275238
-0.0800045505166053
-0.0825802311301231
-0.0814636722207069
-0.077048659324646
-0.0699516013264656
-0.0609439425170421
-0.0508707538247108
-0.0405605174601078
-0.0307414960116148
-0.0219774059951305
-0.0146245770156383
-0.0088191870599985
-0.0044988472945988
-0.0014420712832361
0.0006860166322439
0.0022794643882662
0.0037334412336349
0.0053954622708261
0.007533797994256
0.0103213163092732
0.0138286296278238
0.0180240981280803
0.0227837637066841
0.0279140826314687
0.0331830643117427
0.0383495911955833
0.0431860126554966
0.0474939383566379
0.0511137805879116
0.0539320819079875
0.0558859445154666
0.0569616965949535
0.057193037122488
0.0566589906811714
0.055471085011959
0.0537437349557876
0.0515491068363189
0.0488626882433891
0.0455171428620815
0.0411895886063575
0.0354414209723472
0.0278140343725681
0.0179586596786975
0.0057570859789848
-0.0086046196520328
-0.0246211849153041
-0.0415090546011924
-0.0582974068820476
-0.0739504471421241
-0.0874929130077362
-0.098119631409645
-0.1052792221307754
-0.1087237894535064
-0.1085202023386955
-0.1050257682800293
-0.0988342314958572
-0.0907014533877372
-0.0814579129219055
-0.0719152241945266
-0.0627835169434547
-0.0546130686998367
-0.0477558448910713
-0.0423435606062412
-0.0382917299866676
-0.0353348851203918
-0.033085897564888
-0.0311056673526763
-0.0289685484021902
-0.0263135433197021
-0.0228787511587142
-0.0185207054018974
-0.0132195223122835
-0.0070687318220734
-0.0002486889425199
0.0070088771171867
0.0144479963928461
0.0218022018671035
0.0288087502121925
0.0352302342653274
0.0408758074045181
0.0456151999533176
0.049384418874979
0.0521851778030395
0.0540791973471641
0.0551728717982769
0.0555871985852718
0.0554122701287269
0.0546502098441123
0.0531631857156753
0.0506583899259567
0.0467326864600181
0.0409677773714065
0.0330468267202377
0.0228645894676446
0.0106037091463804
-0.0032471967861056
-0.0179382693022489
-0.0325504280626773
-0.046111661940813
-0.0577138289809227
-0.066611997783184
-0.0722971707582473
-0.0745376423001289
-0.0733882933855056
-0.0691730454564094
-0.0624429807066917
-0.0539087690412998
-0.0443578511476516
-0.0345720648765563
-0.0252515040338039
-0.0169479064643383
-0.0100177275016903
-0.0046033766120672
-0.000642804428935
0.0020942203700542
0.0039496514946222
0.0053164521232247
0.0065836450085043
0.00808921828866
0.0100861256942152
0.0127251986414194
0.0160541087388992
0.020028568804264
0.0245295129716396
0.0293829962611198
0.0343825072050094
0.039311047643423
0.0439618900418281
0.0481588989496231
0.0517709553241729
0.0547165498137474
0.0569649823009967
0.0585357286036014
0.0594891868531703
0.0599099062383174
0.0598892532289028
0.0595018714666366
0.0587647929787635
0.0575878210365772
0.0557377338409423
0.0528385564684867
0.0484277717769146
0.0420641638338565
0.0334511324763298
0.0225370954722166
0.0095742996782064
-0.0048757824115455
-0.0200005695223808
-0.034844122827053
-0.048431746661663
-0.0598871558904647
-0.0685274824500083
-0.0739264637231826
-0.0759440958499908
-0.0747237727046012
-0.0706613436341285
-0.0643517971038818
-0.0565148741006851
-0.0479077622294425
-0.0392410643398761
-0.0311073586344718
-0.0239285267889499
-0.017930295318365
-0.0131446523591876
-0.0094339279457926
-0.0065337568521499
-0.0041089504957199
-0.0018097450956702
0.0006803711876273
0.0036097969859838
0.0071389507502317
0.0113307069987058
0.0161482952535152
0.0214664954692125
0.0270976833999156
0.0328240543603897
0.0384262651205062
0.0437029376626014
0.0484808646142482
0.0526214465498924
0.0560265891253948
0.0586407519876956
0.0604476109147071
0.0614643655717372
0.0617366656661033
0.0613376013934612
0.0603685937821865
0.0589499473571777
0.0571931265294551
0.0551577769219875
0.0528008416295051
0.0499370545148849
0.0462384782731533
0.041284617036581
0.034654401242733
0.0260388758033514
0.0153450965881347
0.0027650594711303
-0.0112099796533584
-0.0258385315537452
-0.0402274541556835
-0.0534512102603912
-0.0646664425730705
-0.0732083171606063
-0.0786613970994949
-0.0808964222669601
-0.0800675749778747
-0.0765740722417831
-0.0709967836737632
-0.0640209913253784
-0.0563551373779773
-0.0486572720110416
-0.0414777100086212
-0.0352168455719947
-0.0300965048372745
-0.0261521711945533
-0.0232520084828138
-0.0211354997009038
-0.0194615125656127
-0.0178649351000785
-0.0160174164921045
-0.0136736864224076
-0.0106924399733543
-0.007037847302854
-0.0027685854583978
0.001980579458177
0.0070214262232184
0.0121385296806693
0.0171149037778377
0.0217524468898773
0.0258876550942659
0.0294046700000762
0.0322433486580848
0.0343987047672271
0.0359126478433609
0.036858320236206
0.0373193621635437
0.0373758748173713
0.0371025577187538
0.0365700498223304
0.0358429662883281
0.0349757447838783
0.0340021252632141
0.0329085066914558
0.0315912254154682
0.0298180021345615
0.0272268410772085
0.0233813524246215
0.0178683549165725
0.0104064662009477
0.0009372625499963
-0.010324103757739
-0.022891815751791
-0.0360620319843292
-0.0489983111619949
-0.0608306042850017
-0.0707552880048751
-0.0781267881393432
-0.0825287848711013
-0.0838144570589065
-0.0821122080087661
-0.0777970403432846
-0.0714322328567504
-0.0636946037411689
-0.0552962720394134
-0.0469076707959175
-0.0390868410468101
-0.0322291627526283
-0.0265483148396015
-0.0220817364752292
-0.0187091287225484
-0.0161829553544521
-0.0141743086278438
-0.0123291853815317
-0.0103219943121075
-0.0078959660604596
-0.0048869233578443
-0.0012307213619351
0.0030425987206399
0.0078243520110845
0.0129502583295106
0.0182273592799901
0.0234593842178583
0.0284644365310668
0.0330839082598686
0.03719038143754
0.0406973138451576
0.0435632169246673
0.0457867197692394
0.0473977997899055
0.0484508052468299
0.0490181185305118
0.049181543290615
0.0490233935415744
0.0486214533448219
0.0480477288365364
0.0473662465810775
0.0466248914599418
0.0458340980112552
0.0449267216026783
0.0437128618359565
0.0418621450662612
0.0389358215034008
0.0344644039869308
0.0280510447919368
0.019476793706417
0.0087816594168543
-0.0037024533376097
-0.0173753537237644
-0.0314365215599536
-0.0449793525040149
-0.0570962205529212
-0.06697928160429
-0.074005402624607
-0.0777976512908935
-0.0782612487673759
-0.0755913034081459
-0.0702436417341232
-0.0628681629896164
-0.0542187392711639
-0.0450572595000267
-0.0360699817538261
-0.0278075877577066
-0.020645685493946
-0.0147642875090241
-0.0101550389081239
-0.0066558197140693
-0.0039995294064283
-0.0018644034862518
8.14320519566536e-05
0.0021409289911389
0.0045523066073656
0.0074612195603549
0.0109086073935031
0.0148385372012853
0.0191232524812221
0.0235937014222145
0.028065700083971
0.0323605462908744
0.0363202542066574
0.0398168340325355
0.0427570939064025
0.0450837686657905
0.0467720963060855
0.0478239133954048
0.0482674688100814
0.0481630116701126
0.0475982017815113
0.0466701164841651
0.0454723536968231
0.0440931506454944
0.0426136329770088
0.0411011911928653
0.0396001636981964
0.0381203033030033
0.0366163253784179
0.0349551737308502
0.0328889042139053
0.0300612356513738
0.0260599516332149
0.0205050557851791
0.0131512274965643
0.0039769085124135
-0.0067713558673858
-0.0185942910611629
-0.0308020897209644
-0.0426025167107582
-0.0531986244022846
-0.0618834011256694
-0.0681220367550849
-0.0716102421283721
-0.0722974389791488
-0.070375420153141
-0.0662423372268676
-0.0604509934782981
-0.0536466687917709
-0.0464963316917419
-0.0396127067506313
-0.0334871001541614
-0.0284489467740058
-0.0246559213846921
-0.0221030861139297
-0.0206426046788692
-0.0200144629925489
-0.0198859795928001
-0.0198944471776485
-0.0196898691356182
-0.0189736559987068
-0.0175269376486539
-0.0152251794934272
-0.0120387179777026
-0.0080196019262075
-0.003282418474555
0.0020117340609431
0.0076714064925909
0.0134921753779053
0.019269373267889
0.0248104371130466
0.0299495421350002
0.0345582887530326
0.0385505184531211
0.041882537305355
0.0445509143173694
0.0465885251760482
0.0480550304055213
0.0490231737494468
0.0495689436793327
0.0497670248150825
0.0496856793761253
0.0493773147463798
0.0488595962524414
0.0480818636715412
0.0468904636800289
0.0450219884514808
0.0421390011906623
0.0378996059298515
0.0320418700575828
0.0244623776525259
0.0152712129056453
0.0048101162537932
-0.0063727940432727
-0.0175866950303316
-0.0280855577439069
-0.0371600426733493
-0.0442180037498474
-0.0488472953438758
-0.0508565157651901
-0.0502914972603321
-0.0474284961819648
-0.0427383743226528
-0.0368209891021251
-0.0303263217210769
-0.0238791275769472
-0.0180138666182756
-0.0131243066862225
-0.0094311535358428
-0.0069708973169326
-0.0056109610013663
-0.0050899963825941
-0.0050720302388072
-0.0052010705694556
-0.0051463525742292
-0.0046351109631359
-0.0034781463909894
-0.0015889464411884
0.0010159837547689
0.0042378362268209
0.0079212952405214
0.0118770152330398
0.0159038007259368
0.0198096856474876
0.0234290435910224
0.0266341343522071
0.0293382499366998
0.031491819769144
0.0330772399902343
0.034105610102415
0.0346162095665931
0.0346762724220752
0.0343733616173267
0.033799085766077
0.0330313667654991
0.0321148969233036
0.0310351550579071
0.0296898670494556
0.0278710164129734
0.0252752602100372
0.0215530209243297
0.0163882691413164
0.0095859263092279
0.0011419709771871
-0.0087207565084099
-0.0195574536919593
-0.0307440757751464
-0.0415520071983337
-0.0512445122003555
-0.0591736584901809
-0.0648552477359771
-0.0680117681622505
-0.0685854107141494
-0.0667284131050109
-0.0627769082784652
-0.0572123229503631
-0.0506099350750446
-0.043573573231697
-0.0366665162146091
-0.0303560756146907
-0.0249791126698255
-0.0207227021455764
-0.0176162272691726
-0.0155397495254874
-0.0142549481242895
-0.0134544512256979
-0.0128127364441752
-0.0120272021740674
-0.0108489328995347
-0.009103556163609
-0.0067024929448962
-0.0036425204016268
6.356742233037949e-06
0.0041176276281476
0.0085258819162845
0.0130467303097248
0.0174979735165834
0.021716121584177
0.0255654789507389
0.028945218771696
0.0317929312586784
0.0340792052447795
0.0358006246387958
0.0369781106710433
0.0376572497189044
0.0379049591720104
0.0377971045672893
0.0373933725059032
0.036698792129755
0.0356198735535144
0.0339377112686634
0.0313238874077796
0.0274051465094089
0.0218563564121723
0.0144968656823039
0.005368529818952
-0.0052308635786175
-0.0167706049978733
-0.0285522490739822
-0.0397979579865932
-0.0497472323477268
-0.0577459633350372
-0.0633141472935676
-0.0661865174770355
-0.0663284659385681
-0.0639311596751213
-0.0593856461346149
-0.0532351471483707
-0.0461092740297317
-0.038649532943964
-0.0314380601048469
-0.0249381773173809
-0.0194538570940494
-0.0151155367493629
-0.0118918884545564
-0.0096176024526357
-0.0080281496047973
-0.0067997984588146
-0.0055950973182916
-0.0041086394339799
-0.0021027214825153
0.0005739293992519
0.0039806440472602
0.0080870985984802
0.0127841457724571
0.0179042518138885
0.0232487618923187
0.0286168102174997
0.0338266044855117
0.0387227162718772
0.0431770719587802
0.0470926389098167
0.0504069551825523
0.053094133734703
0.0551664903759956
0.056668747216463
0.0576639510691165
0.0582171939313411
0.058369867503643
0.0580967850983142
0.057262223213911
0.0556042715907096
0.0527680367231369
0.0483843423426151
0.0421669371426105
0.0339991971850395
0.0239945128560066
0.0125186815857887
0.0001653884537518
-0.0123100709170103
-0.0240837875753641
-0.0343664735555648
-0.042498093098402
-0.0480176508426666
-0.0507021956145763
-0.0505772344768047
-0.0479010567069053
-0.0431254245340824
-0.0368367694318294
-0.0296833291649818
-0.0223011337220668
-0.0152552537620067
-0.0089989509433507
-0.0038446821272373
5.483999848365784e-05
0.0027111656963825
0.0042830482125282
0.0050388379022479
0.005308368243277
0.0054327719844877
0.005720090586692
0.006414268631488
0.007677178364247
0.0095798233523964
0.0121044693514704
0.0151593880727887
0.0185979977250099
0.02223458327353
0.0258615631610155
0.0292736794799566
0.0322947278618812
0.0347974859178066
0.0367094948887825
0.0380075760185718
0.038710456341505
0.0388711765408515
0.0385617651045322
0.0378422923386096
0.0367138087749481
0.0350706875324249
0.0326818712055683
0.0292199235409498
0.0243305023759603
0.017721340060234
0.0092518106102943
-0.0009958958253264
-0.0126851350069046
-0.0252452045679092
-0.037938192486763
-0.0499520897865295
-0.0604980811476707
-0.068899430334568
-0.0746640488505363
-0.0775295346975326
-0.0774765089154243
-0.0747151970863342
-0.0696477517485618
-0.0628125146031379
-0.0548256672918796
-0.0463252030313015
-0.0379102192819118
-0.0300816874951124
-0.0232011005282402
-0.0174711532890796
-0.0129355881363153
-0.0094983372837305
-0.0069589568302035
-0.0050534377805888
-0.0034910524263978
-0.0019874954596161
-0.0002967920154333
0.0017616106197237
0.0042896470986306
0.0073148808442056
0.0107996715232729
0.0146465487778186
0.0187099948525428
0.0228185206651687
0.0267969686537981
0.0304854586720466
0.0337563827633857
0.0365255698561668
0.0387547090649604
0.0404476448893547
0.041644275188446
0.0424124263226985
0.04283032938838
0.04295065253973
0.0427528917789459
0.0421031713485717
0.0407367832958698
0.0382790938019752
0.0343166030943393
0.0285037755966186
0.0206697098910808
0.0108915111050009
-0.0004834616556763
-0.012868289835751
-0.0255106426775455
-0.0375903584063053
-0.0483169481158256
-0.0570138543844223
-0.0631844103336334
-0.0665546059608459
-0.0670883730053901
-0.0649746060371398
-0.0605951659381389
-0.0544822886586189
-0.0472594797611236
-0.0395654365420341
-0.031979139894247
-0.0249635949730873
-0.018832953646779
-0.0137414541095495
-0.0096901096403598
-0.0065473709255456
-0.0040836902335286
-0.0020162882283329
-5.503743886947632e-05
0.002058470621705
0.0045249415561556
0.0074742278084158
0.01095652859658
0.0149355679750442
0.0192940514534711
0.0238586328923702
0.0284349508583545
0.0328355096280574
0.0368945747613906
0.0404786542057991
0.0434972271323204
0.0459059700369834
0.0476994961500167
0.0489025376737117
0.0495656989514827
0.0497624911367893
0.0495821349322795
0.0491153448820114
0.0484290048480033
0.0475250743329525
0.04629373177886
0.0444888696074485
0.0417500883340835
0.0376720316708087
0.0319017767906188
0.0242374204099178
0.0147019233554601
0.0035750064998865
-0.0086224470287561
-0.0211875438690185
-0.0333260893821716
-0.0442556589841842
-0.0532986149191856
-0.059949904680252
-0.0639198571443557
-0.0651557296514511
-0.0638381093740463
-0.0603480897843837
-0.055209569633007
-0.0490182414650917
-0.0423713698983192
-0.0358083918690681
-0.0297661237418651
-0.024549301713705
-0.0203158501535654
-0.0170748177915811
-0.0147002954035997
-0.0129673881456255
-0.0115994494408369
-0.0103081194683909
-0.0088275857269763
-0.0069500803947448
-0.0045516123063862
-0.0015976295107975
0.001865376252681
0.0057265642099082
0.009835279546678
0.0140283852815628
0.0181515514850616
0.0220707040280103
0.0256772134453058
0.0288905166089534
0.0316591411828994
0.0339593924582004
0.0357922725379467
0.037181943655014
0.0381721928715705
0.0388152599334716
0.0391601175069808
0.0392500311136245
0.0391253307461738
0.0388228669762611
0.038373164832592
0.0377987846732139
0.0371077544987201
0.0362703166902065
0.0351778678596019
0.033606044948101
0.0312146265059709
0.0275998450815677
0.0223863907158374
0.0153295248746871
0.0063961204141378
-0.0041973125189542
-0.0159957781434059
-0.0283585097640752
-0.0405399017035961
-0.0517818108201026
-0.0613993369042873
-0.0688501372933387
-0.0737839490175247
-0.0760680586099624
-0.0757875889539718
-0.0732241943478584
-0.0688160359859466
-0.0631036534905433
-0.0566681958734989
-0.050067264586687
-0.0437783263623714
-0.0381600260734558
-0.0334314107894897
-0.0296661797910928
-0.0268018972128629
-0.0246622674167156
-0.0229904595762491
-0.0214922204613685
-0.0198821388185024
-0.0179216004908084
-0.0154411885887384
-0.0123491054400801
-0.0086305141448974
-0.0043414602987468
0.0004033627919852
0.0054521281272172
