bvp
-0.0023409631103277
-0.0004336033016443
0.0022459737956523
0.0057186800986528
0.0099291186779737
0.0147529197856783
0.0200089681893587
0.0254794228821992
0.0309372264891862
0.0361721366643905
0.0410094931721687
0.0453235059976577
0.0490473844110965
0.052174475044012
0.0547453165054321
0.0568298511207103
0.0585143268108367
0.0598919875919818
0.0610539652407169
0.0620761662721633
0.0629984810948371
0.063798114657402
0.0643643364310264
0.0644819289445877
0.0638321936130523
0.0620227679610252
0.0586470887064933
0.0533633567392826
0.0459762252867221
0.0364938154816627
0.0251409448683261
0.0123348403722047
-0.001361533999443
-0.0152994161471724
-0.0288135353475809
-0.04129409044981
-0.0522468723356723
-0.061331570148468
-0.0683796033263206
-0.0733928829431533
-0.0765253156423568
-0.078053131699562
-0.0783369690179824
-0.0777734443545341
-0.0767423808574676
-0.0755657851696014
-0.0744851529598236
-0.0736495107412338
-0.0731086656451225
-0.0728159323334693
-0.0726470276713371
-0.0724325776100158
-0.0719916895031929
-0.0711572542786598
-0.0697913914918899
-0.0677933469414711
-0.0651055872440338
-0.0617184042930603
-0.0576676800847053
-0.0530246384441852
-0.0478811301290988
-0.0423368588089942
-0.0364909842610359
-0.0304349362850189
-0.0242461636662483
-0.0179861411452293
-0.011704497039318
-0.0054450891911983
0.0007521659135818
0.0068527944386005
0.0128250494599342
0.0186253488063812
0.0241708792746067
0.0293121524155139
0.03382583335042
0.0374409854412078
0.0398941785097122
0.0409926623106002
0.0406669452786445
0.0390083231031894
0.0362866297364234
0.0329381451010704
0.0295215994119644
0.0266474336385726
0.024891160428524
0.0247107334434986
0.0263852700591087
0.0299829430878162
0.0353594869375228
0.0421827137470245
0.0499758124351501
0.0581756308674812
0.0662014856934547
0.0735203772783279
0.0796935483813285
0.0844048932194709
0.0874790921807289
0.0888881608843803
0.0887410566210746
0.0872598513960838
0.0847515016794204
0.0815795212984085
0.0781344324350357
0.0748003721237182
0.0719166696071624
0.0697415843605995
0.0684324726462364
0.0680503621697425
0.0685827285051345
0.0699673593044281
0.0721072107553482
0.0748824402689933
0.0781608372926712
0.0817967876791954
0.0856164842844009
0.0894031226634979
0.0928957909345626
0.0958012118935585
0.0978121533989906
0.0986279025673866
0.097970612347126
0.0955934524536132
0.0912821367383003
0.0848622545599937
0.0762260407209396
0.065372459590435
0.0524434745311737
0.0377459339797496
0.0217511057853698
0.0050654262304306
-0.0116281658411026
-0.0276492722332477
-0.042396917939186
-0.055404208600521
-0.0663679167628288
-0.0751581043004989
-0.0818108692765235
-0.0865032821893692
-0.0895136073231697
-0.0911757573485374
-0.0918356627225875
-0.0918176621198654
-0.091406799852848
-0.0908419862389564
-0.0903113335371017
-0.0899479240179061
-0.0898275226354599
-0.0899688005447387
-0.0903351977467536
-0.090837687253952
-0.0913422927260398
-0.0916861593723297
-0.0917007178068161
-0.0912369862198829
-0.0901854857802391
-0.0884824022650718
-0.0861009508371353
-0.0830402970314025
-0.0793233811855316
-0.07499960064888
-0.0701461285352706
-0.0648690238595008
-0.0593025796115398
-0.0536036826670169
-0.0479414947330951
-0.0424826443195343
-0.0373746342957019
-0.0327338799834251
-0.0286453384906053
-0.0251804292201995
-0.0224296990782022
-0.0205311831086874
-0.0196752287447452
-0.0200823545455932
-0.021961199119687
-0.0254510529339313
-0.0305582880973815
-0.0371079519391059
-0.0447281450033187
-0.0528721734881401
-0.0608766302466392
-0.0680459141731262
-0.0737425535917282
-0.0774609148502349
-0.078872412443161
-0.0778423249721527
-0.0744237452745437
-0.0688357874751091
-0.061431985348463
-0.0526641458272933
-0.0430435091257095
-0.0330967791378498
-0.0233179051429033
-0.0141237638890743
-0.0058219525963068
0.0014067739248275
0.0075104869902133
0.01255405228585
0.0166980810463428
0.02017143368721
0.0232382044196128
0.0261601656675338
0.0291589125990867
0.0323896445333957
0.0359346643090248
0.0398101024329662
0.0439770631492137
0.0483560115098953
0.0528432391583919
0.0573265254497528
0.0616986602544784
0.0658669993281364
0.0697567462921142
0.0733089074492454
0.0764755308628082
0.0792098417878151
0.0814473703503608
0.0830812603235244
0.0839428156614303
0.0838046669960022
0.0824173241853714
0.0795663446187973
0.0751282125711441
0.0691154301166534
0.0617061182856559
0.0532483644783496
0.0442321896553039
0.0352352894842624
0.0268564913421869
0.0196480359882116
0.0140545247122645
0.0103655653074383
0.0086887329816818
0.0089470269158482
0.0108984289690852
0.0141732972115278
0.0183256100863218
0.022887036204338
0.027412261813879
0.0315127596259117
0.0348799377679824
0.0373010635375976
0.0386709757149219
0.0389952808618545
0.0383802764117717
0.0370116531848907
0.0351251997053623
0.0329722017049789
0.0307861100882291
0.0287584215402603
0.0270273517817258
0.0256779007613658
0.0247485060244798
0.0242368429899215
0.0241019837558269
0.0242693535983562
0.0246412120759487
0.0251069217920303
0.0255521461367607
0.0258709508925676
0.0259764492511749
0.0258019268512725
0.0252952147275209
0.0244102552533149
0.0230922773480415
0.0212617106735706
0.0188103541731834
0.0156152956187725
0.0115681663155555
0.0066105499863624
0.0007628947496414
-0.0058582201600074
-0.0130363181233406
-0.0204693768173456
-0.0278017856180667
-0.0346653014421463
-0.0407196432352066
-0.0456867888569831
-0.0493775382637977
-0.0517092943191528
-0.0527112521231174
-0.0525170639157295
-0.051348753273487
-0.0494911149144172
-0.0472572855651378
-0.0449554100632667
-0.0428628884255886
-0.0412032417953014
-0.0401221923530101
-0.0396703518927097
-0.0398016348481178
-0.0403900444507598
-0.0412599593400955
-0.0422174632549285
-0.0430721193552017
-0.043650671839714
-0.0438075624406337
-0.0434287972748279
-0.0424267686903476
-0.0407339707016944
-0.0383045896887779
-0.0351257883012294
-0.0312333181500434
-0.0267197005450725
-0.0217285528779029
-0.0164407342672348
-0.0110577829182147
-0.0057844128459692
-0.0008139424026012
0.003681905567646
0.0075597837567329
0.0107053816318511
0.0130286999046802
0.0144610665738582
0.0149563215672969
0.0144971758127212
0.0131092481315135
0.0108741670846939
0.0079308450222015
0.0044676139950752
0.0007080920040607
-0.0031098611652851
-0.0067568775266408
-0.0100313331931829
-0.0127744190394878
-0.0148809570819139
-0.016305323690176
-0.0170611850917339
-0.0172156989574432
-0.0168791096657514
-0.0161893777549266
-0.0152940908446908
-0.0143337966874241
-0.0134309371933341
-0.0126847606152296
-0.0121668670326471
-0.0119156241416931
-0.0119321029633283
-0.0121794398874044
-0.0125893913209438
-0.0130763333290815
-0.0135512463748455
-0.0139327468350529
-0.0141590517014265
-0.0141992652788758
-0.0140574555844068
-0.01376698538661
-0.0133779970929026
-0.0129459537565708
-0.0125298397615551
-0.0121961245313286
-0.0120157618075609
-0.0120530007407069
-0.0123535208404064
-0.0129341147840023
-0.0137760881334543
-0.0148276444524526
-0.01601467654109
-0.0172538720071315
-0.018465606495738
-0.0195870008319616
-0.0205786135047674
-0.0214166045188903
-0.0220743753015995
-0.0225050803273916
-0.0226332694292068
-0.022358002141118
-0.021564669907093
-0.0201422125101089
-0.0180029030889272
-0.0151003189384937
-0.0114420689642429
-0.0070959702134132
-0.0021883528679609
0.0031039025634527
0.0085640279576182
0.0139507502317428
0.0190210863947868
0.0235541984438896
0.0273708626627922
0.0303496867418289
0.0324347354471683
0.0336308889091014
0.0339951664209365
0.0336291231215
0.0326690822839736
0.0312725640833377
0.0296034533530473
0.0278169699013233
0.0260431487113237
0.0243733935058116
0.0228589661419391
0.0215201675891876
0.0203560516238212
0.0193516425788402
0.0184864662587642
0.0177439153194427
0.017113184556365
0.0165797770023345
0.0161159969866275
0.0156824439764022
0.0152364037930965
0.0147398775443434
0.0141665283590555
0.0135069116950035
0.0127693116664886
0.0119752697646617
0.0111490003764629
0.0103028044104576
0.0094261299818754
0.0084844678640365
0.0074319671839475
0.0062341522425413
0.0048845037817955
0.003407496958971
0.0018585342913866
0.0003257300704717
-0.0010733362287282
-0.0022046044468879
-0.0029381364583969
-0.0031701736152172
-0.0028419699519872
-0.0019518211483955
-0.0005547478795051
0.0012492034584283
0.0033308323472738
0.0055487304925918
0.0077671445906162
0.0098738372325897
0.0117927975952625
0.0134880021214485
0.0149659868329763
0.0162801817059516
0.0175255313515663
0.0188185181468725
0.0202714689075946
0.0219694375991821
0.0239519774913787
0.0262039452791214
0.0286593474447727
0.0312125999480485
0.033729113638401
0.0360568724572658
0.0380459614098072
0.03957200050354
0.0405470505356788
0.0409151390194892
0.0406487397849559
0.0397505983710289
0.0382516719400882
0.0362053774297237
0.0336834862828254
0.0307728629559278
0.0275688655674457
0.0241636335849761
0.0206320136785507
0.0170212052762508
0.0133519330993294
0.0096322139725089
0.0058763436973094
0.0021239193156361
-0.001549017149955
-0.0050337789580225
-0.0082005765289068
-0.0109127108007669
-0.0130469445139169
-0.0145173370838165
-0.0152938235551118
-0.0154078509658575
-0.0149442879483103
-0.0140277063474059
-0.0128111504018306
-0.0114671764895319
-0.010175984352827
-0.009108611382544
-0.008408349007368
-0.0081748533993959
-0.0084556499496102
-0.0092468308284878
-0.0104967150837183
-0.0121079068630933
-0.0139432279393076
-0.0158396940678358
-0.0176264122128486
-0.019141424447298
-0.0202471800148487
-0.0208461377769708
-0.0208945199847221
-0.020408522337675
-0.0194610264152288
-0.0181714743375778
-0.0166879221796989
-0.015161920338869
-0.0137276668101549
-0.0124924154952168
-0.011531826108694
-0.0108863580971956
-0.0105623407289385
-0.0105393780395388
-0.0107813132926821
-0.0112487869337201
-0.0119127407670021
-0.012765996158123
-0.0138290021568536
-0.0151478014886379
-0.0167836546897888
-0.0187941491603851
-0.0212080888450145
-0.0240018628537654
-0.0270902756601572
-0.0303361304104328
-0.0335674919188022
-0.0365947112441062
-0.0392276793718338
-0.0412937961518764
-0.0426569022238254
-0.0432332977652549
-0.0429988205432891
-0.0419882759451866
-0.0402931943535804
-0.0380585640668869
-0.0354737266898155
-0.0327546782791614
-0.0301175471395254
-0.0277458243072032
-0.0257654804736375
-0.0242412332445383
-0.0231863763183355
-0.022573759779334
-0.0223451238125562
-0.0224183704704046
-0.0226946324110031
-0.0230667106807231
-0.0234259832650423
-0.0236679185181856
-0.0236976332962512
-0.0234332680702209
-0.0228093899786472
-0.021784920245409
-0.0203505959361791
-0.0185287408530712
-0.0163695719093084
-0.0139489006251096
-0.0113605447113513
-0.0087002366781234
-0.0060515701770782
-0.0034844614565372
-0.001067966222763
0.0011096559464931
0.0029278136789798
0.004236377775669
0.0048742890357971
0.0047006458044052
0.0036307647824287
0.0016676299273967
-0.0010783858597278
-0.0043870657682418
-0.0079480446875095
-0.0114015340805053
-0.0143857337534427
-0.0165770128369331
-0.0177217349410057
-0.0176603309810161
-0.0163428485393524
-0.0138354748487472
-0.0103136450052261
-0.0060393810272216
-0.0013279393315315
0.0034909471869468
0.0081144794821739
0.0123035907745361
0.0159074030816555
0.0188724622130393
0.021234393119812
0.0230949632823467
0.0245959125459194
0.0258983373641967
0.027167621999979
0.0285590291023254
0.0302018262445926
0.03218549862504
0.0345511734485626
0.0372904948890209
0.0403536558151245
0.0436613000929355
0.0471148639917373
0.0506069101393222
0.0540335811674594
0.0573073998093605
0.0603599399328231
0.0631230100989341
0.0654948502779007
0.0673110261559486
0.0683369785547256
0.0682893395423889
0.0668817982077598
0.0638849288225174
0.0591886714100837
0.0528556890785694
0.0451506376266479
0.0365312471985816
0.0275994092226028
0.0190240778028965
0.0114562027156353
0.0054535157978534
0.0014161653816699
-0.0004663690924644
-0.0002397783100605
0.0018280372023582
0.005288079380989
0.0095734968781471
0.0140787884593009
0.0182390697300434
0.0215941034257411
0.0238302052021026
0.0248019974678754
0.024537157267332
0.0232205782085657
0.0211561918258667
0.0187163762748241
0.0162908770143985
0.0142363086342811
0.0128297246992588
0.0122403278946876
0.01252400316298
0.0136325806379318
0.0154331419616937
0.0177355706691741
0.0203235018998384
0.0229836069047451
0.0255282670259475
0.027809714898467
0.0297272950410842
0.0312268249690532
0.0322867222130298
0.0328851640224456
0.0329523384571075
0.0323264263570308
0.0307378359138965
0.0278399251401424
0.0232848599553108
0.0168221201747655
0.0083898548036813
-0.0018267384730279
-0.013382626697421
-0.025605596601963
-0.0376705005764961
-0.0487037897109985
-0.0578965730965137
-0.0646048486232757
-0.0684233009815216
-0.0692227631807327
-0.0671476274728775
-0.0625843256711959
-0.0561127811670303
-0.0484384521842002
-0.0403062440454959
-0.0324126370251178
-0.0253329183906316
-0.0194699354469776
-0.0150245316326618
-0.0119910147041082
-0.0101798074319958
-0.0092610456049442
-0.0088213505223393
-0.0084268748760223
-0.0076839472167193
-0.006287497933954
-0.0040499637834727
-0.0009121233597397
0.0030604465864598
0.0076972902752459
0.0127572305500507
0.0179674439132213
0.023059407249093
0.0277967639267444
0.0319927036762237
0.0355178490281105
0.038299947977066
0.0403111614286899
0.0415378510951995
0.0419345200061798
0.0413742363452911
0.0396242551505565
0.0363724380731582
0.0312990136444568
0.0241684168577194
0.0149203818291425
0.0037422403693199
-0.0088994223624467
-0.022283935919404
-0.0355177074670791
-0.0476513281464576
-0.0578030720353126
-0.0652650892734527
-0.0695808008313179
-0.0705868229269981
-0.0684153586626052
-0.0634631812572479
-0.0563367903232574
-0.0477784499526023
-0.0385823845863342
-0.0295138284564018
-0.0212341770529747
-0.0142336934804916
-0.0087828086689114
-0.0049167685210704
-0.0024595633149147
-0.0010768771171569
-0.0003416761755943
0.0001971069723367
0.0009505730122327
0.0022401446476578
0.0042672716081142
0.007102457806468
0.0106928497552871
0.0148853119462728
0.0194564256817102
0.0241432692855596
0.0286751445382833
0.0328037440776824
0.0363261364400386
0.039099171757698
0.0410466790199279
0.0421599596738815
0.0424923934042453
0.0421432480216026
0.0412197411060333
0.0397767312824726
0.0377541482448577
0.0349442400038242
0.0310133770108222
0.0255793593823909
0.0183201059699058
0.0090828314423561
-0.0020306855440139
-0.0146249942481517
-0.0280326921492815
-0.0413931012153625
-0.0537685677409172
-0.0642710328102111
-0.0721730962395668
-0.0769878625869751
-0.0785140097141265
-0.0768482089042663
-0.0723623037338256
-0.06564661860466
-0.0574326515197753
-0.0485075637698173
-0.0396282188594341
-0.031443640589714
-0.024432985112071
-0.0188650749623775
-0.0147864194586873
-0.012039665132761
-0.0103084594011306
-0.0091813243925571
-0.0082223825156688
-0.0070339180529117
-0.0053014419972896
-0.0028228498995304
0.0004763677716255
0.004547145217657
0.0092394463717937
0.0143334176391363
0.0195709448307752
0.0246835574507713
0.0294170156121253
0.033555369824171
0.0369415581226348
0.039488285779953
0.0411792695522308
0.0420627444982528
0.0422366484999656
0.0418308451771736
0.0409923382103443
0.0398706123232841
0.0385979302227497
0.0372576117515563
0.0358371026813983
0.0341842323541641
0.0319945253431797
0.0288468934595584
0.024290807545185
0.0179643519222736
0.0097059980034828
-0.000369805842638
-0.0118501000106334
-0.0240601785480976
-0.0361519642174243
-0.0472225248813629
-0.0564376413822174
-0.0631401389837265
-0.0669261440634727
-0.0676799938082695
-0.0655695497989654
-0.0610083751380443
-0.0545962154865264
-0.0470482073724269
-0.039113700389862
-0.031488548964262
-0.0247366819530725
-0.0192354656755924
-0.0151489777490496
-0.0124305570498108
-0.0108552919700741
-0.010073272511363
-0.0096700424328446
-0.0092275459319353
-0.0083812391385436
-0.0068656606599688
-0.0045390287414193
-0.0013828799128532
0.0025143139064311
0.0069783255457878
0.0117741972208023
0.0166372656822204
0.0213079918175935
0.0255617629736661
0.0292262863367795
0.0321907326579093
0.0344095900654792
0.0358966551721096
0.0367115810513496
0.0369465202093124
0.0367130376398563
0.0361272692680358
0.0352998599410057
0.0343348160386085
0.0333267375826835
0.0323481634259223
0.0314322635531425
0.0305526014417409
0.0295952390879392
0.028332594782114
0.0264234021306037
0.0234553068876266
0.0190270356833934
0.0128500610589981
0.0048402957618236
-0.0048261284828186
-0.0157059207558631
-0.0271322820335626
-0.0383013486862182
-0.0483814850449562
-0.0566232316195964
-0.0624543018639087
-0.065543033182621
-0.0658201500773429
-0.0634663254022598
-0.0588767752051353
-0.0526069588959217
-0.0453036651015281
-0.0376311130821704
-0.0302016977220773
-0.0235164277255535
-0.0179183389991521
-0.013565257191658
-0.0104298023506999
-0.0083265043795108
-0.0069571179337799
-0.0059667211025953
-0.0050028413534164
-0.0037643620744347
-0.0020339740440249
0.0003028353676199
0.0032547656446695
0.0067391395568847
0.0106050428003072
0.0146596152335405
0.0186963491141796
0.0225198008120059
0.0259617082774639
0.0288890525698661
0.0312088690698146
0.0328742340207099
0.0338895246386528
0.0343063548207283
0.0342072807252407
0.0336884260177612
0.0328497439622879
0.0317892730236053
0.0305970832705497
0.0293489657342433
0.0281020496040582
0.0268967188894748
0.0257636830210685
0.0247272104024887
0.0238007362931966
0.022974994033575
0.0221963878720998
0.0213398206979036
0.0201889537274837
0.0184366609901189
0.0157160349190235
0.0116671361029148
0.0060267355293035
-0.0012857932597398
-0.0101119000464677
-0.0200460143387317
-0.0304811596870422
-0.0406928732991218
-0.0499380677938461
-0.0575500279664993
-0.0630164369940757
-0.0660305991768837
-0.0665130838751792
-0.0646057799458503
-0.0606407448649406
-0.055092915892601
-0.048527467995882
-0.0415405258536338
-0.0346908718347549
-0.0284351557493209
-0.0230838134884834
-0.0187846310436725
-0.0155294127762317
-0.0131764989346265
-0.0114862760528922
-0.0101656382903456
-0.0089121116325259
-0.0074521265923976
-0.0055731944739818
-0.0031458428129553
-0.0001292144879698
0.0034351774957031
0.0074320808053016
0.0116871120408177
0.0159932486712932
0.0201410148292779
0.0239426214247941
0.0272498112171888
0.0299666449427604
0.0320526584982872
0.0335155986249446
0.0344020016491413
0.034787967801094
0.0347655080258846
0.0344286747276783
0.0338680259883403
0.0331706739962101
0.0324148535728454
0.0316582471132278
0.0309316366910934
0.0302417650818824
0.0295769460499286
0.0289119090884923
0.0282117761671543
0.0274304151535034
0.0264929458498954
0.0252660308033227
0.0235424172133207
0.0210617445409297
0.0175629332661628
0.0128480959683656
0.0068444376811385
-0.0003459127619862
-0.0084295719861984
-0.0169510338455438
-0.0253513511270284
-0.0330385491251945
-0.0394623689353466
-0.0441827028989791
-0.0469200275838375
-0.0475810021162033
-0.0462577268481254
-0.0432067662477493
-0.0388149321079254
-0.0335540771484375
-0.0279274173080921
-0.0224138367921113
-0.0174174439162015
-0.0132278874516487
-0.0099965240806341
-0.0077321035787463
-0.0063130976632237
-0.0055111935362219
-0.005024379119277
-0.004518580622971
-0.0036749131977558
-0.0022356631234288
-3.6845915019512177e-05
0.0029799519106745
0.0067722601816058
0.0112101361155509
0.0160949081182479
0.0211843941360712
0.0262241661548614
0.0309777446091175
0.0352458581328392
0.0388733074069023
0.0417519584298133
0.0438245981931686
0.0450865775346756
0.0455835834145545
0.0454041510820388
0.0446640849113464
0.0434864610433578
0.0419851019978523
0.0402560047805309
0.0383766740560531
0.0364093258976936
0.0344033129513263
0.0323959067463874
0.0304100215435028
0.0284419618546962
0.0264373328536748
0.0242674425244331
0.021722849458456
0.0185353085398674
0.0144278211519122
0.0091801611706614
0.0026923110708594
-0.0049708345904946
-0.0135637558996677
-0.0226773787289857
-0.0317867472767829
-0.0403175354003906
-0.0477175936102867
-0.0535228997468948
-0.0574068240821361
-0.0592097453773021
-0.0589535497128963
-0.0568365082144737
-0.0532012358307838
-0.0484828986227512
-0.0431545078754425
-0.0376801006495952
-0.0324743464589118
-0.0278653390705585
-0.0240659229457378
-0.0211616493761539
-0.0191167164593935
-0.0177935846149921
-0.0169824808835983
-0.0164360906928777
-0.0159029997885227
-0.0151585899293422
-0.0140339992940425
-0.0124356737360358
-0.0103475116193294
-0.0078191440552473
-0.0049493466503918
-0.0018688985146582
0.0012751491740345
0.0043332297354936
0.0071673742495477
0.0096658980473876
0.0117550808936357
0.013403795659542
0.0146208107471466
0.0154494727030396
0.0159623473882675
0.0162512827664613
0.0164100062102079
0.0165171884000301
0.0166299939155578
0.0167863275855779
0.0170069467276334
0.0172961987555027
0.0176455769687891
0.0180350691080093
0.0184222254902124
0.018721031025052
0.0187820084393024
0.0183840990066528
0.017250582575798
0.015096859075129
0.0116988308727741
0.0069555747322738
0.0009292012546211
-0.0061396630480885
-0.0138455852866172
-0.0216641891747713
-0.0290177557617425
-0.0353474281728267
-0.0401826053857803
-0.0431945510208606
-0.0442252829670906
-0.0432934500277042
-0.0405837595462799
-0.0364215932786464
-0.0312318280339241
-0.0254858210682868
-0.0196454655379056
-0.014115996658802
-0.009213238954544
-0.00514174439013
-0.0019839964807033
0.0002956055104732
0.0018337294459342
0.002841642126441
0.0035717133432626
0.0042807981371879
0.0051959585398435
0.0064874906092882
0.0082521587610244
0.0105090243741869
0.0132088866084814
0.0162539239972829
0.0195195171982049
0.0228687785565853
0.0261597912758588
0.0292550772428512
0.0320349745452404
0.0344083309173584
0.0363178849220275
0.0377407670021057
0.0386854708194732
0.0391873084008693
0.0393004640936851
0.0390879660844802
0.0386170260608196
0.0379582792520523
0.0371815785765647
0.0363508723676204
0.0355206504464149
0.0347235687077045
0.0339432954788208
0.0330867208540439
0.031972337514162
0.0303404834121465
0.0278876833617687
0.0243234671652317
0.0194391515105962
0.0131725622341036
0.0056508379057049
-0.0028026241343468
-0.0116997305303812
-0.0204496160149574
-0.0284373015165328
-0.0351024605333805
-0.0400033742189407
-0.0428618043661117
-0.0435905940830707
-0.042298037558794
-0.0392643213272094
-0.0348998047411441
-0.0296966470777988
-0.0241750013083219
-0.0188237912952899
-0.0140450708568096
-0.010114244185388
-0.0071623469702899
-0.0051799779757857
-0.0040378510020673
-0.0035182568244636
-0.0033536027185618
-0.0032671042717993
-0.0030112164095044
-0.0023982841521501
-0.0013151122257113
0.00027760816738
0.0023530148901045
0.0048303403891623
0.0075918664224445
0.0105026848614215
0.013427535071969
0.0162397436797618
0.0188261810690164
0.0210933852940797
0.0229728464037179
0.024423474445939
0.0254326686263084
0.0260161515325307
0.0262123774737119
0.0260696839541196
0.0256352238357067
0.0249531064182519
0.0240669976919889
0.0230184867978096
0.021834522485733
0.0205027349293231
0.0189424995332956
0.0169878657907247
0.0143987918272614
0.0109050031751394
0.0062718614935874
0.0003712922334671
-0.006758214905858
-0.0148798450827598
-0.0235711485147476
-0.0322798006236553
-0.0404010415077209
-0.0473551452159881
-0.0526543445885181
-0.055955559015274
-0.0570956096053123
-0.0561059154570102
-0.0532069988548755
-0.0487828403711319
-0.0433345735073089
-0.0374175831675529
-0.0315729677677154
-0.0262667667120695
-0.0218436084687709
-0.0184945091605186
-0.0162462368607521
-0.0149803217500448
-0.0144702587276697
-0.0144213689491152
-0.0145097998902201
-0.0144204245880246
-0.0138838440179824
-0.0127085577696561
-0.0107984691858291
-0.0081533044576644
-0.0048562427982687
-0.0010512515436857
0.0030838102102279
0.0073603549972176
0.0115973856300115
0.0156358983367681
0.0193458143621683
0.0226253867149353
0.0254011861979961
0.0276322420686483
0.0293115600943565
0.0304600205272436
0.0311169978231191
0.0313346348702907
0.0311761405318975
0.0307102017104625
0.029990904033184
0.0290214866399765
0.0277167838066816
0.0258866678923368
0.02325707860291
0.0195298362523317
0.0144614111632108
0.0079370085150003
2.75932252407074e-05
-0.0089836847037076
-0.0186192914843559
-0.028265094384551
-0.0372506827116012
-0.0449354089796543
-0.0507851392030715
-0.0544296316802501
-0.0556988567113876
-0.0546364597976207
-0.0514874346554279
-0.0466635413467884
-0.0406906530261039
-0.0341420695185661
-0.02757253870368
-0.0214663110673427
-0.0161937661468982
-0.0119743244722485
-0.0088605917990207
-0.0067515708506107
-0.0054260827600955
-0.0045854579657316
-0.0038988720625638
-0.0030488446354866
-0.001773340627551
0.000104259699583
0.0026613362133502
0.0058747204020619
0.0096324700862169
0.0137606747448444
0.0180563926696777
0.0223150420933961
0.0263520777225494
0.0300216227769851
0.0332270711660385
0.0359214730560779
0.0381030179560184
0.0398083478212356
0.0411035493016243
0.0420737937092781
0.0428111925721168
0.0433997139334678
0.0438954532146453
0.0442996174097061
0.0445292927324771
0.0443996824324131
0.0436270646750927
0.0418582633137702
0.0387344993650913
0.0339814759790897
0.0274967569857835
0.0194059964269399
0.0100728962570428
6.330665200948715e-05
-0.009925034828484
-0.0191533025354146
-0.0269376616925001
-0.0327335074543952
-0.0361964181065559
-0.0372152924537658
-0.0359129682183265
-0.0326149724423885
-0.0278012733906507
-0.0220526400953531
-0.0159879922866821
-0.0101949851959943
-0.0051678149029612
-0.0012612338177859
0.0013370560482144
0.0026137141976505
0.0027161142788827
0.0019200514070689
0.0005834060721099
-0.000907402485609
-0.0021892385557293
-0.0029638386331498
-0.0030245459638535
-0.0022683297283947
-0.0006960085593163
0.0015968577936291
0.0044397944584488
0.0076170633547008
0.0108979577198624
0.0140612535178661
0.0169154647737741
0.0193167235702276
0.0211812704801559
0.0224862806499004
0.0232593659311532
0.0235647782683372
0.0234895832836627
0.0231267400085926
0.0225527342408895
0.0217981468886137
0.0208108387887477
0.0194254834204912
0.0173669308423995
0.014300936833024
0.0099201379343867
0.0040384596213698
-0.0033344496041536
-0.0119573827832937
-0.0213662050664424
-0.0309238787740468
-0.0399046428501606
-0.0475964546203613
-0.0533964820206165
-0.0568819195032119
-0.0578512474894523
-0.0563363879919052
-0.0525910891592502
-0.0470589809119701
-0.0403206199407577
-0.0330252945423126
-0.0258173309266567
-0.0192624609917402
-0.0137822981923818
-0.0096122231334447
-0.0067920833826065
-0.0051847267895936
-0.0045145847834646
-0.0044211107306182
-0.004517045803368
-0.0044406545348465
-0.0038970741443336
-0.0026850900612771
-0.0007094810716807
0.0020175632089376
0.0053888149559497
0.0092283766716718
0.0133220748975873
0.0174446254968643
0.0213842652738094
0.0249647870659828
0.028060957789421
0.0306047461926937
0.0325826108455657
0.0340253710746765
0.0349950157105922
0.0355697758495807
0.0358202494680881
0.0357711911201477
0.0353571064770221
0.0343949161469936
0.0325990729033947
0.0296427085995674
0.0252456422895193
0.0192653778940439
0.0117677012458443
0.0030558723956346
-0.0063502471894025
-0.0157786235213279
-0.0244982223957777
-0.031820248812437
-0.0371859185397625
-0.040229707956314
-0.0408133342862129
-0.0390278324484825
-0.0351728126406669
-0.0297230277210474
-0.023277249187231
-0.0164848770946264
-0.0099644884467124
-0.0042336573824286
0.0003418742853682
0.0035783180501312
0.0054809469729661
0.0062249936163425
0.0061108339577913
0.0055037760175764
0.0047759637236595
0.0042614974081516
0.0042246254161
0.0048390734009444
0.0061771185137331
0.0082072131335735
0.0108049204573035
0.01378083974123
0.0169175397604703
0.0200032833963632
0.0228558257222175
0.0253348313271999
0.0273450817912817
0.0288342088460922
0.0297886170446872
0.0302298516035079
0.0302096288651227
0.0298006869852542
0.0290853008627891
0.0281428191810846
0.0270271431654691
0.0257268063724041
0.0241247601807117
0.021988671272993
0.0190060921013355
0.0148567650467157
0.0093007180839777
0.0022563766688108
-0.0061492379754781
-0.0155670130625367
-0.0254540983587503
-0.0351405888795852
-0.0439199730753898
-0.0511446669697761
-0.0563072487711906
-0.0590935610234737
-0.0594100877642631
-0.0573919937014579
-0.0533851124346256
-0.0478977933526039
-0.0415334179997444
-0.0349163822829723
-0.0286199413239955
-0.0231045335531234
-0.0186748914420604
-0.015460105612874
-0.0134170725941658
-0.012354876846075
-0.0119746755808591
-0.0119188139215111
-0.0118221128359436
-0.0113577945157885
-0.010275537148118
-0.0084302928298711
-0.0057928226888179
-0.0024368157610297
0.00148770166561
0.0057833292521536
0.0102334870025515
0.0146275619044899
0.0187792517244815
0.0225383639335632
0.0257978606969118
0.0284955594688653
0.0306105371564626
0.0321573130786418
0.0331816636025905
0.0337563604116439
0.0339676700532436
0.0338889136910438
0.0335483029484748
0.032896552234888
0.0317819043993949
0.0299515202641487
0.0270936265587806
0.0229143239557743
0.0172246359288692
0.0100104045122861
0.0014696139842271
-0.0079887732863426
-0.0177857503294944
-0.0272441133856773
-0.0356749333441257
-0.0424650460481643
-0.0471551567316055
-0.0494951866567134
-0.0494655780494213
-0.0472654923796653
-0.0432756952941417
-0.0380037240684032
-0.0320201888680458
-0.0258945114910602
-0.0201343670487403
-0.0151330642402172
-0.0111341616138815
-0.0082201594486832
-0.0063232295215129
-0.0052526639774441
-0.0047324746847152
-0.0044424785301089
-0.0040629780851304
-0.0033224851358681
-0.0020349053665995
-0.0001121186651289
0.0024429012555629
0.0055473828688263
0.0090519124642014
0.0127616617828607
0.0164652056992054
0.0199644416570663
0.0230992343276739
0.0257621258497238
0.0278999898582696
0.0295038819313049
0.0305966958403587
0.0312266945838928
0.0314619503915309
0.0313787944614887
0.0310480315238237
0.0305198021233081
0.0297985821962356
0.0288103949278593
0.0273828152567148
0.0252572372555732
0.0221375506371259
0.0177665799856185
0.0120092928409576
0.0049164658412337
-0.0032472980674356
-0.0120154041796922
-0.0207674279808998
-0.0288053769618272
-0.0354493297636508
-0.0401369482278823
-0.0425027422606945
-0.0424210093915462
-0.0400110930204391
-0.0356101170182228
-0.0297218244522809
-0.0229510497301816
-0.0159332863986492
-0.0092669688165187
-0.0034520747140049
0.0011592947412282
0.0043917084112763
0.0062511255964636
0.006906849797815
0.0066533964127302
0.0058578243479132
0.0049003511667251
0.0041186572052538
0.0037686866708099
0.0040091569535434
0.0049049137160182
0.0064370948821306
0.0085124783217906
0.010976530611515
0.0136372819542884
0.0162962600588798
0.0187767762690782
0.0209412835538387
0.022695954889059
0.0239910781383514
0.0248216465115547
0.0252212155610322
0.0252481121569871
0.024971978738904
0.024464052170515
0.0237860940396785
0.0229693576693534
0.0219840165227651
0.0207141526043415
0.0189542900770902
0.0164352487772703
0.0128808878362178
0.0080857630819082
0.0019904254004359
-0.005269190762192
-0.013350804336369
-0.0217365995049476
-0.0298038497567176
-0.0369193404912948
-0.042529109865427
-0.0462244488298893
-0.0477808192372322
-0.047171015292406
-0.0445567071437835
-0.0402641966938972
-0.0347472205758094
-0.0285370126366615
-0.0221831072121858
-0.0161917190998792
-0.0109700597822666
-0.0067849159240722
-0.003739196807146
-0.0017699792515486
-0.0006753392517566
-0.0001642068382352
9.23285260796547e-05
0.000418882118538
0.0010963757522404
0.0023265737108886
0.0042124581523239
0.0067572980187833
0.0098772961646318
0.0134236272424459
0.0172076057642698
0.0210234075784683
0.0246680006384849
0.0279602333903312
0.0307594947516918
0.0329797007143497
0.0345902293920517
0.0356013290584087
0.0360457152128219
0.0359690450131893
0.035428661853075
0.0344940610229969
0.0332411751151084
0.0317316725850105
0.0299783051013946
0.0279102139174938
0.0253571514040231
0.0220681242644786
0.0177655927836895
0.0122198434546589
0.0053247446194291
-0.0028416505083441
-0.0119927339255809
-0.0216579623520374
-0.0312455669045448
-0.0401225611567497
-0.0476956441998481
-0.0534804128110408
-0.0571522414684295
-0.0585766993463039
-0.0578167364001274
-0.0551173761487007
-0.0508721359074115
-0.0455737933516502
-0.039754744619131
-0.033926784992218
-0.0285265706479549
-0.0238709058612585
-0.0201316978782415
-0.0173364263027906
-0.0153868831694126
-0.014089748263359
-0.0131949577480554
-0.0124340811744332
-0.0115557312965393
-0.0103563480079174
-0.0086990725249052
-0.0065194331109523
-0.0038242135196924
-0.0006848685443401
0.0027761561796069
0.0064044930040836
0.0100371334701776
0.0135261379182338
0.0167521703988313
0.0196237489581108
0.0220725052058696
0.0240527465939521
0.0255442932248115
0.0265564247965812
0.0271291248500347
0.0273256096988916
0.0272160731256008
0.0268604829907417
0.0262948535382747
0.0255142413079738
0.0244476199150085
0.0229379832744598
0.0207516439259052
0.0176263768225908
0.0133411865681409
0.0077836099080741
0.001003288431093
-0.0067579057067632
-0.0150727787986397
-0.0233762897551059
-0.0310418549925088
-0.0374672822654247
-0.0421518385410308
-0.0447528809309005
-0.0451203510165214
-0.0433097630739212
-0.0395708754658699
-0.0343130752444267
-0.0280524473637342
-0.0213459786027669
-0.0147268380969762
-0.0086539965122938
-0.0034723971039056
0.0006191283464431
0.0035812091082334
0.0055213226005434
0.0066610919311642
0.0072940997779369
0.0077417409047484
0.008310773409903
0.0092547135427594
0.0107428943738341
0.0128445755690336
0.0155332870781421
0.0187081862241029
0.0222227685153484
0.0259085316210985
0.0295882541686296
0.033086858689785
0.0362460762262344
0.0389394909143447
0.0410854294896125
0.0426560305058956
0.0436768010258674
0.0442132242023944
0.044350653886795
0.0441766530275344
0.043763730674982
0.0431438088417053
0.0422775149345397
0.0410330705344677
0.0391886495053768
0.0364648252725601
0.0325865559279918
0.0273631401360034
0.0207624863833189
0.0129563147202134
0.0043236380442976
-0.0045893481001257
-0.013144439086318
-0.0207050070166587
-0.026725348085165
-0.0308157298713922
-0.0327791944146156
-0.0326253660023212
-0.0305613242089748
-0.0269584488123655
-0.0223014317452907
-0.0171311311423778
-0.0119892610237002
-0.0073645887896418
-0.003641340881586
-0.0010579432127997
0.0003133923746645
0.0005607798229902
-9.581912308931352e-05
-0.0013474263250827
-0.002845463110134
-0.0042488216422498
-0.0052623711526393
-0.0056667844764888
-0.0053380103781819
-0.0042514335364103
-0.0024705177638679
-0.0001267008483409
0.0026027420535683
0.0055170524865388
0.0084135876968503
0.0111077241599559
0.0134513732045888
0.0153474491089582
0.0167560409754514
0.0176896192133426
0.018197551369667
0.0183472596108913
0.0182119440287351
0.0178644973784685
0.0173689518123865
0.0167667474597692
0.0160580463707447
0.0151727851480245
0.0139420591294765
0.012099664658308
0.009325549006462
0.0053170602768659
-0.0001317784190177
-0.0070617571473121
-0.0153047759085893
-0.0244759004563093
-0.0340107716619968
-0.0432421676814556
-0.0514924749732017
-0.0581600740551948
-0.0627865940332412
-0.065100185573101
-0.0650367140769958
-0.0627424418926239
-0.0585569851100444
-0.0529711283743381
-0.046561375260353
-0.0399150699377059
-0.0335623100399971
-0.0279238447546958
-0.0232771709561347
-0.0197424758225679
-0.0172867737710475
-0.015741404145956
-0.0148338321596384
-0.0142340958118438
-0.0136075904592871
-0.0126616340130567
-0.0111758084967732
-0.0090185739099979
-0.0061567150987684
-0.0026529608294367
0.0013519446365535
0.0056658629328012
0.0100723896175622
0.014355668798089
0.0183232352137565
0.0218261238187551
0.0247731246054172
0.0271351635456085
0.0289386566728353
0.0302510540932416
0.0311640612781047
0.0317794568836689
0.0321987681090831
0.0325107984244823
0.0327669419348239
0.0329449884593486
0.0329174771904945
0.032444804906845
0.0312051251530647
0.0288564506918191
0.0251163765788078
0.0198427401483058
0.0130930859595537
0.0051445555873215
-0.003529273206368
-0.0123176593333482
-0.0205554217100143
-0.0276109017431736
-0.0329612381756305
-0.0362485833466053
-0.0373180285096168
-0.03622991964221
-0.033239971846342
-0.0287564042955636
-0.0232870951294899
-0.017380241304636
-0.0115603003650903
-0.0062659583054482
-0.0017989063635468
0.0017058767843991
0.0042815101332962
0.0061064003966748
0.0074645173735916
0.0086946263909339
0.0101350080221891
0.0120686627924442
0.0146770142018795
0.0180146880447864
0.0220107417553663
0.026491530239582
0.031217249110341
0.0359221212565898
0.0403472445905208
0.0442619808018207
0.0474776662886142
0.0498569831252098
0.0513190664350986
0.0518408864736557
0.0514535531401634
0.0502320639789104
0.048282902687788
0.0457304492592811
0.0426981970667839
0.0392867177724838
0.0355486720800399
0.0314597487449646
0.0268981028348207
0.021651916205883
0.0154632553458213
0.0080995690077543
-0.0005653295665979
-0.0104845035821199
-0.0214073695242404
-0.0328903198242187
-0.0443397536873817
-0.0550794154405593
-0.0644345432519912
-0.0718208700418472
-0.0768208727240562
-0.0792312026023864
-0.0790787488222122
-0.0766108781099319
-0.0722607001662254
-0.0665893852710723
-0.0602159202098846
-0.0537468083202838
-0.0477120354771614
-0.0425101444125175
-0.0383709780871868
-0.0353449657559394
-0.0333168730139732
-0.0320385321974754
-0.03117685765028
-0.0303700417280197
-0.0292828120291233
-0.0276519246399402
-0.025313364341855
-0.0222081672400236
-0.0183719340711832
-0.0139152407646179
-0.0090009234845638
-0.0038222316652536
0.0014176219701766
0.0065248175524175
0.0113322595134377
0.0157131794840097
0.0195890869945287
0.0229310505092144
0.025754440575838
0.0281064547598361
0.0300431139767169
0.0315950363874435
