bvp
-0.1550496071577072
-0.1523879766464233
-0.1466501057147979
-0.1380261480808258
-0.1268641501665115
-0.113640658557415
-0.098922774195671
-0.083323061466217
-0.0674423053860664
-0.0518090724945068
-0.0368323847651481
-0.0227707773447036
-0.0097163915634155
0.0024014860391616
0.0137891396880149
0.024741992354393
0.0355904325842857
0.0466456599533557
0.0581524893641471
0.0702582597732544
0.0830014795064926
0.0963143333792686
0.1100309714674949
0.1239013895392417
0.1376167088747024
0.1508442461490631
0.1632636189460754
0.174598753452301
0.1846396625041961
0.1932438462972641
0.2003179639577865
0.2057936191558838
0.2096126079559326
0.2117278277873993
0.2121133506298065
0.2107741236686706
0.2077530026435852
0.203138530254364
0.1970698535442352
0.1897259652614593
0.1812875568866729
0.1718731671571731
0.1614792048931121
0.1499685198068618
0.1371227502822876
0.1227309554815292
0.1066784113645553
0.0890137776732444
0.0699838250875473
0.0500291362404823
0.0297433286905288
0.0098118390887975
-0.0090524889528751
-0.0261701121926307
-0.0409496203064918
-0.0529316961765289
-0.061821348965168
-0.0675135552883148
-0.0701068639755249
-0.069888561964035
-0.0672904103994369
-0.0628344118595123
-0.0570838674902915
-0.0505979433655738
-0.0438857078552246
-0.0373658314347267
-0.0313396155834198
-0.0259806029498577
-0.0213426332920789
-0.0173802953213453
-0.0139725431799888
-0.0109468307346105
-0.0081050246953964
-0.0052561881020665
-0.0022535705938935
0.0009813606739044
0.0044566672295331
0.0081194546073675
0.0118643399327993
0.0155408736318349
0.0189684815704822
0.0219591166824102
0.0243376716971397
0.0259537082165479
0.0266897827386856
0.0264739915728569
0.0252934023737907
0.0231995657086372
0.020303763449192
0.0167620629072189
0.0127523988485336
0.0084535032510757
0.0040319859981536
-0.0003663152456283
-0.0046259127557277
-0.0086769051849842
-0.012519434094429
-0.0162537321448326
-0.0201032683253288
-0.0244111008942127
-0.0295913368463516
-0.0360394567251205
-0.0440301597118377
-0.0536325722932815
-0.0646615400910377
-0.076682224869728
-0.0890703797340393
-0.1011010557413101
-0.1120361685752868
-0.1212013065814971
-0.1280514001846313
-0.1322225034236908
-0.133561372756958
-0.1321256309747696
-0.1281576305627823
-0.1220441311597824
-0.1142720282077789
-0.1053817868232727
-0.0959170833230018
-0.0863740071654319
-0.0771579071879386
-0.0685583278536796
-0.0607440434396266
-0.0537700578570365
-0.0475926585495471
-0.0420917533338069
-0.037094909697771
-0.0324008725583553
-0.0278045702725648
-0.0231230407953262
-0.0182194039225578
-0.0130193410441279
-0.0075142169371247
-0.001751784235239
0.0041788043454289
0.0101639600470662
0.016083313152194
0.0218213163316249
0.0272685308009386
0.0323205702006816
0.036884531378746
0.0408916883170604
0.0443088933825492
0.0471439063549041
0.0494422540068626
0.0512776672840118
0.052741140127182
0.0539286620914936
0.0549272745847702
0.0558047518134117
0.0566026903688907
0.0573231875896453
0.0579028539359569
0.0581786409020423
0.0578638762235641
0.0565631501376628
0.0538381710648536
0.0493060536682605
0.0427383594214916
0.0341342352330684
0.0237524062395095
0.0120968287810683
-0.0001392476260662
-0.0121568907052278
-0.0231472086161375
-0.0323855727910995
-0.0393114686012268
-0.043581523001194
-0.0450891442596912
-0.0439582169055938
-0.0405191630125045
-0.0352641604840755
-0.0287829600274562
-0.0216921269893646
-0.0145696736872196
-0.0079012624919414
-0.0020426921546459
0.0027966424822807
0.0065518654882907
0.0092880949378013
0.0111759565770626
0.0124613530933856
0.0134325288236141
0.0143839009106159
0.0155810192227363
0.0172316059470176
0.0194648001343011
0.0223235506564378
0.0257705990225076
0.0297028664499521
0.0339707918465137
0.0383982062339782
0.0428002476692199
0.0470010004937648
0.0508499033749103
0.0542331412434577
0.0570782124996185
0.0593519583344459
0.0610552579164505
0.0622198730707168
0.0629056692123413
0.0631875842809677
0.0631331726908683
0.0627879127860069
0.0621741116046905
0.0612874776124954
0.0600760430097579
0.0584062747657299
0.0560416430234909
0.0526594594120979
0.0479095950722694
0.0414967462420463
0.0332624725997448
0.0232477337121963
0.011722968891263
-0.0008211899548768
-0.0137227792292833
-0.0262306686490774
-0.037603486329317
-0.047199435532093
-0.0545412562787532
-0.0593563057482242
-0.0615941770374774
-0.0614206492900848
-0.0591884739696979
-0.0553897283971309
-0.0505927167832851
-0.0453708171844482
-0.0402381420135498
-0.0356006138026714
-0.0317252352833747
-0.0287296585738658
-0.0265898462384939
-0.0251634959131479
-0.024226726964116
-0.0235149525105953
-0.022759661078453
-0.0217186287045478
-0.0201991163194179
-0.0180743858218193
-0.0152917709201574
-0.0118710799142718
-0.0078958217054605
-0.0034996336326003
0.0011505307629704
0.0058731720782816
0.0104905646294355
0.0148452706634998
0.018813032656908
0.0223055370151996
0.0252641253173351
0.0276559144258499
0.0294753536581993
0.0307454280555248
0.0315155312418937
0.0318539105355739
0.031828686594963
0.0314736478030681
0.0307446587830781
0.0294845197349786
0.0274218823760747
0.0242153648287057
0.0195286367088556
0.0131174530833959
0.0049123670905828
-0.0049262875691056
-0.0160011798143386
-0.0277182422578334
-0.0393584482371807
-0.0501633025705814
-0.0594205074012279
-0.0665400028228759
-0.0711128786206245
-0.0729462876915931
-0.0720717757940292
-0.0687319338321685
-0.0633492246270179
-0.0564758703112602
-0.0487278997898101
-0.0407124757766723
-0.0329607315361499
-0.025881752371788
-0.0197422970086336
-0.0146610392257571
-0.0106146549805998
-0.0074614007025957
-0.004976550117135
-0.0028890464454889
-0.0009171310812234
0.0011958740651607
0.0036504324525594
0.0065723797306418
0.0100086349993944
0.0139333307743072
0.0182616375386714
0.0228679347783327
0.0276055932044982
0.0323249176144599
0.0368841737508773
0.0411555878818035
0.045031514018774
0.0484296455979347
0.0512949228286743
0.0536000058054924
0.0553451031446456
0.0565540492534637
0.0572634935379028
0.0574998408555984
0.0572391636669635
0.0563613250851631
0.0546241998672485
0.0516824088990688
0.0471551567316055
0.0407191850244998
0.0321958512067794
0.0216175410896539
0.0092656193301081
-0.0043317545205354
-0.0184483416378498
-0.0322466716170311
-0.0448814742267131
-0.0555961541831493
-0.0637991428375244
-0.0691161602735519
-0.0714162588119506
-0.0708120390772819
-0.0676359683275222
-0.0623931512236595
-0.0556954368948936
-0.0481909103691577
-0.04049863666296
-0.0331500396132469
-0.0265442449599504
-0.0209264270961284
-0.0163858197629451
-0.0128659708425402
-0.0101880561560392
-0.0080894362181425
-0.0062718139961361
-0.0044469786807894
-0.0023694969713687
0.0001427736133337
0.0031947782263159
0.006809689104557
0.0109372930601239
0.0154693219810724
0.0202539656311273
0.0251114927232265
0.0298551227897405
0.0343133509159088
0.038346417248249
0.0418544374406337
0.0447809100151062
0.0471129789948463
0.0488767512142658
0.0501305758953094
0.0509557165205478
0.0514334253966808
0.0516011528670787
0.0514007955789566
0.050645675510168
0.0490249097347259
0.0461498498916626
0.0416375212371349
0.0352110378444194
0.0267890412360429
0.0165430568158626
0.0049076760187745
-0.0074629681184887
-0.0197793468832969
-0.0312177278101444
-0.041019856929779
-0.0485775992274284
-0.0534936338663101
-0.055612675845623
-0.0550180152058601
-0.0519999265670776
-0.0470159016549587
-0.0406488180160522
-0.0335491374135017
-0.0263592116534709
-0.0196401886641979
-0.0138203259557485
-0.0091664036735892
-0.0057737100869417
-0.0035750223323702
-0.00237019918859
-0.0018713884055614
-0.0017536096274852
-0.0017010038718581
-0.0014416114427149
-0.0007679560221731
0.0004540984518826
0.0022818939760327
0.0046937111765146
0.0075945612043142
0.0108361691236495
0.0142425037920475
0.0176315605640411
0.0208344925194978
0.0237138792872428
0.0261762104928493
0.0281733330339193
0.0296949092298746
0.0307583194226026
0.0313991606235504
0.0316608138382434
0.031578779220581
0.0311524588614702
0.0302998088300228
0.0288145411759614
0.0263655204325914
0.0225551053881645
0.0170148406177759
0.0095060858875513
1.689419150352478e-06
-0.0112669300287961
-0.0238077864050865
-0.0369151607155799
-0.0497558340430259
-0.0614744126796722
-0.071298062801361
-0.0786250084638595
-0.0830830931663513
-0.0845532715320587
-0.0831667184829711
-0.0792834907770156
-0.0734472647309303
-0.066315971314907
-0.0585811845958232
-0.0508873611688613
-0.0437612980604171
-0.0375648960471153
-0.0324779637157917
-0.0285072550177574
-0.0255121067166328
-0.0232384148985147
-0.021358735859394
-0.0195198282599449
-0.0173921938985586
-0.0147107746452093
-0.0113041857257485
-0.0071118855848908
-0.0021828934550285
0.0033429032191634
0.0092622460797429
0.015339583158493
0.0213372707366943
0.0270399209111928
0.0322723612189292
0.0369104407727718
0.0408816859126091
0.044159859418869
0.0467596314847469
0.0487299114465713
0.0501440986990928
0.0510838367044925
0.051604188978672
0.0516784824430942
0.0511482134461402
0.0497143045067787
0.0469861775636673
0.0425727069377899
0.0361861325800418
0.0277337878942489
0.0173761378973722
0.005537305958569
-0.0071358252316713
-0.0198565293103456
-0.0317987240850925
-0.0421929433941841
-0.0504069179296493
-0.0560048036277294
-0.0587853230535984
-0.0587972812354564
-0.0563237182796001
-0.0518343523144722
-0.0459168218076229
-0.0391991436481475
-0.0322768688201904
-0.0256555862724781
-0.0197107791900634
-0.0146638173609972
-0.0105776283890008
-0.0073747020214796
-0.004870792850852
-0.0028120540082454
-0.0009099636226892
0.0011223591864109
0.0035306252539157
0.006484068930149
0.0100564435124397
0.0142289670184254
0.0189087390899658
0.0239502750337123
0.0291755218058824
0.0343942791223526
0.0394228212535381
0.0440978519618511
0.0482869856059551
0.0518954470753669
0.0548682361841201
0.0571914687752723
0.0588944852352142
0.0600453615188598
0.0607302524149417
0.0610150918364524
0.0608978122472763
0.0602656602859497
0.0588754937052726
0.0563733279705047
0.0523565784096717
0.0464661344885826
0.0384855046868324
0.0284203458577394
0.0165382176637649
0.0033597864676266
-0.0103980526328086
-0.0239125210791826
-0.0363541804254055
-0.0469769984483718
-0.0551934689283371
-0.0606320388615131
-0.0631678625941276
-0.0629192590713501
-0.0602148286998271
-0.0555416457355022
-0.0494807846844196
-0.0426392666995525
-0.0355899408459663
-0.0288225933909416
-0.0227037630975246
-0.0174491796642541
-0.0131188826635479
-0.0096380766481161
-0.006830901838839
-0.0044543799012899
-0.0022359592840075
8.20280984044075e-05
0.0027034031227231
0.0057574920356273
0.0092945219948887
0.0132901407778263
0.0176587700843811
0.0222737491130828
0.0269876271486282
0.0316480696201324
0.0361077263951301
0.0402300953865051
0.0438961237668991
0.0470126345753669
0.0495210438966751
0.0514046289026737
0.0526876859366893
0.0534236840903759
0.053681381046772
0.0535352751612663
0.0530531741678714
0.0522703416645526
0.0511506125330925
0.0495496913790702
0.0472026988863945
0.0437544211745262
0.0388326048851013
0.0321422964334487
0.0235535614192485
0.0131612904369831
0.0013050679117441
-0.0114548411220312
-0.0244042016565799
-0.0367698185145854
-0.0478162989020347
-0.0569242872297763
-0.0636446997523307
-0.0677304714918136
-0.0691466629505157
-0.0680619031190872
-0.0648233592510223
-0.0599136613309383
-0.0538937523961067
-0.0473415926098823
-0.0407959073781967
-0.0347110368311405
-0.0294205285608768
-0.0251080933958292
-0.0217989105731248
-0.0193814858794212
-0.0176491979509592
-0.0163430292159318
-0.0151877515017986
-0.0139241777360439
-0.0123385991901159
-0.0102857099846005
-0.0077022723853588
-0.0046085771173238
-0.0010980051010847
0.0026801899075508
0.0065445490181446
0.010311322286725
0.0138224214315414
0.0169628858566284
0.0196639578789472
0.021894846111536
0.0236540790647268
0.0249653384089469
0.0258741993457078
0.0264452509582042
0.0267587583512067
0.0269008558243513
0.0269456822425127
0.0269342232495546
0.0268478132784366
0.0265735927969217
0.0258774757385253
0.0244108438491821
0.0217638313770294
0.0175537914037704
0.0115195959806442
0.0035960413515567
-0.0060425288975238
-0.0169776305556297
-0.0285866595804691
-0.0401193350553512
-0.0507936589419841
-0.0598937943577766
-0.0668517649173736
-0.0713017880916595
-0.073107399046421
-0.0723626315593719
-0.0693676844239234
-0.0645834356546402
-0.0585695020854473
-0.0519148111343383
-0.0451743565499782
-0.0388204306364059
-0.0332105159759521
-0.0285720042884349
-0.0249997526407241
-0.0224640369415283
-0.0208291597664356
-0.0198783278465271
-0.019340693950653
-0.0189209841191768
-0.0183298997581005
-0.0173117872327566
-0.0156687833368778
-0.0132798245176672
-0.0101075265556573
-0.0061896592378616
-0.0016261294949799
0.0034291883930563
0.0087798032909631
0.0142086250707507
0.0195033606141805
0.0244772918522357
0.0289853680878877
0.0329342111945152
0.0362822487950325
0.0390324033796787
0.0412214025855064
0.0429067313671112
0.0441564507782459
0.0450449474155902
0.0456478223204612
0.0460263825953006
0.0461919046938419
0.0460566207766532
0.0454079359769821
0.0439334623515605
0.0412858948111534
0.0371635928750038
0.031389195472002
0.0239693988114595
0.0151211693882942
0.0052584456279873
-0.0050556594505906
-0.0151783628389239
-0.0244634915143251
-0.0323325246572494
-0.0383327081799507
-0.0421761460602283
-0.0437600761651992
-0.0431731007993221
-0.0406835712492466
-0.0367025919258594
-0.0317250005900859
-0.0262628551572561
-0.0207864679396152
-0.0156792476773262
-0.0112084355205297
-0.0075141163542866
-0.0046131247654557
-0.0024134954437613
-0.0007406170479953
0.0006264713592827
0.0019164285622537
0.0033323909156024
0.0050247074104845
0.0070699583739042
0.0094670606777071
0.0121539887040853
0.0150334425270557
0.0179975852370262
0.0209469813853502
0.023801302537322
0.0265017002820968
0.029007151722908
0.0312903225421905
0.0333343222737312
0.0351272895932197
0.0366575717926025
0.0379164889454841
0.0389062277972698
0.0396399460732936
0.0401321612298488
0.0403927266597747
0.0404286608099937
0.0402453392744064
0.0398393981158733
0.039177156984806
0.0381608977913856
0.0366025902330875
0.0342268571257591
0.0307106189429759
0.025753416121006
0.0191595815122127
0.0109051130712032
0.0011718366295099
-0.0096531910821795
-0.0210138875991106
-0.0322560258209705
-0.0427151732146739
-0.0517944768071174
-0.059019312262535
-0.0640724301338195
-0.0668152272701263
-0.067294493317604
-0.0657279267907142
-0.0624670684337616
-0.0579496212303638
-0.0526523068547248
-0.0470439121127128
-0.0415385141968727
-0.0364563539624214
-0.032000582665205
-0.0282542202621698
-0.02519441395998
-0.022715164348483
-0.0206526312977075
-0.018811086192727
-0.0169901940971612
-0.0150153152644634
-0.012765385210514
-0.0101841744035482
-0.0072687766514718
-0.0040480056777596
-0.0005660587921738
0.003125034738332
0.0069677643477916
0.0109018282964825
0.0148671064525842
0.0187991894781589
0.0226181279867887
0.0262228436768054
0.0294972863048315
0.0323232039809227
0.0345941968262195
0.0362289100885391
0.0371832475066185
0.0374618880450725
0.0371233113110065
0.0362716987729072
0.0350358411669731
0.0335377156734466
0.031851440668106
0.0299592278897762
0.0277242921292781
0.0248993001878261
0.0211725663393735
0.0162434242665767
0.0099109606817364
0.0021513625979423
-0.0068407738581299
-0.0166596993803977
-0.0267406702041625
-0.0364390276372432
-0.0451136380434036
-0.0522006265819072
-0.057273868471384
-0.0600901655852794
-0.0606118142604827
-0.058998342603445
-0.0555722638964653
-0.0507765710353851
-0.0451303869485855
-0.0391734465956687
-0.0334028378129005
-0.0282194726169109
-0.0238919630646705
-0.0205372553318738
-0.0181216951459646
-0.0164840556681156
-0.0153741743415594
-0.0144978296011686
-0.013559702783823
-0.0122990831732749
-0.0105169285088777
-0.0080933328717947
-0.0049922913312911
-0.0012564547359943
0.0030011534690856
0.0076116882264614
0.0123757068067789
0.0170914437621831
0.021575191989541
0.0256703197956085
0.029250182211399
0.0322204753756523
0.0345217213034629
0.0361300185322761
0.0370533913373947
0.0373263917863369
0.0370086692273616
0.0361865796148777
0.0349717885255813
0.0334905125200748
0.0318602547049522
0.0301586873829364
0.0283925123512744
0.0264727100729942
0.024206880480051
0.0213249363005161
0.0175412409007549
0.0126319974660873
0.006504027172923
-0.0007566027343273
-0.0088659077882766
-0.0173608101904392
-0.0256518088281154
-0.0330958515405654
-0.0390753000974655
-0.0430749729275703
-0.0447462387382984
-0.0439434200525283
-0.040730345994234
-0.0353638865053653
-0.0282574743032455
-0.0199298448860645
-0.0109477303922176
-0.0018703192472457
0.0067990906536579
0.0146503075957298
0.0213904920965433
0.0268586538732051
0.0310311689972877
0.0340129770338535
0.0360134690999984
0.037308070808649
0.03818841278553
0.038916427642107
0.0396985672414302
0.0406799614429473
0.0419465266168117
0.0435259155929088
0.0453904345631599
0.0474684536457061
0.049661386758089
0.0518586449325084
0.0539503283798694
0.0558399297297
0.0574533566832542
0.0587416812777519
0.0596805438399314
0.060264978557825
0.0604986846446991
0.0603870376944541
0.0599390305578708
0.0591718629002571
0.0581114962697029
0.0567846335470676
0.0551983974874019
0.0533068254590034
0.0509724617004394
0.0479466654360294
0.0438912883400917
0.0384415388107299
0.0312925986945629
0.022289291024208
0.0114948060363531
-0.0007852017879486
-0.0140285771340131
-0.0275580286979675
-0.0406208895146846
-0.0524749010801315
-0.06246904656291
-0.0701104402542114
-0.0751116052269935
-0.0774114951491355
-0.077166624367237
-0.0747193843126297
-0.0705512464046478
-0.0652243643999099
-0.0593194589018821
-0.0533749051392078
-0.047829695045948
-0.0429854430258274
-0.0389983728528022
-0.0358907207846641
-0.0335689224302768
-0.0318459495902061
-0.0304689370095729
-0.0291540380567312
-0.0276270005851984
-0.0256611090153455
-0.0231020227074623
-0.0198763366788625
-0.0159904938191175
-0.0115245366469025
-0.0066174967214465
-0.0014447541907429
0.0038054343312978
0.008948091417551
0.0138082299381494
0.018227158114314
0.0220744274556636
0.0252598244696855
0.0277395658195018
0.0295157004147768
0.0306312330067157
0.0311622619628906
0.0312049817293882
0.0308553967624902
0.0301777776330709
0.029161661863327
0.0276838075369596
0.0255011469125747
0.0222881063818931
0.0177085027098655
0.0115013867616653
0.0035601630806922
-0.0060118548572063
-0.0168799441307783
-0.028497640043497
-0.0401673726737499
-0.051127903163433
-0.060648962855339
-0.0681174620985984
-0.0731046572327613
-0.0754067748785018
-0.0750536993145942
-0.07228834182024
-0.0675269588828086
-0.0613071881234645
-0.054229263216257
-0.0468980483710765
-0.0398676693439483
-0.0335882380604743
-0.0283612925559282
-0.0243151634931564
-0.0214073024690151
-0.0194510836154222
-0.0181594118475914
-0.0171964950859546
-0.0162280388176441
-0.0149621069431304
-0.0131770297884941
-0.0107356086373329
-0.0075871087610721
-0.0037600011564791
0.0006489288061857
0.0054858229123055
0.0105556016787886
0.0156440827995538
0.0205414909869432
0.0250626150518655
0.0290597919374704
0.0324275195598602
0.0351019725203514
0.0370605364441871
0.0383231863379478
0.0389508754014968
0.0390342995524406
0.0386689864099025
0.0379155464470386
0.0367522723972797
0.0350375138223171
0.0325061865150928
0.0288183744996786
0.0236504692584276
0.0167961828410625
0.0082469247281551
-0.0017674788832664
-0.0127862766385078
-0.0241680182516574
-0.0351683795452117
-0.0450308658182621
-0.0530775338411331
-0.0587873458862304
-0.0618505515158176
-0.0621897429227829
-0.0599481686949729
-0.0554588809609413
-0.0492056086659431
-0.041772935539484
-0.0337854549288749
-0.0258454382419586
-0.0184795223176479
-0.0120986029505729
-0.0069684125483036
-0.0031891763210296
-0.0006894543766975
0.0007616076618432
0.0015229508280754
0.0020301174372434
0.0027311965823173
0.0040272362530231
0.0062252040952444
0.0094993375241756
0.013865147717297
0.0191811025142669
0.0251798145473003
0.0315134674310684
0.0378024689853191
0.0436831191182136
0.0488467365503311
0.0530666410923004
0.0562135055661201
0.0582566931843757
0.0592518746852874
0.0593204200267791
0.0586253516376018
0.0573413223028183
0.0556116700172424
0.0534928143024444
0.0509052984416484
0.0476245805621147
0.0433287769556045
0.0376889370381832
0.0304737016558647
0.0216430984437465
0.0114086121320724
0.0002396926283836
-0.0111885769292712
-0.0220902618020772
-0.0316777527332305
-0.0392603799700737
-0.0443190857768058
-0.0465545244514942
-0.0459078103303909
-0.0425557643175125
-0.0368861742317676
-0.0294538177549839
-0.020918108522892
-0.0119726005941629
-0.0032782070338726
0.0045949453487992
0.011214948259294
0.0163193177431821
0.0198237001895904
0.0218080338090658
0.0224861055612564
0.0221648178994655
0.0211983658373355
0.0199460200965404
0.0187403429299592
0.0178615599870681
0.0175142008811235
0.0178128313273191
0.0187841020524501
0.0203828811645507
0.0225144773721694
0.0250565912574529
0.0278774183243513
0.0308483652770519
0.0338511392474174
0.0367787703871727
0.0395316369831562
0.0420127585530281
0.0441278666257858
0.0457861125469207
0.0468846894800663
0.0472700111567974
0.0466960221529006
0.0448141247034072
0.0412127450108528
0.0354981981217861
0.0273955091834068
0.0168437063694
0.0040579978376626
-0.0104602612555027
-0.0259681083261966
-0.0415665507316589
-0.0563051700592041
-0.0692893788218498
-0.0797782018780708
-0.0872546806931495
-0.0914589539170265
-0.0923924595117569
-0.0902997255325317
-0.0856228992342948
-0.0789359733462333
-0.0708780512213707
-0.0620916038751602
-0.0531641207635402
-0.0445810183882713
-0.0366982780396938
-0.0297336317598819
-0.0237710513174533
-0.018775513395667
-0.0146156232804059
-0.0110921459272503
-0.0079706460237503
-0.0050144107080996
-0.0020169704221189
0.0011681937612593
0.0046122600324451
0.0083138719201087
0.0122112352401018
0.0161994621157646
0.0201527625322341
0.0239459387958049
0.0274696927517652
0.0306369699537754
0.0333803780376911
0.0356457829475402
0.0373897701501846
0.0385840572416782
0.0392193160951137
0.0392961651086807
0.0387962460517883
0.0376400537788867
0.0356577336788177
0.0326009839773178
0.0282001793384552
0.0222460888326168
0.0146696418523788
0.0055988281965255
-0.0046202717348933
-0.0154449064284563
-0.0261991024017334
-0.0361638814210891
-0.0446684956550598
-0.0511661879718303
-0.0552906394004821
-0.0568895526230335
-0.0560347735881805
-0.0530102178454399
-0.048272468149662
-0.0423872880637645
-0.0359596647322177
-0.0295710563659667
-0.0237250234931707
-0.0188001915812492
-0.0150185069069266
-0.0124383689835667
-0.0109690949320793
-0.0103979613631963
-0.0104269320145249
-0.0107147833332419
-0.0109176458790898
-0.0107248732820153
-0.009891340509057
-0.0082640815526247
-0.0057939803227782
-0.0025288234464824
0.0014050956815481
0.0058273929171264
0.0105320336297154
0.0153142865747213
0.0199900493025779
0.024408109486103
0.0284591410309076
0.0320801697671413
0.0352514237165451
0.0379857085645198
0.0403094924986362
0.0422305688261985
0.0436900220811367
0.0445153042674064
0.0444095842540264
0.0429998002946376
0.0399275422096252
0.0349472276866436
0.0280069634318351
0.0192973427474498
0.0092553049325943
-0.0014784208033233
-0.0121365990489721
-0.0219214837998151
-0.0301002245396375
-0.0360832288861274
-0.0394796207547187
-0.0401291735470294
-0.0381123796105384
-0.0337386801838874
-0.0275070294737815
-0.0200417805463075
-0.0120202852413058
-0.0041016014292836
0.0031429806258529
0.0092866010963916
0.0140753220766782
0.0174287147819995
0.0194221474230289
0.0202561412006616
0.0202171131968498
0.0196343474090099
0.0188390128314495
0.0181322433054447
0.0177602581679821
0.0178926438093185
0.0186109486967325
0.0199120268225669
0.0217205695807933
0.0239066015928983
0.0263076499104499
0.0287532024085521
0.0310868360102176
0.0331806764006614
0.0349401794373989
0.0363048166036605
0.0372470580041408
0.0377623178064823
0.0378440842032432
0.0374455675482749
0.0364363640546798
0.0345786064863204
0.0315484516322612
0.027001516893506
0.0206615030765533
0.0124100428074598
0.0023525115102529
-0.0091609768569469
-0.0215633958578109
-0.03413687646389
-0.0461001545190811
-0.0566986799240112
-0.0652834549546241
-0.0713747888803482
-0.0747067034244537
-0.0752422660589218
-0.0731626078486442
-0.0688409954309463
-0.0628002882003784
-0.0556495562195777
-0.0480114594101905
-0.0404565334320068
-0.033451996743679
-0.0273270681500434
-0.0222577340900897
-0.0182722620666027
-0.0152709782123565
-0.0130531787872314
-0.0113508272916078
-0.0098679736256599
-0.0083175292238593
-0.0064480709843337
-0.0040650023147463
-0.001050996244885
0.0026208944618701
0.0068872291594743
0.0116046350449323
0.0165696144104003
0.0215489622205495
0.0263138301670551
0.0306667890399694
0.0344594307243824
0.037601962685585
0.0400642231106758
0.0418681241571903
0.0430741794407367
0.0437611788511276
0.0439899116754531
0.0437502935528755
0.0429154746234416
0.0412358604371547
0.0383850038051605
0.034042403101921
0.0279859565198421
0.0201679468154907
0.0107584912329912
0.0001499876379966
-0.01107744500041
-0.0222229268401861
-0.0325525924563407
-0.0413918420672416
-0.0482051223516464
-0.0526504814624786
-0.0546022877097129
-0.0541477054357528
-0.0515665262937545
-0.047294333577156
-0.0418684408068656
-0.035862885415554
-0.0298206377774477
-0.0241935458034276
-0.0193002466112375
-0.0153066078200936
-0.0122292973101139
-0.0099590113386511
-0.0082953842356801
-0.0069884499534964
-0.0057832016609609
-0.0044553037732839
-0.0028284057043492
-0.0007823564810678
0.0017369729466736
0.0047131618484854
0.0080679068341851
0.0116777969524264
0.0153926201164722
0.0190533380955457
0.022508293390274
0.0256265494972467
0.02830720692873
0.0304839834570884
0.0321272350847721
0.0332454033195972
0.0338844880461692
0.0341242589056491
0.0340697094798088
0.0338304750621318
0.0334819369018077
0.033015951514244
0.0323035791516304
0.0310939233750104
0.029058177024126
0.0258652567863464
0.0212628841400146
0.0151440072804689
0.0075910696759819
-0.0011081928387284
-0.0104840686544775
-0.0199469309300184
-0.0288680810481309
-0.0366561450064182
-0.0428195223212242
-0.0470161698758602
-0.0490883067250251
-0.0490717478096485
-0.0471778213977813
-0.0437584482133388
-0.0392613820731639
-0.0341759584844112
-0.0289731416851282
-0.0240528564900159
-0.0197131466120481
-0.0161420777440071
-0.013423504307866
-0.0115486988797783
-0.010428081266582
-0.0099026169627904
-0.0097592920064926
-0.0097573092207312
-0.0096636591479182
-0.0092806294560432
-0.0084563270211219
-0.007089898455888
-0.0051372665911912
-0.0026104864664375
0.0004307683557271
0.0038899835199117
0.0076432158239185
0.0115483105182647
0.015457828529179
0.0192342214286327
0.0227599553763866
0.0259427595883607
0.0287208743393421
0.031064249575138
0.0329679548740386
0.0344442762434482
0.0355169028043746
0.0362093225121498
0.0365189537405967
0.0363826155662536
0.0356538817286491
0.0341096185147762
0.0314880348742008
0.0275497157126665
0.0221448540687561
0.0152695989236235
0.0071003218181431
-0.0020024664700031
-0.0115237366408109
-0.0208549797534942
-0.029375709593296
-0.0365338809788227
-0.0419085994362831
-0.0452487096190452
-0.0464873984456062
-0.0457378551363945
-0.0432704910635948
-0.0394726544618606
-0.0347983427345752
-0.0297152083367109
-0.0246563032269477
-0.0199820902198553
-0.0159543603658676
-0.0127211473882198
-0.0103121856227517
-0.0086498484015464
-0.0075756618753075
-0.0068810107186436
-0.0063348934054374
-0.0057113068178296
-0.0048158764839172
-0.0035046562552452
-0.0016913972795009
0.0006516017019748
0.0034944722428917
0.0067565850913524
0.0103223724290728
0.0140594914555549
0.0178319606930017
0.0215097367763519
0.0249782428145408
0.0281447172164917
0.0309386160224676
0.0333111509680748
0.0352361388504505
0.0367078408598899
0.0377371236681938
0.0383506007492542
0.0385901965200901
0.0385096818208694
0.0381701700389385
0.0376319959759712
0.0369330160319805
0.0360523089766502
0.0348770134150981
0.0331969931721687
0.0307357478886842
0.0272031743079423
0.0223549827933311
0.0160549283027648
0.0083304308354854
-0.0005982962902635
-0.0103271445259451
-0.0203098319470882
-0.0299198441207408
-0.038521409034729
-0.0455414652824401
-0.0505322851240634
-0.0532130561769008
-0.0534879826009273
-0.0514458306133747
-0.0473420545458793
-0.0415644012391567
-0.034591931849718
-0.0269544459879398
-0.0191871188580989
-0.011780290864408
-0.0051347827538847
0.0004697181284427
0.0048905769363045
0.0081200515851378
0.0102643081918358
0.0115098757669329
0.0120866270735859
0.0122345210984349
0.0121792014688253
0.0121160382404923
0.0122006479650735
0.0125452885404229
0.0132164377719163
0.0142317907884716
0.0155641492456197
0.0171552896499633
0.0189325362443923
0.0208215713500976
0.0227538459002971
0.0246677752584218
0.0265053957700729
0.0282101668417453
0.029729900881648
0.0310214608907699
0.0320511795580387
0.0327925644814968
0.0332296378910541
0.033365111798048
0.0332194678485393
0.0328145734965801
0.0321507193148136
0.031182512640953
0.0297948606312274
0.0277886465191841
0.0248899795114994
0.0207910072058439
0.0152174476534128
0.0080039445310831
-0.0008441694080829
-0.0111168855801224
-0.0223989877849817
-0.034102477133274
-0.0455279052257537
-0.0559462681412696
-0.0646887198090553
-0.0712289959192276
-0.0752423405647277
-0.0766306445002555
-0.0755164176225662
-0.072214089334011
-0.0671853423118591
-0.0609834939241409
-0.0541919991374015
-0.0473646745085716
-0.0409720502793788
-0.035356368869543
-0.0307040810585021
-0.0270427800714969
-0.0242571625858545
-0.0221174247562885
-0.020321125164628
-0.0185445826500654
-0.0164882745593786
-0.0139063540846109
-0.0106235286220908
-0.0065435906872153
-0.0016483655199408
0.0040107388049364
0.0103211365640163
0.0171174332499504
0.024194985628128
0.0313266664743423
0.0382755137979984
0.0448020063340663
0.0506744682788848
0.0556847341358661
0.0596595779061317
0.0624664425849914
0.0640213340520858
0.0643006116151809
0.0633504912257194
0.0612876266241073
0.0582867451012134
0.0545529127120971
0.0502792857587337
0.0455965884029865
0.0405270792543888
0.0349605865776538
0.0286675691604614
0.0213524624705314
0.012736864387989
0.0026523703709244
-0.0088850753381848
-0.0216425061225891
-0.0351785607635974
-0.0488819032907485
-0.0620345771312713
-0.0738944485783577
-0.08378167450428
-0.0911520719528198
-0.0956493094563484
-0.0971357002854347
-0.0957018956542015
-0.0916546210646629
-0.0854800567030906
-0.0777840390801429
-0.0692208111286163
-0.0604241266846656
-0.0519501566886901
-0.0442357063293457
-0.0375682637095451
-0.0320691764354705
-0.027696942910552
-0.0242714900523424
-0.0215133633464574
-0.0190930236130952
-0.0166828855872154
-0.0139992758631706
-0.0108265168964862
-0.0070251785218715
-0.002531174570322
0.0026511624455451
0.0084636285901069
0.0148129686713218
0.0215831100940704
0.0286382120102643
0.0358254984021186
0.0429810136556625
0.0499359481036663
0.0565249994397163
0.0625982955098152
0.0680331587791442
0.0727406218647956
0.0766686648130416
0.0798062682151794
0.0821811333298683
0.0838415026664733
0.0848259478807449
0.0851277261972427
0.0846550464630127
0.0831986293196678
0.0804294347763061
0.0759427845478057
0.0693454891443252
0.0603634044528007
0.0489385835826396
0.0352906361222267
0.0199275929480791
0.0036067082546651
-0.0127423973754048
-0.0281204897910356
-0.04157505184412
-0.052309051156044
-0.0597629770636558
-0.0636613219976425
-0.0640209317207336
-0.0611285790801048
-0.0554996840655803
-0.0478192083537578
-0.0388655886054039
-0.029427146539092
-0.020222395658493
-0.0118356719613075
-0.0046778917312622
0.0010287594050168
0.0052486145868897
0.0081114564090967
0.0098712807521224
0.0108539424836635
0.0114072952419519
0.0118620879948139
0.0125012658536434
0.0135323414579033
0.0150670269504189
0.0171174090355634
0.0196109563112258
0.0224181041121482
0.0253828410059213
0.0283484198153018
0.0311752744019031
0.0337515547871589
0.035996951162815
0.0378612764179706
0.0393201597034931
0.0403688997030258
0.041016262024641
0.0412830524146556
0.0412051118910312
0.0408316031098365
0.0402141101658344
0.0393895767629146
0.0383551865816116
0.0370333269238472
0.0352391079068183
0.032672431319952
0.0289488527923822
0.0236692912876606
0.016515452414751
0.0073438063263893
-0.0037496853619813
-0.016406062990427
-0.0300221219658851
-0.0438083335757255
-0.0568775758147239
-0.0683556944131851
-0.0774963274598121
-0.0837677121162414
-0.0868924856185913
-0.0868511945009231
-0.0838660448789596
-0.0783687233924865
-0.0709488242864608
-0.0622882023453712
-0.0530936941504478
-0.0440343096852302
-0.035683125257492
-0.0284666866064071
-0.0226293466985225
-0.0182218216359615
-0.0151186846196651
-0.0130607523024082
-0.0117113655433058
-0.0107111446559429
-0.0097196185961365
-0.0084439665079116
-0.0066607203334569
-0.0042319181375205
-0.0011111078783869
0.0026624300517141
0.0069762016646564
0.0116617027670145
0.0165183562785387
0.0213418863713741
0.0259481184184551
0.0301868543028831
0.033948753029108
0.0371643751859664
0.0397942960262298
0.041818905621767
0.0432346574962139
0.0440539270639419
0.0443034693598747
0.0440204441547393
0.0432438552379608
0.0419918820261955
0.0402195379137992
0.0377740487456321
0.0343811884522438
0.0296806152909994
0.0233023632317781
0.0149650331586599
0.0045715160667896
-0.0077237263321876
-0.0214933305978775
-0.0360647588968277
-0.0505895093083381
-0.0641403868794441
-0.0758206099271774
-0.0848659127950668
-0.0907244905829429
-0.0931098014116287
-0.0920224264264106
-0.0877374187111854
-0.0807622447609901
-0.0717740580439567
-0.0615433193743228
-0.0508514642715454
-0.0404121577739715
-0.0308085195720195
-0.0224548503756523
-0.0155811635777354
-0.0102368807420134
-0.0063134082593023
-0.0035815185401588
-0.0017337561585009
-0.0004263222217559
0.0006801602430641
0.0018845605663955
0.0034199440851807
0.0054413834586739
0.0080238860100507
0.0111668668687343
0.0148047134280204
0.01882254332304
0.0230723023414611
0.0273867081850767
0.0315933860838413
0.0355304181575775
0.0390635468065738
0.0421024411916732
0.0446080937981605
0.0465865992009639
0.0480743907392025
0.0491260103881359
0.0498077347874641
0.0501817613840103
0.0502644777297973
0.0499693267047405
0.0490699857473373
0.0472127832472324
0.0439740940928459
0.0389421731233596
0.0318121872842311
0.0224803257733583
0.011110913939774
-0.0018451784271746
-0.0156863983720541
-0.0295421071350574
-0.0424832738935947
-0.0536399371922016
-0.0623025223612785
-0.0679913386702537
-0.0704899057745933
-0.0698474273085594
-0.066356673836708
-0.0605094507336616
-0.0529349893331527
-0.0443311817944049
-0.0353938713669776
-0.0267469547688961
-0.018882455304265
-0.0121221495792269
-0.0066063143312931
-0.0023050494492053
0.0009554233402013
0.0034537874162197
0.0055240243673324
0.0075022419914603
0.0096815703436732
0.0122838504612445
0.0154461413621902
0.0192168690264225
0.0235577896237373
0.0283507723361253
0.0334145985543727
0.0385324582457542
0.0434822216629982
0.0480613596737384
0.0521026626229286
0.0554835721850395
0.0581315979361534
0.0600229278206825
0.0611750856041908
0.0616394840180873
0.0614946261048316
0.0608377084136009
0.0597749128937721
0.0584056116640567
0.0567898526787757
0.0548992976546287
0.0525724366307258
0.049504667520523
0.0452910885214805
0.0395128540694713
0.0318401493132114
0.0221266560256481
0.0104768462479114
-0.0027293181046843
-0.0168627984821796
-0.0311177503317594
-0.0446137338876724
-0.0565083026885986
-0.0660960376262664
-0.0728762820363044
-0.0765921026468277
-0.0772468522191047
-0.0750909447669982
-0.0705757662653923
-0.0642884001135826
-0.0568831786513328
-0.0490167327225208
-0.0412883162498474
-0.0341868922114372
-0.0280514135956764
-0.0230523608624935
-0.0191938877105712
-0.0163331720978021
-0.0142179932445287
-0.0125365331768989
-0.0109649635851383
-0.0092085432261228
-0.0070380955003201
-0.0043138405308127
-0.0009906955529004
0.0028893440030515
0.0072137657552957
0.0118237556889653
0.0165384728461503
0.0211731828749179
0.0255540236830711
0.0295323133468627
0.0329949408769607
0.0358682870864868
0.0381186679005622
0.0397524498403072
0.0408130958676338
0.0413690358400344
0.0414964631199836
0.0412678718566894
0.0407435819506645
0.0399528518319129
0.0388605371117591
0.0373321063816547
0.0351180732250213
0.0318746268749237
0.0272258911281824
0.020855326205492
0.0125980395823717
0.0025082845240831
-0.0091109909117221
-0.0217212438583374
-0.0346010215580463
-0.0469305515289306
-0.0578959435224533
-0.0667909979820251
-0.0730952695012092
-0.0765197426080703
-0.0770213305950164
-0.0747900903224945
-0.0702132955193519
-0.0638244450092315
-0.0562456995248794
-0.0481272488832473
-0.0400832518935203
-0.0326312854886055
-0.0261483546346426
-0.0208476614207029
-0.0167737137526273
-0.0138179818168282
-0.0117552764713764
-0.0102900695055723
-0.0091014858335256
-0.0078833401203155
-0.0063765766099095
-0.0043910220265388
-0.0018152007833123
0.00138421356678
0.0051690344698727
0.0094417016953229
0.0140637913718819
0.0188750848174095
0.0237072482705116
0.028396125882864
0.0327976755797863
0.0367985889315605
0.0403140150010585
0.0432823784649372
0.0456647872924804
0.04744653403759
0.0486406348645687
0.0492904372513294
0.0494651906192302
0.0492458529770374
0.0486968271434307
0.0478227734565734
0.046525415033102
0.0445830076932907
0.0416672304272651
0.0374012105166912
0.0314497612416744
0.0236153956502676
0.0139102209359407
0.0025889789685606
-0.0098582617938518
-0.0227503105998039
-0.0352903753519058
-0.0466629937291145
