bvp
-0.0083588548004627
-0.0080149788409471
-0.0081578809767961
-0.0087698027491569
-0.0098013114184141
-0.0111746899783611
-0.0127951316535472
-0.0145731177181005
-0.0164519939571619
-0.0184317678213119
-0.0205800775438547
-0.0230227094143629
-0.0259108841419219
-0.0293745677918195
-0.033479057252407
-0.0381964929401874
-0.0433966107666492
-0.0488573312759399
-0.0542916730046272
-0.0593827962875366
-0.0638196915388107
-0.0673341229557991
-0.0697373524308204
-0.0709415227174758
-0.0709536969661712
-0.0698504671454429
-0.0677520930767059
-0.0648071765899658
-0.061184786260128
-0.0570674464106559
-0.0526435486972332
-0.0481004863977432
-0.0436171106994152
-0.0393541604280471
-0.0354461856186389
-0.0319943018257617
-0.0290538817644119
-0.0266240406781435
-0.0246500223875045
-0.0230327174067497
-0.0216381661593914
-0.0203127246350049
-0.0189062729477882
-0.0172951854765415
-0.015397435054183
-0.0131765380501747
-0.0106307324022054
-0.0077723013237118
-0.0046114372089505
-0.0011506499722599
0.0026149936020374
0.0066968305036425
0.0111116049811244
0.0158741008490324
0.0209788251668214
0.0263792145997285
0.0319757610559463
0.0376174114644527
0.0431158319115638
0.0482678897678852
0.0528799444437027
0.0567895546555519
0.0598794296383857
0.0620775148272514
0.063343696296215
0.0636505186557769
0.0629671216011047
0.0612568333745002
0.058490615338087
0.0546634458005428
0.0498060286045074
0.0439996980130672
0.0373937860131263
0.030210742726922
0.0227313861250877
0.0152664603665471
0.0081248646602034
0.0015859964769333
-0.0041180495172739
-0.0088087860494852
-0.0123626189306378
-0.0147131821140646
-0.0158562324941158
-0.0158564765006303
-0.0148512106388807
-0.0130469808354973
-0.0107079362496733
-0.0081317219883203
-0.0056153256446123
-0.0034204500261694
-0.0017430598381906
-0.0006895072292536
-0.0002650315873324
-0.0003784480504691
-0.0008616268169134
-0.0015008382033556
-0.0020742353517562
-0.0023862291127443
-0.0022918516770005
-0.0017077280208468
-0.0006119706667959
0.0009590804111212
0.0029166745953261
0.0051343236118555
0.0074697835370898
0.009787487797439
0.011975921690464
0.0139548499137163
0.0156718082726001
0.017093563452363
0.0182001423090696
0.0189853012561798
0.0194600392132997
0.0196539163589477
0.0196137502789497
0.0194027014076709
0.0191017966717481
0.0188071858137846
0.0186154209077358
0.0186043884605169
0.0188205726444721
0.0192736946046352
0.0199356749653816
0.0207383744418621
0.0215671323239803
0.0222557485103607
0.0225938949733972
0.022355169057846
0.0213413946330547
0.0194291267544031
0.0166047364473342
0.0129799786955118
0.0087872520089149
0.0043535847216844
5.282647907733917e-05
-0.0037501715123653
-0.006744597107172
-0.0087053347378969
-0.0095172487199306
-0.0091891158372163
-0.0078509654849767
-0.005736393854022
-0.0031542852520942
-0.0004504993557929
0.0020381584763526
0.0040260255336761
0.0053050443530082
0.0057573914527893
0.0053596422076225
0.0041754692792892
0.0023358240723609
1.4387071132659912e-05
-0.0025949776172637
-0.0052975006401538
-0.0079131573438644
-0.0102887824177742
-0.0123081803321838
-0.0139001253992319
-0.0150420740246772
-0.0157555546611547
-0.0160927176475524
-0.0161199793219566
-0.0159040261059999
-0.0155009683221578
-0.0149471964687109
-0.0142589025199413
-0.0134477466344833
-0.0125383175909519
-0.0115714073181152
-0.0105997510254383
-0.0096841193735599
-0.0088847689330577
-0.0082477964460849
-0.0077956989407539
-0.0075288563966751
-0.0074361786246299
-0.0075067356228828
-0.0077350810170173
-0.0081202685832977
-0.0086646117269992
-0.0093800798058509
-0.0103069506585598
-0.0115331709384918
-0.0131918974220752
-0.0154320299625396
-0.0183766186237335
-0.0220839288085699
-0.0265197604894638
-0.0315455235540866
-0.0369240455329418
-0.0423421189188957
-0.0474453493952751
-0.0518795400857925
-0.0553302317857742
-0.0575540214776992
-0.0584004893898963
-0.0578231066465377
-0.0558806620538234
-0.0527330413460731
-0.0486294217407703
-0.0438845120370388
-0.0388439930975437
-0.0338462889194488
-0.0291865859180688
-0.0250867959111928
-0.021677503362298
-0.0189942233264446
-0.0169841516762971
-0.0155208921059966
-0.0144255980849266
-0.013490336947143
-0.0125010916963219
-0.0112631246447563
-0.0096303494647145
-0.007529117166996
-0.0049622515216469
-0.0019927604589611
0.0012815035879611
0.0047503104433417
0.0083027211949229
0.0118301920592784
0.0152275217697024
0.0183932147920131
0.0212328601628541
0.023668747395277
0.025649432092905
0.0271518770605325
0.0281787384301424
0.028756633400917
0.0289328377693891
0.0287650488317012
0.0283059906214475
0.0275869332253932
0.0266031399369239
0.0253079198300838
0.0236204713582992
0.0214448571205139
0.0186953730881214
0.015325341373682
0.011353712528944
0.0068771820515394
0.0020606538746505
-0.0028838869184255
-0.0077194888144731
-0.0122076021507382
-0.0161330923438072
-0.0193285066634416
-0.0216932371258735
-0.0232060775160789
-0.0239350982010364
-0.0240414887666702
-0.0237648002803325
-0.0233843997120857
-0.0231669954955577
-0.023317627608776
-0.0239467490464448
-0.0250565987080335
-0.0265456195920705
-0.0282290931791067
-0.0298694428056478
-0.0312077738344669
-0.0319965556263923
-0.0320348665118217
-0.0311961472034454
-0.0294379368424415
-0.0267931669950485
-0.0233509205281734
-0.019239354878664
-0.0146166048943996
-0.009662140160799
-0.0045620538294315
0.0005078054964542
0.0053956434130668
0.0099847875535488
0.0142013318836689
0.0180150307714939
0.0214343480765819
0.0244950801134109
0.0272404961287975
0.0297034550458192
0.0319015979766845
0.0338370651006698
0.035488523542881
0.0368000194430351
0.0376778095960617
0.0379997044801712
0.0376385003328323
0.0364976488053798
0.0345494970679283
0.0318623781204223
0.0286066159605979
0.0250392481684684
0.021473504602909
0.0182357914745807
0.015617199242115
0.0138362385332584
0.0130197294056415
0.0131973884999752
0.0143078677356243
0.0162132196128368
0.0187185704708099
0.0215956196188926
0.024605493992567
0.027516670525074
0.0301204845309257
0.0322485193610191
0.0337897464632988
0.0347048565745353
0.0350366234779357
0.0349060595035553
0.034486636519432
0.0339686162769794
0.0335307791829109
0.0333225354552269
0.0334490314126014
0.0339586474001407
0.0348395518958568
0.0360259898006916
0.0374104343354702
0.0388591587543487
0.0402291789650917
0.0413852594792842
0.0422159954905509
0.0426470637321472
0.0426495261490345
0.0422380231320858
0.0414571836590766
0.0403653085231781
0.0390194803476333
0.0374558120965957
0.0356666445732116
0.0335876494646072
0.0311041846871376
0.028076484799385
0.024378452450037
0.0199409015476703
0.0147856995463371
0.009040062315762
0.0029286812059581
-0.0032519772648811
-0.0091725643724203
-0.0145197585225105
-0.0190450213849544
-0.0225955713540315
-0.0251183342188596
-0.0266455896198749
-0.0272797010838985
-0.0271826088428497
-0.0265616755932569
-0.0256478153169155
-0.0246692672371864
-0.0238249320536851
-0.0232612825930118
-0.0230564400553703
-0.0232156608253717
-0.0236788932234048
-0.0243336632847785
-0.0250313337892293
-0.0256122648715972
-0.0259361509233713
-0.0259057730436325
-0.0254785008728504
-0.0246657058596611
-0.0235219337046146
-0.0221287794411182
-0.0205798000097274
-0.018968665972352
-0.0173789281398057
-0.0158755369484424
-0.0145009607076644
-0.0132759222760796
-0.0122004207223653
-0.0112561890855431
-0.0104208709672093
-0.0096944766119122
-0.0091234734281897
-0.0088131465017795
-0.0089248102158308
-0.0096530606970191
-0.0111886318773031
-0.0136789036914706
-0.0171903483569622
-0.0216772854328155
-0.0269672311842441
-0.0327699854969978
-0.0387104004621505
-0.044377502053976
-0.0493753626942634
-0.0533652082085609
-0.0561028532683849
-0.0574696511030197
-0.0574801303446292
-0.0562644377350807
-0.054041251540184
-0.0510868765413761
-0.0476980842649936
-0.0441539958119392
-0.0406861826777458
-0.0374591164290905
-0.0345591306686401
-0.0319915935397148
-0.0296868048608303
-0.027516521513462
-0.0253193508833646
-0.0229285601526498
-0.0202012807130813
-0.0170469917356967
-0.0134413782507181
-0.0094185024499893
-0.0050529353320598
-0.0004442855715751
0.004294142127037
0.009045211598277
0.013698399066925
0.0181600954383611
0.0223597958683967
0.0262494720518589
0.0297999586910009
0.0330006033182144
0.0358596183359622
0.0383945293724536
0.0406063087284565
0.0424469634890556
0.0438024699687957
0.0445053353905677
0.0443737171590328
0.0432619675993919
0.0411061309278011
0.0379551388323307
0.0339825339615345
0.0294746533036232
0.0247988142073154
0.0203611366450786
0.0165614765137434
0.0137492604553699
0.0121823977679014
0.0119931157678365
0.0131670944392681
0.0155428349971771
0.0188362561166286
0.0226858370006084
0.0267060808837413
0.0305394530296325
0.0338975973427295
0.0365852899849414
0.038510076701641
0.0396806597709655
0.040192075073719
0.0402012839913368
0.0398998335003852
0.0394842699170112
0.0391291752457618
0.0389726981520652
0.0391099601984024
0.0395846664905548
0.0403853766620159
0.0414522364735603
0.0426889024674892
0.0439770370721817
0.0451910607516765
0.0462093204259872
0.0469238013029098
0.0472494587302207
0.0471289530396461
0.0465324744582176
0.0454567782580852
0.0439229793846607
0.0419673398137092
0.0396217294037342
0.0368857756257057
0.0337021127343177
0.029953820630908
0.0254925619810819
0.0201870612800121
0.013971721753478
0.0068785659968853
-0.000952024012804
-0.0092797018587589
-0.017788503319025
-0.0261225141584873
-0.0339273549616336
-0.0408895350992679
-0.0467658266425132
-0.0513989888131618
-0.0547208562493324
-0.0567516051232814
-0.0576019026339054
-0.0574666671454906
-0.0565996691584587
-0.0552776604890823
-0.053765520453453
-0.0522854775190353
-0.0509918630123138
-0.049955815076828
-0.0491647720336914
-0.0485363379120826
-0.0479406602680683
-0.0472244843840599
-0.0462323203682899
-0.0448239035904407
-0.0428901799023151
-0.040370125323534
-0.0372647382318973
-0.0336401462554931
-0.0296187009662389
-0.0253631900995969
-0.0210566520690917
-0.0168788693845272
-0.012982977554202
-0.0094787273555994
-0.0064281579107046
-0.0038498435169458
-0.0017245933413505
-3.4831464290618896e-06
0.0013816226273775
0.0025083255022764
0.0034547634422779
0.0042902752757072
0.0050665065646171
0.0058098398149013
0.0065123979002237
0.0071206297725439
0.0075282286852598
0.0075829848647117
0.0071124881505966
0.0059642642736434
0.0040485002100467
0.001369934529066
-0.0019611585885286
-0.005742073059082
-0.0097091011703014
-0.0135753601789474
-0.0170665346086025
-0.0199528150260448
-0.0220729354768991
-0.023344138637185
-0.0237605758011341
-0.0233874339610338
-0.0223514735698699
-0.0208241157233715
-0.0189974624663591
-0.0170586444437503
-0.0151682747527956
-0.0134466085582971
-0.0119675695896148
-0.0107580497860908
-0.009800455532968
-0.0090370858088135
-0.0083753699436783
-0.0076987966895103
-0.0068881968036293
-0.0058443984016776
-0.0044995844364166
-0.0028185052797198
-0.0007980177178978
0.0015325443819165
0.0041117630898952
0.0068484032526612
0.0096283387392759
0.0123279392719268
0.0148309422656893
0.0170433223247528
0.0189018920063972
0.0203768406063318
0.0214703977108001
0.0222083404660224
0.0226233191788196
0.0227417424321174
0.0225837305188179
0.0221698358654975
0.0215272530913352
0.0206952821463346
0.0197265222668647
0.0186812654137611
0.0176204238086938
0.0166003052145242
0.0156672876328229
0.0148486737161874
0.0141355227679014
0.0134624373167753
0.0126990005373954
0.0116586033254861
0.0101208593696355
0.0078672505915164
0.004726568236947
0.000616829842329
-0.004428481683135
-0.0102541455999016
-0.0165978241711854
-0.0231233071535825
-0.0294654816389083
-0.0352774709463119
-0.0402693189680576
-0.0442319735884666
-0.047047097235918
-0.0486848950386047
-0.0491938851773738
-0.0486904866993427
-0.047348964959383
-0.045383296906948
-0.043018914759159
-0.0404624417424202
-0.037877682596445
-0.0353702269494533
-0.0329823903739452
-0.0307002998888492
-0.0284686554223299
-0.0262087620794773
-0.0238380618393421
-0.0212848987430334
-0.0184952989220619
-0.0154365049675107
-0.0120989801362156
-0.0084960432723164
-0.0046633519232273
-0.0006570741534233
0.0034532584249973
0.0075972573831677
0.0117170168086886
0.0157744213938713
0.0197492130100727
0.0236316658556461
0.0274163782596588
0.0310985259711742
0.0346698984503746
0.0381155498325824
0.0414129048585891
0.0445348396897316
0.0474568083882331
0.0501588210463523
0.0526163578033447
0.0547916628420352
0.0566346682608127
0.0580888390541076
0.0590997189283371
0.0596292689442634
0.059669516980648
0.0592428669333457
0.0583864822983741
0.0571277141571044
0.0554580092430114
0.0533152222633361
0.0505857765674591
0.0471313633024692
0.04283357411623
0.0376380942761898
0.0315819270908832
0.0248030684888362
0.0175339393317699
0.0100755132734775
0.002757616341114
-0.0041030473075807
-0.0102392481639981
-0.0154592441394925
-0.0196580663323402
-0.0228170566260814
-0.0249994583427906
-0.0263397488743066
-0.0270217806100845
-0.0272478386759758
-0.0272050164639949
-0.0270418785512447
-0.026860237121582
-0.0267104879021644
-0.02658636495471
-0.02642522752285
-0.0261173658072948
-0.0255271829664707
-0.0245246216654777
-0.023016083985567
-0.0209645479917526
-0.0183963514864444
-0.0153967952355742
-0.0120967328548431
-0.0086543643847107
-0.0052356771193444
-0.0019940198399126
0.0009441338479518
0.0034806290641427
0.0055427942425012
0.0070861941203475
0.0081008281558752
0.0086138835176825
0.0086855571717023
0.0083990953862667
0.0078474255278706
0.0071200123056769
0.0062952423468232
0.0054404912516474
0.0046151485294103
0.0038709891960024
0.0032499162480235
0.0027797687798738
0.0024677235633134
0.0022942395880818
0.0022134985774755
0.0021633710712194
0.0020811930298805
0.0019172318279743
0.0016397312283515
0.0012300387024879
0.0006675068289041
-9.251013398170473e-05
-0.0011353455483913
-0.0025841034948825
-0.0045744096860289
-0.0072168102487921
-0.0105588473379611
-0.0145575087517499
-0.0190737824887037
-0.0238903798162937
-0.0287381261587142
-0.0333217009902
-0.037348486483097
-0.0405623540282249
-0.042773850262165
-0.0438761413097381
-0.0438449531793594
-0.0427298471331596
-0.0406464450061321
-0.0377704910933971
-0.0343261137604713
-0.0305624939501285
-0.0267181601375341
-0.0229823961853981
-0.0194737892597913
-0.016243165358901
-0.0132862897589802
-0.0105555253103375
-0.0079736970365047
-0.0054526082240045
-0.0029127798043191
-0.0002983836457133
0.0024162079207599
0.0052260719239711
0.008099109865725
0.0109828049317002
0.0138119608163833
0.0165150091052055
0.0190217532217502
0.0212740115821361
0.0232312977313995
0.0248672552406787
0.0261658355593681
0.027122888714075
0.0277472920715808
0.0280571170151233
0.0280746426433324
0.0278254374861717
0.0273394174873828
0.026649447157979
0.0257887989282608
0.0247903689742088
0.0236863866448402
0.0225068908184766
0.0212794467806816
0.0200299173593521
0.0187785699963569
0.0175342801958322
0.0162969715893268
0.0150639526546001
0.0138251455500721
0.0125458380207419
0.0111510008573532
0.0095236012712121
0.0075185447931289
0.0049877734854817
0.0018127791117876
-0.0020614664535969
-0.0066012283787131
-0.0116754667833447
-0.0170663688331842
-0.0224956572055816
-0.0276618041098117
-0.0322814397513866
-0.0361231006681919
-0.0390255488455295
-0.0409037843346595
-0.0417486540973186
-0.0416211523115634
-0.0406402349472045
-0.0389661155641078
-0.0367837771773338
-0.0342891216278076
-0.0316753312945365
-0.0291159451007843
-0.0267460793256759
-0.0246462076902389
-0.0228338204324245
-0.021270278841257
-0.019880149513483
-0.0185687243938446
-0.0172334033995866
-0.0157734658569097
-0.0140990018844604
-0.0121393464505672
-0.0098517350852489
-0.0072273947298526
-0.0042925775051116
-0.0011054277420043
0.0022504702210426
0.0056754499673843
0.0090648178011178
0.0123219843953847
0.0153732616454362
0.0181755982339382
0.0207119323313236
0.0229853652417659
0.0250194557011127
0.0268557202070951
0.0285430662333965
0.03012665361166
0.0316434502601623
0.0331214368343353
0.0345776490867137
0.0360168144106864
0.0374319851398468
0.0388057120144367
0.0401124246418476
0.0413229130208492
0.042407639324665
0.0433309227228164
0.0440353900194168
0.0444288924336433
0.0443813651800155
0.0437304526567459
0.0422991923987865
0.0399288535118103
0.0365190654993057
0.0320616737008094
0.0266600921750068
0.0205298587679862
0.0139785846695303
0.0073715355247259
0.0010915463790297
-0.0045007048174738
-0.0091000795364379
-0.0124844210222363
-0.0145374592393636
-0.0152576630935072
-0.014746400527656
-0.0131835807114839
-0.0108007313683629
-0.0078554386273026
-0.004610251635313
-0.0013158787041902
0.0018054731190204
0.0045746392570436
0.006863510236144
0.0085992291569709
0.0097661074250936
0.0104018552228808
0.0105875143781304
0.0104313194751739
0.0100484434515237
0.0095460386946797
0.0090194344520568
0.008552354760468
0.0082135209813714
0.0080514699220657
0.0080891726538538
0.0083170756697654
0.0086890086531639
0.0091278310865163
0.0095401769503951
0.009833950549364
0.0099339326843619
0.0097923511639237
0.0093926396220922
0.0087444074451923
0.0078693022951483
0.0067866435274481
0.0055096028372645
0.0040522962808609
0.0024382276460528
0.0007001860067248
-0.0011258712038397
-0.0030062068253755
-0.0049206921830773
-0.0068839816376566
-0.0089627653360366
-0.0112778507173061
-0.0139903798699378
-0.0172711499035358
-0.0212553571909666
-0.0259986892342567
-0.0314509309828281
-0.0374481752514839
-0.043721780180931
-0.0499258264899253
-0.0556799173355102
-0.0606185123324394
-0.0644373968243599
-0.0669285953044891
-0.067997857928276
-0.067665696144104
-0.0660569965839386
-0.0633829906582832
-0.0599177777767181
-0.0559673272073268
-0.051831305027008
-0.0477713905274868
-0.0439937077462673
-0.0406340360641479
-0.0377422720193862
-0.0352780073881149
-0.033123180270195
-0.0311066694557666
-0.0290342792868614
-0.0267190150916576
-0.0240065120160579
-0.020792793482542
-0.0170347765088081
-0.0127531494945287
-0.0080256927758455
-0.0029722154140472
0.0022642314434051
0.0075329504907131
0.0126858875155448
0.0175894517451524
0.0221380405128002
0.0262595489621162
0.0299116279929876
0.0330759473145008
0.0357541888952255
0.037966288626194
0.039749551564455
0.0411563739180564
0.0422508493065834
0.0431032851338386
0.0437821112573146
0.044348482042551
0.044857233762741
0.0453568249940872
0.0458767227828502
0.0464028418064117
0.0468521043658256
0.0470579341053962
0.0467774644494056
0.0457237884402275
0.0436153709888458
0.0402314811944961
0.035463809967041
0.029353529214859
0.0221042484045028
0.0140663012862205
0.0056954780593514
-0.0025033168494701
-0.0100363548845052
-0.0164778959006071
-0.0215155687183141
-0.0249762404710054
-0.0268295146524906
-0.0271716360002756
-0.0261986404657363
-0.024178110063076
-0.0214208085089921
-0.0182514805346727
-0.0149788204580545
-0.0118633825331926
-0.0090898741036653
-0.0067537818104028
-0.0048619322478771
-0.0033428482711315
-0.0020663794130086
-0.0008729360997676
0.0003921650350093
0.0018512699753046
0.003581304103136
0.0056123547255992
0.0079339183866977
0.0105054369196295
0.0132679594680666
0.0161553677171468
0.0191027820110321
0.0220485590398311
0.0249314904212951
0.0276891347020864
0.0302581768482923
0.0325760319828987
0.0345856770873069
0.0362419411540031
0.0375159680843353
0.0383976325392723
0.0388953499495983
0.0390345007181167
0.038856852799654
0.0384184792637825
0.037783607840538
0.0370146483182907
0.0361560210585594
0.0352102667093277
0.0341123640537261
0.0327157825231552
0.0308036543428897
0.0281291920691728
0.024476233869791
0.0197182148694992
0.0138573385775089
0.0070434575900435
-0.0004275813698768
-0.0081413779407739
-0.0156136341392993
-0.0223508067429065
-0.0279124863445758
-0.0319622159004211
-0.0342987105250358
-0.0348685979843139
-0.0337651595473289
-0.031213890761137
-0.0275437198579311
-0.0231466516852378
-0.0184373185038566
-0.0138242971152067
-0.0096876621246337
-0.0063475463539361
-0.0040218997746706
-0.0027876067906618
-0.002563826739788
-0.0031259935349226
-0.0041443761438131
-0.0052382610738277
-0.0060356156900525
-0.0062259193509817
-0.0055982396006584
-0.0040608793497085
-0.0016414485871791
0.0015325751155614
0.0052662901580333
0.0093268956989049
0.01346249692142
0.0174179505556821
0.0209540445357561
0.0238667801022529
0.0260014571249485
0.0272590965032577
0.0275962315499782
0.0270210579037666
0.0255881510674953
0.0233929865062236
0.0205650702118873
0.0172573402523994
0.0136344209313392
0.0098615251481533
0.0060869008302688
0.002408530563116
-0.0011676773428916
-0.0047530643641948
-0.0085654631257057
-0.0128821581602096
-0.0179684907197952
-0.0240000318735837
-0.0309977885335683
-0.038796380162239
-0.0470569059252738
-0.0553155504167079
-0.0630508512258529
-0.0697590857744216
-0.0750239938497543
-0.0785638242959976
-0.0802505537867546
-0.0801108479499816
-0.0783177763223648
-0.0751688629388809
-0.0710450783371925
-0.0663599967956543
-0.061510968953371
-0.0568379536271095
-0.0525934919714927
-0.0489257611334323
-0.0458757355809211
-0.0433889925479888
-0.041339062154293
-0.0395545773208141
-0.0378460064530372
-0.0360301882028579
-0.0339474156498909
-0.0314717665314674
-0.0285200402140617
-0.0250567402690649
-0.0210918225347995
-0.0166753455996513
-0.0118927098810672
-0.006858373992145
-0.0017061599064618
0.0034236279316246
0.0083982674404978
0.0131043279543519
0.0174556504935026
0.0213975720107555
0.0249082874506711
0.0279990620911121
0.0307113789021968
0.0331060364842414
0.0352463982999324
0.037185825407505
0.0389612354338169
0.0405848212540149
0.0420293249189853
0.0432099625468254
0.043971948325634
0.044095255434513
0.0433254167437553
0.0414258167147636
0.0382356829941272
0.0337204150855541
0.0280018150806427
0.021356213837862
0.0141815915703773
0.0069444556720554
0.000116319861263
-0.0058872839435935
-0.0107484897598624
-0.0142629342153668
-0.016341084614396
-0.0170037671923637
-0.0163678787648677
-0.0146245434880256
-0.0120160514488816
-0.0088126761838793
-0.0052907783538103
-0.0017094407230615
0.0017164712771773
0.004839920438826
0.0075953267514705
0.0099961161613464
0.0121149141341447
0.0140608409419655
0.0159637480974197
0.0179571248590946
0.0201549138873815
0.0226291716098785
0.0253970474004745
0.0284192822873592
0.0316051989793777
0.0348220244050025
0.0379110611975193
0.0407093055546283
0.0430707968771457
0.0448835119605064
0.0460802987217903
0.0466412603855133
0.0465882122516632
0.045976061373949
0.0448811501264572
0.0433876365423202
0.0415777862071991
0.0395281240344047
0.037308532744646
0.0349828712642192
0.0326119437813758
0.0302555877715349
0.0279680378735065
0.0257837623357772
0.0236921068280935
0.0216072928160429
0.0193538349121809
0.0166778117418289
0.0132797099649906
0.0088696032762527
0.0032379329204559
-0.0036824960261583
-0.0117835253477096
-0.020784668624401
-0.0302703380584716
-0.0397499352693557
-0.0487232320010662
-0.0567355751991272
-0.0634180754423141
-0.0685151517391204
-0.0718967616558075
-0.0735524892807006
-0.0735757201910018
-0.0721481516957283
-0.0695230215787887
-0.06599972397089
-0.0618917122483253
-0.0574959069490432
-0.0530683733522892
-0.0488060042262077
-0.044833205640316
-0.0411971360445022
-0.0378761067986488
-0.0347990095615386
-0.0318669378757476
-0.0289707090705633
-0.0260063540190458
-0.0228892434388399
-0.0195623822510242
-0.0159999690949916
-0.0122099891304969
-0.008233024738729
-0.0041336072608828
1.382920891046524e-05
0.0041380915790796
0.0081778978928923
0.0120826326310634
0.015811301767826
0.0193312000483274
0.0226161889731884
0.025645250454545
0.0284013301134109
0.0308712515980005
0.0330497771501541
0.034946858882904
0.0365874990820884
0.0380002632737159
0.0392065532505512
0.0402164161205291
0.0410233214497566
0.041591428220272
0.0418371446430683
0.041616715490818
0.0407338254153728
0.0389718562364578
0.0361449234187603
0.0321535691618919
0.0270286481827497
0.0209495350718498
0.0142309516668319
0.0072850631549954
0.0005675442516803
-0.0054866438731551
-0.010521930642426
-0.0142961777746677
-0.0166899673640728
-0.0177036710083484
-0.0174482613801956
-0.0161311365664005
-0.0140374042093753
-0.0115019967779517
-0.0088702514767646
-0.0064553748816251
-0.0045034401118755
-0.0031699838582426
-0.0025091348215937
-0.0024754926562309
-0.0029396619647741
-0.0037177610211074
-0.0046070571988821
-0.0054141543805599
-0.0059700184501707
-0.0061397822573781
-0.0058341808617115
-0.0050167208537459
-0.0037027925718575
-0.001955070765689
0.0001229704357683
0.0023963993880897
0.0047134277410805
0.0069250715896487
0.0089044142514467
0.0105614736676216
0.0118478285148739
0.0127479191869497
0.0132672423496842
0.0134255802258849
0.0132545316591858
0.0127976164221763
0.0121085047721862
0.0112469792366027
0.0102783106267452
0.0092749744653701
0.0083132609724998
0.0074605299159884
0.0067532714456319
0.0061713149771094
0.0056202486157417
0.004933413118124
0.0038964701816439
0.0022906260564923
-5.398411303758621e-05
-0.0032078148797154
-0.0071099582128226
-0.0115686357021331
-0.0162948258221149
-0.0209528729319572
-0.0252123065292835
-0.0287926495075225
-0.031496126204729
-0.03322659060359
-0.0339933261275291
-0.0338992811739444
-0.03311637789011
-0.0318516790866851
-0.0303139463067054
-0.0286913122981786
-0.0271379575133323
-0.0257626548409461
-0.0246199332177639
-0.0237063616514205
-0.0229615848511457
-0.0222760122269392
-0.0215095877647399
-0.0205193106085062
-0.0191852208226919
-0.0174273122102022
-0.015212969854474
-0.0125572169199585
-0.0095156859606504
-0.0061715776100754
-0.0026254039257764
0.0010083671659231
0.0046075233258306
0.0080577600747346
0.0112708723172545
0.014195354655385
0.0168174337595701
0.0191556476056575
0.0212479382753372
0.023134047165513
0.0248448252677917
0.0264028292149305
0.0278268754482269
0.0291347913444042
0.0303441993892192
0.0314725115895271
0.0325342528522014
0.0335338860750198
0.0344589054584503
0.0352762788534164
0.0359285734593868
0.0363261774182319
0.0363376699388027
0.035788420587778
0.0344780571758747
0.0322157703340053
0.0288614518940448
0.0243624169379472
0.0187796391546726
0.0122965946793556
0.0052075800485908
-0.0021134463604539
-0.0092611871659755
-0.0158534087240695
-0.0215737987309694
-0.0261963624507188
-0.0295955203473567
-0.0317455977201461
-0.0327130779623985
-0.0326434001326561
-0.0317407436668872
-0.0302436780184507
-0.0284014083445072
-0.0264488980174064
-0.0245802924036979
-0.0229274053126573
-0.0215497948229312
-0.0204381011426448
-0.0195298269391059
-0.0187319088727235
-0.0179394371807575
-0.017045734450221
-0.0159484483301639
-0.0145583022385835
-0.0128127895295619
-0.0106889801099896
-0.0082076508551836
-0.0054285787045955
-0.0024419762194156
0.0006405618041753
0.0036970698274672
0.0066101145930588
0.0092816613614559
0.0116425091400742
0.0136517286300659
0.015286237001419
0.0165313445031642
0.0173813570290803
0.0178482811897993
0.0179705042392015
0.0178126152604818
0.0174562707543373
0.0169874746352434
0.0164794716984033
0.015969693660736
0.0154365263879299
0.0147865964099764
0.0138607583940029
0.0124619863927364
0.0104027539491653
0.0075556454248726
0.0038888766430318
-0.0005165394395589
-0.0054682348854839
-0.0106840981170535
-0.0158288478851318
-0.0205577500164508
-0.0245593786239624
-0.0275889597833156
-0.0294886790215969
-0.0301966518163681
-0.0297458432614803
-0.0282534155994653
-0.0259031038731336
-0.0229227002710104
-0.0195588879287242
-0.0160559639334678
-0.0126393307000398
-0.009496035054326
-0.0067535508424043
-0.0044672898948192
-0.0026211235672235
-0.0011383760720491
0.0001011118292808
0.0012413505464792
0.0024293325841426
0.0037942882627248
0.0054299179464578
0.0073840599507093
0.009658589027822
0.0122179966419935
0.0150009272620081
0.0179277155548334
0.0209041554480791
0.0238271933048963
0.0265934355556964
0.0291088987141847
0.0312978327274322
0.0331075266003608
0.0345106981694698
0.0355083644390106
0.0361290164291858
0.0364208221435546
0.0364424213767051
0.0362563356757164
0.0359232537448406
0.035498209297657
0.0350293889641761
0.0345533266663551
0.0340833887457847
0.0335971154272556
0.0330245792865753
0.0322393588721752
0.0310624502599239
0.0292861219495534
0.0267126448452472
0.0231975950300693
0.0186872724443674
0.0132418824359774
0.0070400405675172
0.0003628712147474
-0.0064406646415591
-0.0129983220249414
-0.0189565308392047
-0.024016523733735
-0.0279656797647476
-0.0306971725076437
-0.0322122983634471
-0.0326080545783042
-0.0320550575852394
-0.0307720489799976
-0.0290006250143051
-0.026979710906744
-0.0249207839369773
-0.0229883734136819
-0.0212909523397684
-0.0198808647692203
-0.0187562275677919
-0.0178639590740203
-0.0171082019805908
-0.0163663662970066
-0.0155118629336357
-0.0144366966560482
-0.0130664706230163
-0.0113666448742151
-0.0093415100127458
-0.0070284525863826
-0.0044913133606314
-0.0018136142753064
0.0009096711874008
0.0035819080658257
0.0061148623935878
0.0084365084767341
0.0104964151978492
0.0122712356969714
0.0137671735137701
0.0150118917226791
0.0160381346940994
0.0168717913329601
0.0175301656126976
0.018024992197752
0.0183666683733463
0.0185689441859722
0.0186512749642133
0.018637366592884
0.0185478925704956
0.0183841362595558
0.0181076377630233
0.0176260750740766
0.0167924854904413
0.0154251102358102
0.0133469831198453
0.0104282833635807
0.0066167674958705
0.0019572656601667
-0.0033979080617427
-0.0091969305649399
-0.0151188047602772
-0.0208143182098865
-0.0259476080536842
-0.0302347633987665
-0.0334732197225093
-0.0355570651590824
-0.0364776849746704
-0.0363127216696739
-0.0352106094360351
-0.0333732441067695
-0.031032882630825
-0.0284282937645912
-0.0257906634360551
-0.023333691060543
-0.0212341398000717
-0.0196077786386013
-0.0184965543448925
-0.0178698282688856
-0.0176347065716981
-0.0176552720367908
-0.0177772510796785
-0.0178478397428989
-0.0177282728254795
-0.0173068903386592
-0.0165119357407093
-0.0153141263872385
-0.0137204453349113
-0.0117714162915945
-0.0095426915213465
-0.0071391784586012
-0.0046782665885984
-0.0022703907452523
-4.111556336283684e-06
0.0020624608732759
0.0039034828078001
0.0055196806788444
0.006929101422429
0.0081610921770334
0.0092523861676454
0.0102396048605442
0.011149127036333
0.0119901392608881
0.0127520011737942
0.0133973509073257
0.0138464774936437
0.0139668751507997
0.0135830892249941
0.0125067941844463
0.0105789843946695
0.0077131800353527
0.0039278618060052
-0.0006391261704266
-0.0057374723255634
-0.0110332379117608
-0.0161534491926431
-0.0207348484545946
-0.0244672577828168
-0.0271249711513519
-0.0285823550075292
-0.0288167558610439
-0.0279045403003692
-0.0260091107338666
-0.0233580823987722
-0.0202130489051342
-0.0168384592980146
-0.0134740993380546
-0.0103136599063873
-0.0074911350384354
-0.0050742356106638
-0.0030644861981272
-0.0014063939452171
-4.9211084842681885e-06
0.0012538749724626
0.0024858089163899
0.0037994505837559
0.0052905865013599
0.0070322351530194
0.0090625761076807
0.0113805681467056
0.0139518287032842
0.0167192220687866
0.0196120236068964
0.0225511863827705
0.0254531223326921
0.0282358080148696
0.0308264289051294
0.0331662818789482
0.0352111160755157
0.0369287580251693
0.0382992923259735
0.0393199808895587
0.0400060303509235
0.0403801389038562
0.0404606200754642
0.0402587167918682
0.0397768579423427
0.0389969050884246
0.0378647223114967
0.0362835638225078
0.0341232866048812
0.0312467943876981
0.0275458451360464
0.0229737181216478
0.0175668094307184
0.0114537198096513
0.0048535680398344
-0.0019377334974706
-0.0085788127034902
-0.0147294485941529
-0.0200949590653181
-0.0244535040110349
-0.0276680644601583
-0.0296896584331989
-0.0305541511625051
-0.0303746256977319
-0.0293298661708831
-0.027645394206047
-0.025567403063178
-0.0233370531350374
-0.0211681760847568
-0.0192259978502988
-0.0176096558570861
-0.016345091164112
-0.0153926452621817
-0.0146665386855602
-0.0140556506812572
-0.0134391197934746
-0.012699332088232
-0.011734664440155
-0.0104688815772533
-0.008855571039021
-0.0068814242258667
-0.0045698373578488
-0.0019815014675259
0.0007900656200945
0.003626590128988
0.0063966810703277
0.0089745931327342
0.011261947453022
0.0131980301812291
0.0147541733458638
0.0159240756183862
0.0167201720178127
0.0171743929386138
0.0173381883651018
0.0172798167914152
0.0170777533203363
0.0168093349784612
0.0165336579084396
0.0162690393626689
0.0159728992730379
0.0155342426151037
0.0147822685539722
0.0135135361924767
0.0115367677062749
0.008719996549189
0.0050225662998855
0.0005094031803309
-0.0046490468084812
-0.0101916128769516
-0.0157953612506389
-0.0211152210831642
-0.0258260443806648
-0.0296557191759347
-0.0324060469865798
-0.0339665338397026
-0.0343228392302989
-0.0335568040609359
-0.0318358987569808
-0.0293901078402996
-0.0264777466654777
-0.0233528912067413
-0.0202435366809368
-0.0173344761133193
-0.0147505477070808
-0.0125451665371656
-0.0107012121006846
-0.0091461222618818
-0.0077740773558616
-0.0064679142087697
-0.0051184520125389
-0.0036396142095327
-0.0019760960713028
-0.0001004943624138
0.0019957972690463
0.0043094856664538
0.0068279476836323
0.0095271067693829
0.0123640019446611
0.0152703439816832
0.018156960606575
0.0209284052252769
0.0234974324703216
0.0257946196943521
0.0277733467519283
0.0294104386121034
0.0307050235569477
0.031676061451435
0.0323582962155342
0.0327991209924221
0.0330544933676719
0.0331801585853099
0.0332181975245475
0.0331753343343734
0.032993271946907
0.0325303263962268
0.0315752848982811
0.0298916026949882
0.0272737946361303
0.0235990174114704
0.0188625697046518
0.0131904426962137
0.0068273590877652
0.0001058704219758
-0.0065937940962612
-0.0128860538825392
-0.0184210948646068
-0.0229197908192873
-0.0261971317231655
-0.0281757935881614
-0.0288911871612072
-0.0284828338772058
-0.0271706543862819
-0.0252221301198005
-0.0229188147932291
-0.0205270070582628
-0.0182722881436347
-0.0163193643093109
-0.0147597100585699
-0.0136092714965343
-0.0128187965601682
-0.0122918216511607
-0.0119018014520406
-0.0115073211491107
-0.0109682334586977
-0.0101651074364781
-0.0090195089578628
-0.0075053153559565
-0.0056456518359482
-0.0034999700728803
-0.0011481896508485
0.0013229451142251
0.0038293621037155
0.0062955589964985
0.0086575988680124
0.0108637791126966
0.0128742773085832
0.0146622080355882
0.0162170715630054
0.0175476893782615
0.0186794381588697
0.0196423158049583
0.0204548761248588
0.0211146026849746
0.0215948037803173
0.0218391064554452
0.0217527486383914
0.0211995895951986
0.0200121402740478
0.018016267567873
0.015068213455379
0.0110964365303516
0.0061365235596895
0.0003475546836853
-0.0059963352978229
-0.0125362612307071
-0.0188727062195539
-0.0246177576482296
-0.0294454954564571
-0.0331235341727733
-0.0355217009782791
-0.0366098955273628
-0.0364532209932804
-0.0352024883031845
-0.0330749042332172
-0.0303260050714015
-0.0272211860865354
-0.0240125525742769
-0.0209203772246837
-0.0181171931326389
-0.0157156027853488
-0.013760682195425
-0.012228600680828
-0.0110385157167911
-0.0100771747529506
-0.0092218406498432
-0.008354565128684
-0.0073724891990423
-0.0061955293640494
-0.0047689955681562
-0.0030635436996817
-0.0010784552432596
0.0011540867853909
0.0035718437284231
0.0060925832949578
0.0086247250437736
0.0110757080838084
0.0133614363148808
0.0154169779270887
0.0172003004699945
0.0186871029436588
0.0198676157742738
0.0207483246922492
0.0213519260287284
0.0217171926051378
0.0219008419662714
0.021974703297019
0.0220141299068927
0.0220787525177001
0.0221854392439126
0.0222803987562656
0.0222268775105476
0.0218179672956466
0.0208146963268518
0.019002478569746
0.0162440165877342
0.0125093823298811
0.007885861210525
0.0025737816467881
-0.0031339777633547
-0.008888280019164
-0.0143277114257216
-0.0191207975149154
-0.0230019409209489
-0.0257975738495588
-0.027436938136816
-0.0279477871954441
-0.0274436473846435
-0.0261056292802095
-0.0241581387817859
-0.021842498332262
-0.0193966627120971
-0.0170409940183162
-0.0149598754942417
-0.0132774589583277
-0.0120389536023139
-0.0112068932503461
-0.0106741031631827
-0.0102885048836469
-0.0098811229690909
-0.0092919487506151
-0.008391635492444
-0.0070949224755167
-0.005363933276385
-0.0032068248838186
-0.0006731033790856
0.0021586837247014
0.0051934188231825
0.0083225490525364
0.0114265726879239
0.0143868932500481
0.0171011798083782
0.0194932669401168
0.0215141009539365
0.0231354124844074
0.0243448857218027
0.025147883221507
0.0255700759589672
0.025655822828412
0.0254632029682397
0.0250576306134462
0.0245050601661205
0.0238634794950485
0.0231656692922115
0.022392826154828
0.0214550569653511
0.0201931819319725
0.0184035301208496
0.0158815793693065
0.0124735012650489
0.0081166867166757
0.0028573758900165
-0.003150925040245
-0.0096623636782169
-0.0163651965558528
-0.0229159705340862
-0.0289759710431098
-0.0342435538768768
-0.0384776443243026
-0.0415162742137908
-0.0432929396629333
-0.0438439399003982
-0.0433011502027511
-0.0418712459504604
-0.0398062318563461
-0.037369929254055
-0.0348058678209781
-0.0323124229907989
-0.0300246495753526
-0.028003666549921
-0.0262399185448884
-0.0246691536158323
-0.0231923609972
-0.0216931048780679
-0.0200524870306253
-0.0181685015559196
-0.0159791726619005
-0.0134760262444615
-0.0107003804296255
-0.0077285282313823
-0.0046547180972993
-0.0015779715031385
0.0014066309668123
0.0042155310511589
0.0067843389697372
0.0090748388320207
0.0110790580511093
0.0128172030672431
0.0143302883952856
0.015671195462346
0.0168953165411949
0.0180482100695371
0.0191524159163236
0.020203199237585
0.0211731661111116
0.0220106430351734
0.0226260144263505
0.0228811353445053
0.0225964989513158
0.0215774960815906
0.0196549016982316
0.0167284961789846
