bvp
-0.049993559718132
-0.0439280606806278
-0.0375241339206695
-0.0308658499270677
-0.0240622460842132
-0.017245939001441
-0.0105685666203498
-0.0041905380785465
0.0017302576452493
0.0070452038198709
0.0116236843168735
0.0153677500784397
0.018226433545351
0.0202046371996402
0.021362429484725
0.0217991732060909
0.0216224901378154
0.0209082886576652
0.0196629390120506
0.0178036373108625
0.0151701532304286
0.0115696303546428
0.0068432781845331
0.0009336564689874
-0.0060714650899171
-0.013931630179286
-0.0222767628729343
-0.0306491032242774
-0.0385573208332061
-0.0455356538295745
-0.0511987432837486
-0.0552832148969173
-0.0576692670583725
-0.0583821535110473
-0.0575787685811519
-0.0555222891271114
-0.0525467284023761
-0.0490152165293693
-0.0452770739793777
-0.0416299179196357
-0.0382925122976303
-0.0353910773992538
-0.0329563915729522
-0.0309286341071128
-0.0291726663708686
-0.0275035090744495
-0.0257145836949348
-0.02360475435853
-0.0210030935704708
-0.0177870914340019
-0.0138938091695308
-0.0093253217637538
-0.0041453503072261
0.0015329681336879
0.0075641050934791
0.0137877129018306
0.0200401619076728
0.0261597521603107
0.0319952145218849
0.0374205335974693
0.0423483774065971
0.0467381700873374
0.0505973920226097
0.0539707355201244
0.0569204241037368
0.0595112144947052
0.0618064850568771
0.0638696178793907
0.0657596960663795
0.0675137639045715
0.0691196843981742
0.0704919397830963
0.0714586451649665
0.0717695653438568
0.071138672530651
0.0693157389760017
0.0661604255437851
0.0616946332156658
0.056119829416275
0.0497953593730926
0.04318518191576
0.0367914102971553
0.0310927182435989
0.0264942105859518
0.0232879742980003
0.0216257907450199
0.0215099584311246
0.0228055957704782
0.0252665877342224
0.028564479202032
0.0323207601904869
0.0361463502049446
0.0396852977573871
0.042653914541006
0.0448656752705574
0.0462392047047615
0.0467938780784606
0.0466364733874797
0.0459380969405174
0.0449026003479957
0.0437335968017578
0.0426037088036537
0.041629672050476
0.0408624187111854
0.0402906611561775
0.0398513600230217
0.039451140910387
0.038996335119009
0.0384161844849586
0.0376706235110759
0.0367469750344753
0.0356524065136909
0.0344049111008644
0.0330248773097991
0.0315299108624458
0.0299307033419609
0.0282238945364952
0.0263867117464542
0.0243825037032365
0.0221742670983076
0.0197320319712162
0.0170282293111085
0.0140254460275173
0.0106582604348659
0.0068138502538204
0.0023264922201633
-0.0030014887452125
-0.0093530379235744
-0.0168358124792575
-0.0254276264458894
-0.0349461659789085
-0.0450490526854991
-0.055262092500925
-0.0650304853916168
-0.0737813264131546
-0.080984428524971
-0.086209088563919
-0.0891755744814872
-0.0897881686687469
-0.0881404876708984
-0.0844974517822265
-0.0792624056339263
-0.0729338601231575
-0.0660529136657714
-0.059146411716938
-0.0526746585965156
-0.0469901785254478
-0.0423139669001102
-0.0387340113520622
-0.0362206473946571
-0.0346479602158069
-0.0338166616857051
-0.0334826149046421
-0.0333926230669021
-0.0333158075809478
-0.0330617167055606
-0.0324913449585437
-0.0315260291099548
-0.0301500000059604
-0.0284020081162452
-0.0263581369072198
-0.0241127759218215
-0.0217629689723253
-0.0193970222026109
-0.0170864611864089
-0.0148827601224184
-0.0128192231059074
-0.0109119294211268
-0.0091594830155372
-0.0075481301173567
-0.0060587441548705
-0.0046695554628968
-0.003355692140758
-0.002088613808155
-0.0008430238813161
0.0003800196573138
0.0015194565057754
0.0024309214204549
0.0028911177068948
0.0026336349546909
0.0014095092192292
-0.0009454227983951
-0.0044568912126123
-0.0089838933199644
-0.0142246969044208
-0.0197568498551845
-0.0250914059579372
-0.0297268778085708
-0.0332046039402484
-0.0351596027612686
-0.0353546068072319
-0.0336975678801536
-0.0302477926015853
-0.0252091288566589
-0.0189082249999046
-0.011761063709855
-0.0042316196486353
0.0032153530046343
0.0101655405014753
0.0163025595247745
0.02143513597548
0.0254963971674442
0.0285287387669086
0.0306671299040317
0.0321195349097251
0.033141478896141
0.0340060926973819
0.034971497952938
0.0362477526068687
0.0379675403237342
0.0401670038700103
0.0427845641970634
0.0456796064972877
0.0486639514565467
0.0515385679900646
0.0541268624365329
0.0562919192016124
0.057936243712902
0.0589982829988002
0.0594538301229476
0.0593161284923553
0.0586300417780876
0.0574610717594623
0.0558793917298316
0.0539385601878166
0.0516504049301147
0.0489632524549961
0.0457540899515152
0.0418415628373622
0.0370221696794033
0.0311253443360328
0.0240735132247209
0.0159266218543052
0.006896361708641
-0.0026680752635002
-0.0123152108862996
-0.0215436182916164
-0.0298625621944665
-0.0368486456573009
-0.0421921163797378
-0.0457284450531005
-0.0474505238234996
-0.0475015118718147
-0.0461501628160476
-0.0437515377998352
-0.0407014787197113
-0.0373918935656547
-0.0341692306101322
-0.0313043892383575
-0.0289804823696613
-0.0272918045520782
-0.0262504070997238
-0.0258014425635337
-0.0258415639400482
-0.0262359380722045
-0.0268350355327129
-0.0274903420358896
-0.0280651319772005
-0.0284381490200757
-0.0285034365952014
-0.0281730443239212
-0.0273853950202465
-0.0261117070913314
-0.024352878332138
-0.0221357606351375
-0.0195169802755117
-0.0165841318666934
-0.013445796445012
-0.0102153718471527
-0.0069953082129359
-0.0038659318815916
-0.0008820807561278
0.0019247808959335
0.0045443610288202
0.0069843158125877
0.0092601077631115
0.0113743478432297
0.0132878459990024
0.0148940365761518
0.0160124078392982
0.0164061058312654
0.0158217567950487
0.0140472082421183
0.0109724178910255
0.0066341245546936
0.0012325986754149
-0.0048844870179891
-0.0112683977931737
-0.0174309350550174
-0.0229026470333337
-0.0272786654531955
-0.0302529521286487
-0.0316430479288101
-0.0314025841653347
-0.0296152662485837
-0.0264713298529386
-0.0222387015819549
-0.0172362867742776
-0.0118044875562191
-0.0062706787139177
-0.0009153308346867
0.0040553798899054
0.0085248388350009
0.0124654583632946
0.0159247107803821
0.0190031118690967
0.0218296870589256
0.0245391130447387
0.0272509735077619
0.0300514418631792
0.0329815447330474
0.0360346734523773
0.0391599908471107
0.0422695502638816
0.0452516973018646
0.0479892641305923
0.0503766201436519
0.0523330233991146
0.0538123100996017
0.0548066683113575
0.0553427040576934
0.0554734282195568
0.0552692040801048
0.0548045337200164
0.0541407577693462
0.053311675786972
0.0523136965930461
0.0510936267673969
0.0495298355817794
0.0474180169403553
0.0444849729537963
0.0404380485415458
0.035033494234085
0.0281437113881111
0.0198084190487861
0.0102555938065052
-0.0001160576939582
-0.0107869151979684
-0.021185103803873
-0.0307609513401985
-0.0390524826943874
-0.045729961246252
-0.0506160072982311
-0.0536868050694465
-0.0550634190440177
-0.0549929030239582
-0.0538136512041091
-0.0519083626568317
-0.0496548227965831
-0.0473832599818706
-0.0453441739082336
-0.0436866767704486
-0.0424511134624481
-0.041583102196455
-0.0409647598862648
-0.040447749197483
-0.0398781970143318
-0.039114274084568
-0.0380378849804401
-0.0365602746605873
-0.0346270948648452
-0.0322266481816768
-0.0293950922787189
-0.0262136124074459
-0.0227988436818122
-0.0192872527986764
-0.0158147364854812
-0.0124969789758324
-0.0094181085005402
-0.0066299848258495
-0.0041560111567378
-0.0019944133237004
-0.0001227501779794
0.0014947582967579
0.002896468155086
0.0041032568551599
0.0050865542143583
0.0057404660619795
0.0058814669027924
0.0052820858545601
0.0037284232676029
0.0010851412080228
-0.0026531692128628
-0.0073397923260927
-0.0126833012327551
-0.018278781324625
-0.0236587207764387
-0.0283576510846614
-0.0319757163524627
-0.0342231467366218
-0.0349398404359817
-0.0340956039726734
-0.0317812860012054
-0.0281981937587261
-0.0236416533589363
-0.0184727609157562
-0.0130800735205411
-0.0078372061252594
-0.0030637253075838
0.0010052360594272
0.0042357575148344
0.0065958146005868
0.0081438468769192
0.0090096881613135
0.0093712713569402
0.0094319256022572
0.0094025107100605
0.0094875758513808
0.0098688779398798
0.0106848431751132
0.0120142586529254
0.0138702346011996
0.0162064731121063
0.0189347863197326
0.0219462588429451
0.0251287557184696
0.0283768326044082
0.0315926261246204
0.0346819795668125
0.0375514291226863
0.0401089265942573
0.0422691889107227
0.0439611189067363
0.0451327115297317
0.0457484051585197
0.0457764789462089
0.0451725423336029
0.0438666567206382
0.0417593196034431
0.0387337654829025
0.0346862897276878
0.0295660067349672
0.0234134532511234
0.0163861606270074
0.0087603377178311
0.0009074555709958
-0.0067455824464559
-0.0137630049139261
-0.019745722413063
-0.0243703536689281
-0.0274207219481468
-0.028809554874897
-0.0285844653844833
-0.0269164405763149
-0.0240732878446578
-0.0203827954828739
-0.0161939356476068
-0.0118425823748111
-0.0076243355870246
-0.0037737600505352
-0.0004485491663217
0.0022788597270846
0.0044182240962982
0.0060469741001725
0.0072896881029009
0.0082976138219237
0.0092274900525808
0.0102180149406194
0.0113697499036788
0.0127344373613595
0.014313718304038
0.0160654727369546
0.0179160106927156
0.0197752024978399
0.0215517058968544
0.0231654718518257
0.024555092677474
0.0256799012422561
0.0265180598944425
0.0270634219050407
0.0273243598639965
0.0273234155029058
0.0270927287638187
0.0266661737114191
0.0260761193931102
0.0253552142530679
0.0245350804179906
0.0236365348100662
0.0226496253162622
0.0215084925293922
0.0200766921043396
0.0181561987847089
0.0155227510258555
0.0119799217209219
0.0074145691469311
0.0018375040963292
-0.004596946761012
-0.0115956179797649
-0.0187596511095762
-0.0256403479725122
-0.031796857714653
-0.0368396453559398
-0.0404621958732605
-0.0424663797020912
-0.0427783951163291
-0.0414522923529148
-0.0386622697114944
-0.0346847064793109
-0.0298685505986213
-0.0245948731899261
-0.0192341934889554
-0.0141125228255987
-0.0094894161447882
-0.0055452827364206
-0.0023773713037371
-4.652887582778931e-06
0.0016230139881372
0.0026137111708521
0.0031158793717622
0.0032955622300505
0.0033171661198139
0.003330947831273
0.003463014960289
0.0038049323484301
0.0044047385454177
0.0052631665021181
0.0063373679295182
0.0075497599318623
0.0087987761944532
0.009971834719181
0.0109578259289264
0.0116553027182817
0.0119781754910945
0.0118620675057172
0.0112731978297233
0.0102182030677795
0.0087480321526527
0.0069519970566034
0.0049435868859291
0.0028405860066413
0.0007430259138345
-0.0012901611626148
-0.0032656267285346
-0.0052719749510288
-0.0074739512056112
-0.0100809093564748
-0.0133016025647521
-0.0172983836382627
-0.0221436507999897
-0.0277846958488225
-0.0340312719345092
-0.0405717119574546
-0.0470113418996334
-0.0529238879680633
-0.0579051375389099
-0.0616187080740928
-0.0638294443488121
-0.0644250363111496
-0.0634257942438125
-0.0609780699014663
-0.0573291555047035
-0.0527915842831134
-0.0477096140384674
-0.0424308627843856
-0.037276268005371
-0.0325077734887599
-0.028300754725933
-0.0247268639504909
-0.0217532087117433
-0.0192604325711727
-0.0170721933245658
-0.0149879846721887
-0.0128164645284414
-0.0104033611714839
-0.0076471175998449
-0.0045021101832389
-0.0009743031114339
0.0028854124248027
0.0069862250238657
0.0112023586407303
0.0153857823461294
0.0193877276033163
0.023080164566636
0.0263693872839212
0.0292020123451948
0.0315666981041431
0.0334875211119651
0.0350090190768241
0.0361849665641784
0.0370752811431884
0.0377435646951198
0.0382507964968681
0.0386473126709461
0.0389626622200012
0.0391868576407432
0.0392462350428104
0.0389920100569725
0.0382148809731006
0.036685150116682
0.0342081487178802
0.0306792296469211
0.0261248461902141
0.0207201428711414
0.0147746969014406
0.0086881034076213
0.0028898138552904
-0.0022209268063306
-0.0063226427882909
-0.0092008728533983
-0.010761896148324
-0.0110356397926807
-0.0101680066436529
-0.0083989482372999
-0.0060274023562669
-0.0033691301941871
-0.0007130689918994
0.0017141699790954
0.0037678070366382
0.0053900610655546
0.0066034011542797
0.0074936226010322
0.0081867147237062
0.0088254762813448
0.0095513900741934
0.0104903699830174
0.0117397913709282
0.0133575843647122
0.0153552833944559
0.0176990088075399
0.0203174035996198
0.0231104679405689
0.0259583685547113
0.0287322327494621
0.0313056781888008
0.0335654765367507
0.0354209616780281
0.0368115678429603
0.0377119705080986
0.0381332300603389
0.038118652999401
0.0377377048134803
0.0370806828141212
0.0362502969801425
0.0353487506508827
0.0344672575592994
0.0336825884878635
0.0330539606511592
0.0326068848371505
0.0323008708655834
0.0319963991641998
0.0314445868134498
0.0303139947354793
0.0282489731907844
0.024939963594079
0.0201887153089046
0.0139566045254468
0.006387548521161
-0.0021987874060869
-0.0113473823294043
-0.0205360483378171
-0.0292479991912841
-0.0370289832353591
-0.0435256734490394
-0.0485067889094352
-0.0518685653805732
-0.0536275953054428
-0.0539043694734573
-0.0528989806771278
-0.0508615784347057
-0.0480655282735824
-0.04478769749403
-0.0412913896143436
-0.037808209657669
-0.0345206707715988
-0.0315501615405082
-0.0289552845060825
-0.0267414301633834
-0.0248758066445589
-0.0233017280697822
-0.021950751543045
-0.0207521561533212
-0.0196373611688613
-0.0185415055602788
-0.017409386113286
-0.0162037201225757
-0.0149063989520072
-0.0135143715888261
-0.0120386183261871
-0.0105046341195702
-0.0089475382119417
-0.0074052405543625
-0.0059176469221711
-0.0045286174863576
-0.0032832147553563
-0.002220875583589
-0.0013685273006558
-0.0007363241165876
-0.000317545607686
-9.0806744992733e-05
-2.24187970161438e-05
-7.127132266759872e-05
-0.0001966524869203
-0.0003664074465632
-0.0005673170089721
-0.0008204486221075
-0.0012012356892228
-0.0018591489642858
-0.0030205501243472
-0.0049593732692301
-0.0079409936442971
-0.0121569521725177
-0.0176657885313034
-0.0243537817150354
-0.0319264344871044
-0.0399349555373191
-0.0478332117199897
-0.055049393326044
-0.0610550642013549
-0.0654240548610687
-0.0678775757551193
-0.0683069452643394
-0.0667675584554672
-0.0634555518627166
-0.0586820766329765
-0.0528414882719516
-0.0463666468858718
-0.0396773740649223
-0.0331341475248336
-0.0270059667527675
-0.0214544981718063
-0.016534075140953
-0.0122069120407104
-0.0083660781383514
-0.0048591420054435
-0.0015129521489143
0.0018398165702819
0.005337368696928
0.0090754218399524
0.0131022669374942
0.0174154546111822
0.0219611953943967
0.0266418009996414
0.0313308089971542
0.0358917564153671
0.0401942729949951
0.0441238693892955
0.0475880280137062
0.0505213811993598
0.0528889186680316
0.0546842291951179
0.0559209175407886
0.0566202029585838
0.0568042062222957
0.0564994663000106
0.0557405948638916
0.0545667745172977
0.0530182234942913
0.0511386953294277
0.0489813089370727
0.0466093756258487
0.0440827086567878
0.0414294973015785
0.0386148504912853
0.0355222262442112
0.0319621041417121
0.0277104545384645
0.022566957399249
0.0164175052195787
0.0092853754758834
0.0013567917048931
-0.0070290826261043
-0.0154216289520263
-0.0233149826526641
-0.0302077084779739
-0.0356604047119617
-0.0393425561487674
-0.0410614609718322
-0.040772695094347
-0.0385781899094581
-0.0347147546708583
-0.0295284166932106
-0.0234355181455612
-0.0168777108192443
-0.0102758221328258
-0.0039874278008937
0.0017267018556594
0.0067194141447544
0.0109531171619892
0.014483205974102
0.017437607049942
0.0199937615543603
0.0223527681082487
0.0247112642973661
0.0272340215742588
0.0300320591777563
0.0331497266888618
0.0365616343915462
0.0401799418032169
0.0438721626996994
0.0474832653999328
0.0508554205298423
0.0538467057049274
0.0563449934124946
0.0582721903920173
0.0595873743295669
0.0602917075157165
0.0604271963238716
0.0600686743855476
0.0593149177730083
0.0582810826599597
0.0570898652076721
0.0558598935604095
0.0546941198408603
0.0536721423268318
0.0528467744588851
0.0522398576140403
0.0518320463597774
0.0515461191534996
0.0512245967984199
0.0506097078323364
0.0493488907814025
0.0470420569181442
0.0433182455599308
0.0379160232841968
0.0307497661560773
0.0219512619078159
0.0118773356080055
0.0010771937668323
-0.0097763948142528
-0.0199764519929885
-0.0288735795766115
-0.0359531827270984
-0.0408870205283165
-0.043558944016695
-0.0440664999186992
-0.0426971465349197
-0.0398835055530071
-0.036145981401205
-0.0320291072130203
-0.0280390121042728
-0.0245905369520187
-0.0219698771834373
-0.0203157700598239
-0.0196196772158145
-0.0197403617203235
-0.0204276107251644
-0.0213547796010971
-0.0221605226397514
-0.0224968157708644
-0.022077452391386
-0.0207217708230018
-0.0183858163654804
-0.0151684284210205
-0.0112896524369716
-0.007051508873701
-0.0027910098433494
0.0011653527617454
0.0045364052057266
0.0071062520146369
0.0087317675352096
0.0093438401818275
0.0089446827769279
0.0076010599732398
0.0054352954030036
0.0026134178042411
-0.0006718263030052
-0.0042224302887916
-0.0078589543700218
-0.0114400833845138
-0.014870211482048
-0.0180964544415473
-0.0211054757237434
-0.02393089979887
-0.0266739875078201
-0.0295231230556964
-0.032747808843851
-0.0366575494408607
-0.0415356904268264
-0.0475652478635311
-0.0547670945525169
-0.0629678443074226
-0.0718034207820892
-0.0807590410113334
-0.0892395004630088
-0.096648521721363
-0.102457508444786
-0.1062593534588813
-0.1078059673309326
-0.1070230454206466
-0.1040003448724746
-0.0989659130573272
-0.0922513529658317
-0.0842488259077072
-0.0753637701272964
-0.0659736320376396
-0.0563999749720096
-0.0468919798731803
-0.0376183912158012
-0.0286736898124218
-0.0200997572392225
-0.0119074620306491
-0.0040862932801246
0.0033887811005115
0.0105422474443912
0.0173792317509651
0.0238717403262853
0.029953621327877
0.0355257242918014
0.0404696762561798
0.0446653217077255
0.0480077937245368
0.0504206120967865
0.051864318549633
0.0523429289460182
0.0519038289785385
0.0506263524293899
0.0486068949103355
0.0459503978490829
0.0427683517336845
0.0391777865588665
0.0352979302406311
0.0312459953129291
0.0271309353411197
0.0230369642376899
0.0189931616187095
0.0149407535791397
0.010720171034336
0.0060945525765419
0.0008082203567028
-0.0053394343703985
-0.0124317370355129
-0.0203986745327711
-0.0290048047900199
-0.0378599949181079
-0.0464565642178058
-0.0542286410927772
-0.0606212839484214
-0.0651576146483421
-0.0674945786595344
-0.0674604177474975
-0.0650727450847625
-0.0605395920574665
-0.0542433485388755
-0.0467055439949035
-0.0385319553315639
-0.0303427688777446
-0.0227029547095298
-0.0160682890564203
-0.010748516768217
-0.0068871383555233
-0.0044619292020797
-0.0033048521727323
-0.0031363228335976
-0.0036096163094043
-0.0043595507740974
-0.0050471238791942
-0.005393823608756
-0.0052025932818651
-0.0043644271790981
-0.002854835242033
-0.0007241778075695
0.0019189920276403
0.0049265027046203
0.0081243105232715
0.0113271027803421
0.0143599603325128
0.0170812793076038
0.0193981975317001
0.021271513774991
0.0227122753858566
0.02377275750041
0.0245331805199384
0.0250861197710037
0.0255178231745958
0.0258812345564365
0.0261624623090028
0.0262561962008476
0.0259677078574895
0.0250463597476482
0.0232421942055225
0.0203698072582483
0.0163616687059402
0.0113012678921222
0.0054339356720447
-0.0008484348654747
-0.0070494785904884
-0.0126295499503612
-0.0170752443373203
-0.0199652314186096
-0.0210217013955116
-0.0201408378779888
-0.0173997804522514
-0.0130418129265308
-0.0074427500367164
-0.0010661371052265
0.005584891885519
0.0120206288993358
0.0178200379014015
0.0226742774248123
0.0264114141464233
0.0290040485560894
0.0305605269968509
0.0313019230961799
0.0315300561487674
0.0315892212092876
0.0318254120647907
0.0325468145310878
0.0339874364435672
0.0362800508737564
0.0394458174705505
0.0433989055454731
0.0479595065116882
0.052874494343996
0.0578479506075382
0.0625784769654274
0.0667948648333549
0.0702839121222496
0.0729090943932533
0.0746183544397354
0.0754352435469627
0.0754293724894523
0.0746706798672676
0.073180615901947
0.0708983317017555
0.0676773339509964
0.0633159279823303
0.0576105862855911
0.050419095903635
0.041723109781742
0.0316745452582836
0.0206105187535285
0.0090329330414533
-0.0024427194148302
-0.0131602175533771
-0.0225020945072174
-0.0299627352505922
-0.0352071300148963
-0.0381052270531654
-0.0387351922690868
-0.0373587198555469
-0.0343757942318916
-0.0302686411887407
-0.0255481079220771
-0.0207069478929042
-0.0161752216517925
-0.0122798662632703
-0.0092174662277102
-0.0070478627458214
-0.0057090083137154
-0.0050437990576028
-0.0048298304900527
-0.0048112664371728
-0.0047344081103801
-0.0043845912441611
-0.0036163860931992
-0.0023673400282859
-0.0006522890180349
0.0014545177109539
0.0038391386624425
0.0063655185513198
0.0088920071721076
0.0112867187708616
0.0134391356259584
0.0152675025165081
0.0167247243225574
0.0178008005023002
0.0185141861438751
0.018885888159275
0.0189003460109233
0.0184703394770622
0.0174248255789279
0.015531220473349
0.0125513216480612
0.0083132609724998
0.0027734758332371
-0.0039491103962063
-0.0115700345486402
-0.0196641013026237
-0.0277134757488966
-0.0351708717644214
-0.0415239781141281
-0.0463491231203079
-0.0493526309728622
-0.0504016503691673
-0.0495397113263607
-0.046979933977127
-0.043074794113636
-0.0382678136229515
-0.0330355763435363
-0.0278322547674179
-0.0230473242700099
-0.0189751740545034
-0.0157918874174356
-0.0135441413149237
-0.0121561009436845
-0.0114522147923707
-0.0111909443512558
-0.0111041460186243
-0.0109360618516802
-0.0104761458933353
-0.0095807975158095
-0.0081819742918014
-0.0062836068682372
-0.0039489259943366
-0.0012839222326874
0.0015795417129993
0.0044994642958045
0.0073357662186026
0.0099591612815856
0.0122602060437202
0.0141582349315285
0.0156058929860591
0.0165807493031024
0.0170558299869298
0.0169572792947292
0.0161362402141094
0.0143775045871734
0.0114451125264167
0.0071499496698379
0.0014203395694494
-0.0056438837200403
-0.013751296326518
-0.0224427431821823
-0.0311521328985691
-0.0392825007438659
-0.0462780594825744
-0.0516827665269374
-0.0551816523075103
-0.05662452429533
-0.0560330972075462
-0.0535931885242462
-0.049632728099823
-0.0445831045508384
-0.0389258414506912
-0.0331358797848224
-0.0276320911943912
-0.0227373968809843
-0.0186506733298301
-0.0154396500438451
-0.0130572998896241
-0.0113689275458455
-0.0101791387423872
-0.0092586120590567
-0.0083729475736618
-0.0073123751208186
-0.0059157572686672
-0.0040835440158843
-0.0017821621149778
0.0009566899389028
0.0040451530367136
0.0073602246120572
0.0107690915465354
0.0141479512676596
0.017393747344613
0.020429540425539
0.0231992397457361
0.0256551466882228
0.0277439318597316
0.029387954622507
0.0304626338183879
0.0307827293872833
0.0301145575940608
0.0282190218567848
0.0249130763113498
0.0201335027813911
0.0139866936951875
0.0067667560651898
-0.0010660551488399
-0.0089379334822297
-0.0162294767796993
-0.0223524123430252
-0.0268268659710884
-0.0293371770530939
-0.0297564435750246
-0.028148166835308
-0.0247498005628585
-0.0199391189962625
-0.0141880363225936
-0.0080075338482856
-0.0018878709524869
0.0037558134645223
0.008622208610177
0.012543330900371
0.015485999174416
0.0175397247076034
0.0188931766897439
0.0197970326989889
0.0205187574028968
0.0213027745485305
0.0223432090133428
0.0237671174108982
0.0256258118897676
0.027895763516426
0.0304900296032428
0.0332766659557819
0.0360996574163436
0.0388014204800128
0.0412446521222591
0.0433274433016777
0.0449883714318275
0.0462034046649932
0.0469791963696479
0.0473425015807151
0.0473187491297721
0.0468983389437198
0.0460014678537845
0.0444591380655765
0.0420234873890876
0.0384077988564968
0.033351257443428
0.0266978684812784
0.0184683632105588
0.0089009655639529
-0.0015549154486507
-0.0122917331755161
-0.022625645622611
-0.0318832695484161
-0.0394780971109867
-0.0449724122881889
-0.0481210462749004
-0.0488907769322395
-0.0474532507359981
-0.044154118746519
-0.0394642278552055
-0.0339204370975494
-0.0280624739825725
-0.0223732702434062
-0.0172296464443206
-0.0128691345453262
-0.0093807680532336
-0.0067197401076555
-0.0047353086993098
-0.0032031247392296
-0.0018605347722768
-0.0004474003799259
0.0012537227012217
0.0033910772763192
0.0060330303385853
0.009167443960905
0.0127082932740449
0.0165101941674947
0.0203900802880525
0.0241501107811927
0.0275963265448808
0.0305531416088342
0.0328759178519248
0.0344617962837219
0.0352591685950756
0.0352767407894134
0.0345868915319442
0.0333148315548896
0.0316154807806015
0.0296483114361763
0.0275541730225086
0.0254305899143219
0.0233027096837759
0.0210973396897315
0.0186380688101053
0.0156741850078105
0.0119385886937379
0.0072177480906248
0.0014157555997371
-0.0054000094532966
-0.0129816457629203
-0.0209178999066352
-0.0286818910390138
-0.0357031151652336
-0.0414526090025901
-0.0455171763896942
-0.047645378857851
-0.0477659404277801
-0.0459846779704093
-0.042566031217575
-0.0379001945257186
-0.0324552655220031
-0.0267213489860296
-0.0211556404829025
-0.0161353386938571
-0.0119235664606094
-0.0086504006758332
-0.0063107423484325
-0.0047812685370445
-0.0038546286523342
-0.0032811667770147
-0.0028066541999578
-0.0022018663585186
-0.0012834835797548
7.332302629947662e-05
0.001928387209773
0.0042764656245708
0.007055751979351
0.0101644247770309
0.0134811643511056
0.0168838761746883
0.0202619731426239
0.0235199760645627
0.0265757851302623
0.0293606333434581
0.0318193733692169
0.0339066497981548
0.0355845242738723
0.0368267595767974
0.0376239269971847
0.037982877343893
0.0379209853708744
0.03745624050498
0.0365914851427078
0.0352927483618259
0.0334671698510646
0.03095144033432
0.0275232940912246
0.0229422003030776
0.0170143209397792
0.0096631869673728
0.0009787939488887
-0.0087707228958606
-0.0191604234278202
-0.0296558793634176
-0.0396792776882648
-0.0486785173416137
-0.0561868362128734
-0.0618696548044681
-0.0655546933412551
-0.0672424957156181
-0.0670988857746124
-0.0654303133487701
-0.0626424551010131
-0.0591872036457061
-0.0555070117115974
-0.0519838333129882
-0.0489025078713893
-0.0464361831545829
-0.0446482487022876
-0.0435025990009307
-0.042881429195404
-0.0426100865006446
-0.0424852222204208
-0.0423017144203186
-0.041875634342432
-0.0410616658627986
-0.0397633798420429
-0.0379357002675533
-0.0355802178382873
-0.0327365696430206
-0.0294729825109243
-0.0258763693273067
-0.022046785801649
-0.0180980917066335
-0.0141535485163331
-0.0103318467736244
-0.006732546724379
-0.0034260172396898
-0.0004470571875572
0.0022067613899707
0.0045695202425122
0.0066950423642992
0.0086388662457466
0.0104310270398855
0.0120438337326049
0.0133675131946802
0.0142073603346943
0.0143110770732164
0.0134213818237185
0.011338978074491
0.0079818898811936
0.003426503855735
-0.0020817476324737
-0.0081486850976943
-0.0142769562080502
-0.0199293456971645
-0.0245977211743593
-0.0278654713183641
-0.0294553376734256
-0.0292569808661937
-0.0273312553763389
-0.0238916538655757
-0.0192689690738916
-0.0138688143342733
-0.0081286616623401
-0.0024734772741794
0.0027294401079416
0.0072073023766279
0.0108033847063779
0.0134819773957133
0.0153172304853796
0.0164703428745269
0.0171606075018644
0.0176317375153303
0.0181157980114221
0.0188033729791641
0.0198264010250568
0.0212518908083438
0.0230807997286319
0.0252460353076457
0.0276104845106601
0.0299755800515413
0.0321104452013969
0.0337993130087852
0.0348891168832778
0.03531976044178
0.0351333990693092
0.034465242177248
0.0335191823542118
0.032533373683691
0.03174339979887
0.0313501544296741
0.0314961113035678
0.0322505235671997
0.0336045771837234
0.0354748032987117
0.0377016887068748
0.0400374867022037
0.0421417690813541
0.0436042919754982
0.0439956039190292
0.0429342240095138
0.0401571728289127
0.0355797968804836
0.0293316263705492
0.0217583831399679
0.0133852176368236
0.0048476438969373
-0.0031928606331348
-0.0101328436285257
-0.0154965091496706
-0.0189784877002239
-0.0204613450914621
-0.0200178679078817
-0.0178958345204591
-0.014478551223874
-0.0102282427251338
-0.0056254900991916
-0.0011148229241371
0.0029357206076383
0.0062593072652816
0.0087032793089747
0.0102328583598136
0.010924712754786
0.010947136208415
0.01052778493613
0.0099179148674011
0.0093597592785954
0.0090567776933312
0.0091484487056732
0.0096969762817025
0.010690676048398
0.0120604177936911
0.0137005504220724
0.0154866520315408
0.0172881856560707
0.0189785994589328
0.0204464253038167
0.0216081514954566
0.0224173106253147
0.0228637345135211
0.0229641757905483
0.0227516386657953
0.0222679302096366
0.0215548239648342
0.020638907328248
0.0195109900087118
0.0181023143231868
0.0162660162895917
0.0137798245996236
0.0103795919567346
0.0058185094967484
-6.382912397384644e-05
-0.0072829839773476
-0.015677748247981
-0.0249096862971782
-0.0344927161931991
-0.0438483506441116
-0.0523766726255416
-0.0595287270843982
-0.0648694038391113
-0.0681253522634506
-0.0692105740308761
-0.0682231709361076
-0.0654153823852539
-0.0611493289470672
-0.0558517687022686
-0.0499694310128688
-0.0439238473773002
-0.038073606789112
-0.0326896123588085
-0.0279403999447822
-0.0238870698958635
-0.0204933732748031
-0.0176487918943166
-0.0151927657425403
-0.0129390247166156
-0.0107049047946929
-0.0083373403176665
-0.0057263737544417
-0.0028098002076148
0.0004261322319507
0.0039522079750895
0.0077073047868907
0.0116080921143293
0.015555964782834
0.0194443762302398
0.0231669768691062
0.0266251116991043
0.0297338776290416
0.0324287377297878
0.034672375768423
0.0364552289247512
0.0377875193953514
0.0386912822723388
0.0392000004649162
0.0393607765436172
0.0392255038022995
0.0388253629207611
0.0381376482546329
0.0370601788163185
0.0354074575006961
0.0329378098249435
0.0294086094945669
0.0246433801949024
0.0185915939509868
0.0113689806312322
0.0032703932374715
-0.0052536446601152
-0.0136572597548365
-0.0213785432279109
-0.0279141943901777
-0.0328753143548965
-0.0360200554132461
-0.0372648499906063
-0.0366785190999507
-0.0344639495015144
-0.0309298131614923
-0.0264528635889291
-0.0214360132813453
-0.0162695068866014
-0.0112960711121559
-0.0067785801365971
-0.0028771618381142
0.0003522703191265
0.0029381504282355
0.0049665551632642
0.0065583358518779
0.0078502325341105
0.0089779896661639
0.0100598214194178
0.0111823566257953
0.0123951015993952
0.0137119907885789
0.0151147516444325
0.0165587365627288
0.017982417717576
0.0193170253187418
0.0204922799021005
0.0214405320584774
0.0221026241779327
0.0224328748881816
0.0224014148116111
0.021995173767209
0.0212168917059898
0.0200816430151462
0.0186147186905145
0.0168542582541704
0.0148552637547254
0.012684216722846
0.0103936055675148
0.0079806027933955
0.0053512975573539
0.0023127272725105
-0.0013988316059112
-0.0060607912018895
-0.0118964593857526
-0.0190113559365272
-0.0273408629000186
-0.036622367799282
-0.0464067012071609
-0.056108184158802
-0.0650803819298744
-0.0727020725607872
-0.078455202281475
-0.0819795355200767
-0.083101563155651
-0.0818419530987739
-0.0784036293625831
-0.073143370449543
-0.0665289685130119
-0.0590830892324447
-0.0513238385319709
-0.0437154695391655
-0.0366310514509677
-0.0303254052996635
-0.0249218121170997
-0.0204142928123474
-0.0166849475353956
-0.0135337729007005
-0.0107137411832809
-0.0079660192131996
-0.0050547402352094
-0.0017945393919944
0.0019359365105628
0.0061892811208963
0.0109496042132377
0.0161411482840776
0.0216396450996398
0.0272809471935033
0.032875869423151
0.0382357947528362
0.0431984178721904
0.0476425699889659
0.0514906495809555
0.0547046661376953
0.057281132787466
0.0592470318078994
0.0606569647789001
0.0615867525339126
0.0621213875710964
0.0623394548892974
0.0622930787503719
0.0619802251458168
0.0613097324967384
0.0600752085447311
0.0579646825790405
0.0546148680150508
0.0496967621147632
0.0430092327296733
0.0345533862709999
0.0245689321309328
0.0135245025157928
0.0020617563277482
-0.009091081097722
-0.0192117728292942
-0.0276645515114069
-0.0339612066745758
-0.0378022231161594
-0.0390980318188667
-0.0379722341895103
-0.0347463488578796
-0.0298997461795806
-0.0240076724439859
-0.0176718458533287
-0.0114558124914765
-0.0058306604623794
-0.0011340081691741
0.0024558743461966
0.0049265907146036
0.0064134881831705
0.0071609779261052
0.0074751339852809
0.0076748020946979
0.0080475322902202
0.008819100446999
0.0101355109363794
0.01205250993371
0.0145369693636894
0.0174822770059108
0.0207316912710666
0.024104256182909
0.0274199433624744
0.0305199883878231
0.0332793295383453
0.0356121733784675
0.0374714955687522
0.0388422906398773
0.0397332161664962
0.0401716418564319
0.0402011051774024
0.0398764535784721
0.039254393428564
0.0383836328983306
0.0372994504868984
0.0360179990530014
0.0345192663371562
0.0327186957001686
0.0304461382329463
0.0274549461901187
0.0234666150063276
0.0182378198951482
0.0116330161690711
0.0036835521459579
-0.0053857415914535
-0.0151679851114749
-0.0251161828637123
-0.0346070528030395
-0.0430202335119247
-0.0498203858733177
-0.0546223260462284
-0.057227499783039
-0.0576353520154953
-0.0560334250330925
-0.0527658089995384
-0.0482864789664745
-0.0431061275303363
-0.037737138569355
-0.0326437652111053
-0.0282031707465648
-0.0246763303875923
-0.0221886225044727
-0.0207227170467376
-0.0201298631727695
-0.0201653093099594
-0.0205395705997943
-0.020967599004507
-0.0212083347141742
-0.0210950039327144
-0.0205509550869464
-0.019584733992815
-0.0182668305933475
-0.016698682680726
-0.0149858053773641
-0.0132212601602077
-0.0114779695868492
-0.0098044816404581
-0.0082217045128345
-0.0067234169691801
-0.0052822921425104
-0.0038624573498964
-0.0024363677948713
-0.0009944792836904
0.0004564113914966
0.0018968489021062
0.0032958760857582
0.0046107284724712
0.0057804752141237
0.0067094080150127
0.0072484090924263
0.007189517840743
0.0062832497060298
0.004278939217329
0.0009800419211387
-0.0036972034722566
-0.0096762124449014
-0.0167033541947603
-0.024370290338993
-0.0321617648005485
-0.0395133607089519
-0.0458731353282928
-0.0507633239030838
-0.0538352876901626
-0.0549059547483921
-0.053968422114849
-0.0511831790208816
-0.0468562506139278
-0.0414012297987937
-0.0352877937257289
-0.0289872325956821
-0.0229223929345607
-0.017426960170269
-0.0127189941704273
-0.0088920257985591
-0.005921330768615
-0.0036807600408792
-0.0019699947442859
-0.0005501145496964
0.0008186805061995
0.0023420392535626
0.0041651218198239
0.0063609527423977
0.0089344810694456
0.0118373287841677
0.0149835925549268
0.0182620994746685
0.0215513277798891
0.0247388873249292
0.0277341455221176
0.0304681304842233
0.0328897610306739
0.0349647626280784
0.0366744846105575
0.0380146950483322
0.0389967486262321
0.039649199694395
0.040016546845436
0.0401532724499702
0.040112666785717
0.0399262458086013
0.039570715278387
0.0389372967183589
0.03782819211483
0.0359889082610607
0.0331638865172863
0.0291563831269741
0.0238809045404195
0.017403420060873
0.0099605657160282
0.0019472218118607
-0.0061280084773898
-0.0137084955349564
-0.0202627424150705
-0.0253530368208885
-0.0286882817745208
-0.0301525257527828
-0.0298078786581754
-0.0278768185526132
-0.0247106105089187
-0.0207479149103164
-0.0164685603231191
-0.0123488865792751
-0.0088186189532279
-0.0062175835482776
-0.004756991751492
-0.0044931806623935
-0.0053231879137456
-0.0070079020224511
-0.0092162825167179
-0.0115788392722606
-0.0137405563145875
-0.0154030099511146
-0.0163496136665344
-0.0164563208818435
-0.0156897567212581
-0.0140917031094431
-0.0117571912705898
-0.0088172545656561
-0.0054256338626146
-0.0017447173595428
0.0020678611472249
0.0058707809075713
0.0095470724627375
0.0130050769075751
0.0161748975515365
0.0190056394785642
0.0214626584202051
0.0235222708433866
0.0251633115112781
0.0263525247573852
0.0270214956253767
0.027043730020523
0.0262284278869628
0.0243439637124538
0.0211728420108556
0.016582740470767
0.0105882072821259
0.0033848998136818
-0.0046494528651237
-0.0129858925938606
-0.0210007391870021
-0.0280489902943372
-0.0335450917482376
-0.0370380543172359
-0.03826754540205
-0.0371933914721012
-0.0339928641915321
-0.0290269926190376
-0.0227931719273328
-0.0158764217048883
-0.0088921152055263
-0.0024181623011827
0.0030704606324434
0.0072519918903708
0.0099845780059695
0.0113062607124447
0.0114108305424451
0.010604771785438
0.00925381667912
0.0077292853966355
0.0063637718558311
0.0054217763245105
0.0050842333585023
0.0054435152560472
0.0065030604600906
0.0081800390034914
0.0103204324841499
0.0127298161387443
0.0152101730927824
0.0175922140479087
0.0197559688240289
0.0216373894363641
0.0232225358486175
0.0245334990322589
0.0256131291389465
0.0265075005590915
0.027234423905611
0.0277388263493776
0.0278597436845302
0.0273313429206609
0.025817684829235
0.0229742228984832
0.0185301732271909
0.0123723819851875
0.0046035489067435
-0.004441849887371
-0.014225909486413
-0.0240723975002765
-0.0332568325102329
-0.0411051735281944
-0.0470784083008766
-0.0508246533572673
-0.0521983504295349
-0.0512575395405292
-0.0482440255582332
-0.0435464009642601
-0.0376534685492515
-0.0311029087752103
-0.024421464651823
-0.0180634092539548
-0.0123629122972488
-0.0075073894113302
-0.0035309493541717
-0.0003263894468545
0.0023242253810167
0.0047037787735462
0.0071086268872022
0.0098021831363439
0.0129813086241483
0.0167579893022775
0.0211553238332271
0.026116207242012
0.0315164700150489
0.0371752083301544
0.0428684540092945
0.0483516156673431
0.0533864423632621
0.0577666908502578
0.0613360293209552
0.0639935210347175
0.0656892582774162
0.0664157271385192
0.0661959499120712
0.0650640428066253
0.0630342587828636
0.0600683577358722
0.0560671836137771
0.0509019307792186
0.0444725267589092
0.0367706939578056
0.0279337130486965
0.0182752814143896
0.0082777114585042
-0.0014557128306478
-0.0102740749716758
-0.0175620131194591
