bvp
-0.0284528117626905
-0.0268543995916843
-0.0258040055632591
-0.0252993404865264
-0.0252257771790027
-0.0253836903721094
-0.0255410354584455
-0.0254880860447883
-0.0250753257423639
-0.0242286063730716
-0.0229408368468284
-0.0212497878819704
-0.0192170888185501
-0.0169129893183708
-0.0144057795405387
-0.0117564145475626
-0.0090149110183119
-0.0062143020331859
-0.0033654207363724
-0.0004597920924425
0.0025175968185067
0.0055736247450113
0.0087024485692381
0.0118937864899635
0.0151414014399051
0.0184414461255073
0.021787866950035
0.0251716300845146
0.0285796914249658
0.0319900922477245
0.0353606566786766
0.0386121571063995
0.0416156910359859
0.0441929772496223
0.0461310669779777
0.0472068488597869
0.0472152829170227
0.0459996275603771
0.0434802249073982
0.0396767407655715
0.0347206182777881
0.0288508664816617
0.0223910845816135
0.0157173704355955
0.0092245656996965
0.0032917391508817
-0.0017522256821393
-0.0056595411151647
-0.0082852449268102
-0.0095958523452281
-0.0096660871058702
-0.0086681842803955
-0.0068557560443878
-0.0045374985784292
-0.0020385887473821
0.0003409832715988
0.0023589376360177
0.003849608823657
0.0047306902706623
0.0049994681030511
0.004721388220787
0.0040161777287721
0.0030443090945482
0.0019911862909793
0.0010470747947692
0.0003865733742713
0.0001521036028861
0.0004411488771438
0.0012980680912733
0.0027136523276567
0.0046324785798788
0.0069651901721954
0.0095983501523733
0.012396709062159
0.0152056701481342
0.017864491790533
0.0202285069972276
0.0221896581351757
0.0236869975924491
0.0247053038328886
0.0252657365053892
0.0254150852560997
0.0252163410186767
0.0247391182929277
0.0240503549575805
0.023206865414977
0.0222497172653675
0.0211984850466251
0.0200413316488266
0.0187240671366453
0.0171511340886354
0.0152051514014601
0.0127793159335851
0.0098102055490016
0.0062999501824378
0.002326413989067
-0.0019579958170652
-0.0063426755368709
-0.010588102042675
-0.0144574902951717
-0.0177436955273151
-0.0202902853488922
-0.0220030732452869
-0.0228486787527799
-0.0228498913347721
-0.0220868922770023
-0.0206949990242719
-0.0188506860285997
-0.016750143840909
-0.0145842833444476
-0.012515471316874
-0.0106620891019701
-0.0090905465185642
-0.0078134723007678
-0.0067942142486572
-0.0059562940150499
-0.0051971729844808
-0.0044057946652174
-0.0034795748069882
-0.0023376019671559
-0.0009320154786109
0.0007441015914082
0.0026593971997499
0.0047567686997354
0.006967662833631
0.0092237330973148
0.0114651722833514
0.013646300882101
0.0157386660575866
0.0177289620041847
0.0196107104420661
0.021374724805355
0.0230037309229373
0.0244737360626459
0.0257621929049491
0.0268572494387626
0.0277598481625318
0.028477843850851
0.0290184300392866
0.029381763190031
0.0295542553067207
0.0295009799301624
0.0291572995483875
0.0284229703247547
0.0271670054644346
0.0252478141337633
0.0225423723459243
0.0189759023487567
0.0145475389435887
0.0093463491648435
0.0035513043403625
-0.0025864383205771
-0.0087745413184165
-0.0147157553583383
-0.0201413892209529
-0.0248353909701108
-0.0286465287208557
-0.0314915403723716
-0.0333542749285697
-0.0342840068042278
-0.034391239285469
-0.033835232257843
-0.0328013151884079
-0.0314741320908069
-0.0300164446234703
-0.0285590980201959
-0.0271980464458465
-0.0259905159473419
-0.0249515008181333
-0.0240561887621879
-0.023248691111803
-0.0224550068378448
-0.0215969048440456
-0.0206028278917074
-0.0194156728684902
-0.0179975070059299
-0.0163314305245876
-0.0144223049283027
-0.0122955571860075
-0.0099944369867444
-0.007577215321362
-0.0051133218221366
-0.0026768241077661
-0.000337918754667
0.0018411250784993
0.0038034906610846
0.0054983748123049
0.0068891602568328
0.0079626962542533
0.0087326876819133
0.0092361336573958
0.0095265517011284
0.009664749726653
0.0097068566828966
0.0096930721774697
0.0096379928290843
0.0095198210328817
0.009271228685975
0.0087814480066299
0.007914375513792
0.0065363114699721
0.0045455796644091
0.0019007325172424
-0.0013594022020697
-0.0051104044541716
-0.0091531164944171
-0.0132404100149869
-0.0171127188950777
-0.0205322466790676
-0.0233097728341817
-0.025318469852209
-0.02649518661201
-0.0268385224044322
-0.0264075919985771
-0.0253140237182378
-0.0237045101821422
-0.0217454079538583
-0.0196140892803668
-0.0174849424511194
-0.0155056519433856
-0.013775261119008
-0.01233462523669
-0.0111706759780645
-0.0102285966277122
-0.0094263851642608
-0.0086705330759286
-0.0078706508502364
-0.0069498503580689
-0.005850488319993
-0.0045355237089097
-0.0029868353158235
-0.001205570064485
0.0007834117859601
0.0029297154396772
0.0051648616790771
0.0074151093140244
0.0096120471134781
0.0116988075897097
0.0136319510638713
0.0153807662427425
0.0169285461306571
0.0182773545384407
0.0194529704749584
0.0205071158707141
0.0215135067701339
0.0225531551986932
0.0236918255686759
0.0249568317085504
0.0263120792806148
0.0276343449950218
0.0287105590105056
0.0292687434703111
0.0290305316448211
0.0277667976915836
0.0253451913595199
0.0217600241303443
0.0171378869563341
0.0117212468758225
0.0058384588919579
-0.0001327539794147
-0.0058052595704793
-0.0108229108154773
-0.0148961544036865
-0.0178283117711544
-0.0195319503545761
-0.0200343988835811
-0.0194687843322753
-0.0180508885532617
-0.0160455517470836
-0.0137293487787246
-0.0113587686792016
-0.0091467313468456
-0.007246843073517
-0.0057461867108941
-0.0046643186360597
-0.0039557320997118
-0.003518383949995
-0.0032103229314088
-0.0028718346729874
-0.0023512216284871
-0.0015299450606107
-0.0003385972231626
0.0012408941984176
0.0031825602054595
0.0054256916046142
0.0078840982168912
0.0104566076770424
0.0130375968292355
0.0155276171863079
0.0178442914038896
0.0199283100664615
0.0217411890625953
0.0232590362429618
0.0244699232280254
0.0253780242055654
0.0260066371411085
0.0263910740613937
0.0265667811036109
0.0265641640871763
0.0264115873724222
0.0261375363916158
0.0257600434124469
0.0252626463770866
0.0245725847780704
0.0235564038157463
0.0220364015549421
0.0198244899511337
0.0167669970542192
0.0127886310219764
0.0079218102619051
0.0023172497749328
-0.003764864988625
-0.0099894404411315
-0.0159988813102245
-0.0214601308107376
-0.0260962601751089
-0.0297064017504453
-0.0321759730577468
-0.0334782563149929
-0.0336679890751838
-0.0328671857714653
-0.0312477871775627
-0.0290141142904758
-0.0263841617852449
-0.0235718078911304
-0.0207707751542329
-0.0181368626654148
-0.0157689526677131
-0.0136999590322375
-0.0119070596992969
-0.0103329336270689
-0.0089038917794823
-0.0075410604476928
-0.0061680786311626
-0.0047186599113047
-0.0031440518796443
-0.0014174946118146
0.0004636812955141
0.0024738013744354
0.00455501396209
0.0066219018772244
0.0085761044174432
0.0103268604725599
0.0118106696754693
0.0129976477473974
0.0138812027871608
0.0144673306494951
0.0147736947983503
0.0148313017562031
0.0146846733987331
0.0143912592902779
0.0140156606212258
0.0136167388409376
0.0132367433980107
0.0129004549235105
0.0126207061111927
0.0124027468264102
0.0122435549274086
0.0121253533288836
0.0120028527453541
0.0117861256003379
0.0113317435607314
0.0104575706645846
0.0089796474203467
0.0067560598254203
0.0037236735224723
-8.036009967327118e-05
-0.0045147612690925
-0.0093484995886683
-0.0142900869250297
-0.0190250389277935
-0.0232571866363286
-0.0267469622194767
-0.0293357037007808
-0.030950903892517
-0.0315982401371002
-0.0313520245254039
-0.0303479060530662
-0.0287709012627601
-0.0268336161971092
-0.0247473958879709
-0.0226949732750654
-0.0208134930580854
-0.0191892273724079
-0.017857626080513
-0.016803815960884
-0.0159682743251323
-0.0152623169124126
-0.0145854447036981
-0.0138367041945457
-0.0129218064248561
-0.0117596145719289
-0.0102926157414913
-0.0085004307329654
-0.0064048874191939
-0.0040628849528729
-0.0015540730673819
0.0010329743381589
0.0036133464891463
0.0061139296740293
0.008477316237986
0.0106625538319349
0.0126431751996278
0.0144023671746253
0.0159268658608198
0.0172048509120941
0.0182316228747367
0.0190178882330656
0.0195882059633731
0.0199666060507297
0.0201623477041721
0.0201670080423355
0.0199607871472835
0.01952132768929
0.0188317187130451
0.0178841836750507
0.0166750643402338
0.0151908285915851
0.0133930454030632
0.0112169878557324
0.0085900798439979
0.0054602483287453
0.0018224627710878
-0.0022619385272264
-0.0066613378003239
-0.0111892130225896
-0.0156275145709514
-0.019749466329813
-0.023342914879322
-0.026231363415718
-0.0282888151705265
-0.0294486619532108
-0.0297054424881935
-0.0291094817221164
-0.0277585908770561
-0.0257910694926977
-0.0233812555670738
-0.020732332020998
-0.0180592313408851
-0.0155642703175544
-0.0134141091257333
-0.0117213316261768
-0.0105295646935701
-0.0098054483532905
-0.0094445412978529
-0.0092915911227464
-0.0091669512912631
-0.0088922465220093
-0.0083131939172744
-0.0073174098506569
-0.0058436905965209
-0.0038811229169368
-0.0014610951766371
0.0013521276414394
0.0044709555804729
0.0077953385189175
0.0112190134823322
0.0146273076534271
0.0178979132324457
0.0209136232733726
0.0235786475241184
0.0258304104208946
0.0276468060910701
0.02904599532485
0.0300775952637195
0.0308097042143344
0.0313143953680992
0.0316550359129905
0.031879935413599
0.0320213213562965
0.0320944376289844
0.0320927165448665
0.0319769531488418
0.0316629819571971
0.0310220699757337
0.0299040917307138
0.0281765740364789
0.0257631409913301
0.0226692389696836
0.0189903602004051
0.0149010783061385
0.010628655552864
0.0064209150150418
0.0025169521104544
-0.0008758644689805
-0.0035983421839773
-0.0055496403947472
-0.0066901985555887
-0.0070408154278993
-0.0066835735924541
-0.0057583255693316
-0.0044456040486693
-0.0029402468353509
-0.0014259985182434
-5.495594814419746e-05
0.0010685259476304
0.0018948814831674
0.0024249306879937
0.0027001700364053
0.0027903667651116
0.0027770730666816
0.0027388110756874
0.0027459478005766
0.0028616096824407
0.0031366301700472
0.0035970341414213
0.0042363880202174
0.0050200214609503
0.0058955419808626
0.0068029733374714
0.0076820496469736
0.0084779504686594
0.0091461185365915
0.0096533820033073
0.009976465255022
0.0101017858833074
0.0100255887955427
0.0097524486482143
0.0092938411980867
0.0086676944047212
0.0078945606946945
0.0069891605526208
0.005958005785942
0.0048083886504173
0.0035568196326494
0.0022275261580944
0.0008449386805295
-0.0005745664238929
-0.0020327046513557
-0.003563854843378
-0.0052482560276985
-0.0072114113718271
-0.0096040945500135
-0.0125664733350276
-0.0161859914660453
-0.0204634815454483
-0.0253011733293533
-0.030514957383275
-0.035859078168869
-0.0410535112023353
-0.0458150207996368
-0.0498902313411235
-0.0530821457505226
-0.0552650392055511
-0.0563890859484672
-0.0564787164330482
-0.055626094341278
-0.0539769977331161
-0.0517103970050811
-0.0490201264619827
-0.0460996478796005
-0.0431227907538414
-0.0402238257229328
-0.0374891087412834
-0.0349608920514583
-0.0326433777809143
-0.0305055472999811
-0.0284849256277084
-0.0264975167810916
-0.0244530588388443
-0.0222710780799388
-0.0198916886001825
-0.0172787420451641
-0.0144189018756151
-0.0113191213458776
-0.0080035086721181
-0.0045095793902873
-0.0008837925270199
0.0028201276436448
0.0065397592261433
0.010204373858869
0.0137389786541461
0.0170715544372797
0.0201413426548242
0.0229043830186128
0.0253367274999618
0.0274354815483093
0.0292143411934375
0.0306948833167552
0.0318999662995338
0.0328516699373722
0.0335708707571029
0.0340787917375564
0.0344008617103099
0.0345626063644886
0.034568965435028
0.0343786776065826
0.0338941477239131
0.0329727083444595
0.0314512476325035
0.0291788168251514
0.0260548070073127
0.0220632478594779
0.0172928664833307
0.0119378194212913
0.0062776356935501
0.0006403429433703
-0.0046420963481068
-0.0092729087918996
-0.0130151072517037
-0.0157064795494079
-0.0172717235982418
-0.0177273526787757
-0.0171750802546739
-0.0157859604805707
-0.0137792415916919
-0.0113991629332304
-0.0088907852768898
-0.0064764656126499
-0.0043352507054805
-0.0025849528610706
-0.0012708436697721
-0.0003686547279357
0.0002005882561206
0.0005531925708055
0.0008243583142757
0.0011470858007669
0.0016339477151632
0.0023672729730606
0.0033945851027965
0.0047260224819183
0.0063369162380695
0.0081758629530668
0.0101733580231666
0.0122494315728545
0.0143231898546218
0.0163248572498559
0.018204141408205
0.0199298486113548
0.0214842371642589
0.0228581856936216
0.0240488406270742
0.025057166814804
0.0258851982653141
0.0265374910086393
0.0270249247550964
0.0273643173277378
0.0275741685181856
0.0276675000786781
0.0276407338678836
0.027461439371109
0.0270579010248184
0.0263146460056304
0.0250813905149698
0.023198215290904
0.020533325150609
0.0170261524617671
0.0127223404124379
0.0077819959260523
0.0024550980888307
-0.0029585864394903
-0.008146870881319
-0.0128179769963026
-0.0167293399572372
-0.0197074450552463
-0.021657595410943
-0.0225671455264091
-0.0225035212934017
-0.0216057579964399
-0.0200680624693632
-0.0181163921952247
-0.0159805454313755
-0.0138641558587551
-0.0119197303429245
-0.0102406311780214
-0.0088702719658613
-0.0078117842786014
-0.0070293960161507
-0.0064508458599448
-0.0059770345687866
-0.00549550447613
-0.0048947669565677
-0.0040785600431263
-0.0029786257073283
-0.0015633553266525
0.0001596538349986
0.0021478391718119
0.0043351324275135
0.0066468520089983
0.0090096723288297
0.0113517567515373
0.0136001352220773
0.0156854651868343
0.0175513066351413
0.0191596988588571
0.0204910635948181
0.0215396713465452
0.0223090220242738
0.0228110384196043
0.0230649542063474
0.0230932757258415
0.0229204017668962
0.0225738883018493
0.0220801867544651
0.0214525423943996
0.0206751227378845
0.0196841955184936
0.0183525662869215
0.0164970383048057
0.0139174507930874
0.0104505661875009
0.0060167107731103
0.0006469376385211
-0.00551079493016
-0.0122017785906791
-0.0190887693315744
-0.0257905796170234
-0.0319285206496715
-0.0371696278452873
-0.041260726749897
-0.0440485514700412
-0.0454820692539215
-0.0456070862710475
-0.0445631518959999
-0.0425716638565063
-0.039905909448862
-0.0368544906377792
-0.0336900427937507
-0.030642993748188
-0.0278796814382076
-0.0254914015531539
-0.0234978459775447
-0.0218581445515155
-0.0204843431711196
-0.0192600898444652
-0.0180630590766668
-0.016781385987997
-0.0153213357552886
-0.0136148184537887
-0.0116273229941725
-0.0093597266823053
-0.0068469773977994
-0.0041540442034602
-0.0013633390190079
0.0014422240201383
0.0041916486807167
0.0068300948478281
0.0093166995793581
0.0116205289959907
0.0137166548520326
0.0155832646414637
0.0172020308673381
0.0185640882700681
0.0196806080639362
0.020585598424077
0.0213216096162796
0.0219216030091047
0.0224022604525089
0.022764153778553
0.0229877512902021
0.0230236276984214
0.0227821916341781
0.0221291687339544
0.0208943337202072
0.0188990924507379
0.015997614711523
0.0121188601478934
0.007299480959773
0.0016990387812256
-0.0044100452214479
-0.0106774633750319
-0.0167240593582391
-0.0221901200711727
-0.0267734806984663
-0.0302552431821823
-0.032513964921236
-0.0335293561220169
-0.0333761759102344
-0.0322101525962352
-0.0302495826035738
-0.0277535505592823
-0.0249946527183055
-0.0222281478345394
-0.0196632388979196
-0.0174413453787565
-0.015625050291419
-0.0142004713416099
-0.0130917280912399
-0.0121808443218469
-0.0113269323483109
-0.0103839803487062
-0.009219367057085
-0.0077322269789874
-0.0058662444353103
-0.0036128051578998
-0.0010068221017718
0.0018807156011462
0.0049535692669451
0.0081042367964982
0.0112276598811149
0.014233055524528
0.0170523189008235
0.0196398925036191
0.0219651870429515
0.0240069683641195
0.0257529728114604
0.0272004753351211
0.0283559635281562
0.0292351618409156
0.0298634730279445
0.0302734561264514
0.0304938778281211
0.0305301807820796
0.0303429812192916
0.0298325344920158
0.0288395248353481
0.0271722264587879
0.0246560163795948
0.0211840625852346
0.0167501848191022
0.0114603862166404
0.0055264704860746
-0.0007544897962361
-0.0070313839241862
-0.0129388943314552
-0.0181389916688203
-0.0223538484424352
-0.0253883618861436
-0.0271464325487613
-0.0276387296617031
-0.0269747637212276
-0.0253403633832931
-0.0229692049324512
-0.0201136209070682
-0.0170185025781393
-0.0139017421752214
-0.0109399557113647
-0.0082578882575035
-0.0059223971329629
-0.0039423629641532
-0.0022742310538887
-0.0008323518559336
0.0004948200657963
0.0018247156403958
0.0032623501028865
0.0048868623562157
0.0067435591481626
0.0088402330875396
0.0111482366919517
0.0136106824502348
0.0161518193781375
0.0186800211668014
0.0210917629301548
0.0232847463339567
0.0251711979508399
0.0266831591725349
0.0277753099799156
0.0284283906221389
0.0286499857902526
0.028472164645791
0.0279477909207344
0.0271467231214046
0.0261503476649522
0.0250407382845878
0.0238851327449083
0.0227173753082752
0.0215139053761959
0.0201731566339731
0.0185185987502336
0.0163307674229145
0.0133963264524936
0.0095617976039648
0.0047804843634366
-0.0008616810664534
-0.0071511669084429
-0.0137787368148565
-0.0203833822160959
-0.0265961475670337
-0.0320795178413391
-0.0365589000284671
-0.0398422181606292
-0.0418290570378303
-0.0425152629613876
-0.0419936850666999
-0.0404437035322189
-0.0381062775850296
-0.0352511741220951
-0.0321448445320129
-0.0290245991200208
-0.026079973205924
-0.0234385635703802
-0.0211580898612737
-0.0192285440862178
-0.0175830665975809
-0.0161150135099887
-0.0146986898034811
-0.0132080344483256
-0.0115313790738582
-0.0095883896574378
-0.0073470203205943
-0.0048284567892551
-0.0020976602099835
0.0007536533521488
0.0036248378455638
0.0064208311960101
0.0090634366497397
0.0114980330690741
0.0136930923908948
0.0156351067125797
0.0173232704401016
0.0187654811888933
0.0199758950620889
0.0209753699600696
0.0217937994748353
0.0224667284637689
0.0230237990617752
0.023478914052248
0.0238246843218803
0.0240218099206686
0.0239833928644657
0.0235683042556047
0.0225967168807983
0.0208853911608457
0.0182864181697368
0.0147187523543834
0.0101932017132639
0.0048295417800545
-0.0011430019512772
-0.0074062258936464
-0.0135893346741795
-0.0193166155368089
-0.0242589600384235
-0.0281727500259876
-0.030915729701519
-0.0324452333152294
-0.0328079313039779
-0.0321248285472393
-0.030573982745409
-0.0283725522458553
-0.0257558599114418
-0.0229530204087495
-0.0201640669256448
-0.0175431687384843
-0.0151886343955993
-0.0131384041160345
-0.0113711571320891
-0.009817230515182
-0.0083809783682227
-0.0069646914489567
-0.0054840152151882
-0.0038755859714001
-0.002100802026689
-0.0001471678260713
0.0019730851054191
0.0042271139100193
0.0065671866759657
0.0089379353448748
0.0112844053655862
0.013557618483901
0.0157162025570869
0.0177265107631683
0.0195627473294734
0.0212047845125198
0.0226334240287542
0.0238285977393388
0.0247732382267713
0.0254596062004566
0.0258943773806095
0.0260994918644428
0.0261090844869613
0.02596365660429
0.0256965421140193
0.02531224116683
0.0247657168656587
0.0239492114633321
0.022692535072565
0.0207847394049167
0.0180177297443151
0.014239028096199
0.0093948384746909
0.0035526845604181
-0.0030973958782851
-0.0102596916258335
-0.0175640229135751
-0.0246077422052621
-0.0310012474656105
-0.0364071652293205
-0.0405678898096084
-0.0433231778442859
-0.0446189865469932
-0.0445063114166259
-0.0431310832500457
-0.0407150462269783
-0.0375276319682598
-0.0338574163615703
-0.0299899522215127
-0.026184843853116
-0.0226477049291133
-0.0195079427212476
-0.0168126821517944
-0.0145350564271211
-0.0125901643186807
-0.0108546074479818
-0.0091891009360551
-0.0074633872136473
-0.005577634088695
-0.0034736646339297
-0.0011364193633198
0.0014121234416961
0.0041249264031648
0.0069406148977577
0.0097882989794015
0.0125901196151971
0.015265192836523
0.0177362859249115
0.0199374035000801
0.0218190625309944
0.0233516916632652
0.0245290547609329
0.0253707729279994
0.0259204059839248
0.0262378454208374
0.0263874605298042
0.0264206230640411
0.0263551361858844
0.0261599402874708
0.025748997926712
0.0249883383512496
0.023721570149064
0.0218097977340221
0.0191749408841133
0.0158329289406538
0.0119053870439529
0.007609068416059
0.0032284082844853
-0.0009227062109857
-0.004540947265923
-0.0073680197820067
-0.0092174662277102
-0.0099933492019772
-0.0096986154094338
-0.0084292963147163
-0.0063583482988178
-0.0037183077074587
-0.0007805922068655
0.0021756761707365
0.0048993742093443
0.0071954913437366
0.0089423973113298
0.0100989686325192
0.0106998765841126
0.0108414590358734
0.0106626655906438
0.0103227449581027
0.0099789397791028
0.009767172858119
0.009787356480956
0.0100963674485683
0.0107074379920959
0.0115917082875967
0.012681514956057
0.013877865858376
0.0150650311261415
0.0161302965134382
0.0169808100908994
0.0175526998937129
0.0178137570619583
0.0177608281373977
0.0174124408513307
0.0168024208396673
0.0159799065440893
0.0150095168501138
0.013965206220746
0.0129211526364088
0.0119398441165685
0.0110566932708024
0.010269021615386
0.0095325112342834
0.008762327954173
0.0078409053385257
0.0066321175545454
0.004996683448553
0.0028106905519962
-8.307397365570068e-06
-0.0034748688340187
-0.0075220949947834
-0.0120043978095054
-0.0167122446000576
-0.0213955622166395
-0.0257929246872663
-0.0296638868749141
-0.0328192971646785
-0.0351399108767509
-0.0365785993635654
-0.0371511578559875
-0.0369233079254627
-0.0359986051917076
-0.0345086976885795
-0.0326034948229789
-0.0304393116384744
-0.0281672030687332
-0.0259226709604263
-0.0238165743649005
-0.0219274200499057
-0.0202925894409418
-0.0189003366976976
-0.0176937151700258
-0.0165904052555561
-0.0155054861679673
-0.0143652278929948
-0.0131123838946223
-0.0117075843736529
-0.0101306103169918
-0.0083829928189516
-0.0064888452179729
-0.0044915536418557
-0.0024478882551193
-0.0004204921424388
0.0015312330797314
0.0033589964732527
0.0050300657749176
0.0065298667177557
0.0078600514680147
0.0090286238119006
0.0100397886708378
0.0108919031918048
0.0115825766697525
0.0121155846863985
0.0125037543475627
0.0127667980268597
0.0129275424405932
0.0130069693550467
0.0130161326378583
0.0129452059045434
0.0127524714916944
0.0123583581298589
0.0116524789482355
0.0105183320119977
0.0088664172217249
0.0066581033170223
0.0039136055856943
0.0007107155397534
-0.002822583541274
-0.0065228417515754
-0.0102075058966875
-0.0136872334405779
-0.0167785715311765
-0.0193219520151615
-0.0212007761001586
-0.0223551653325557
-0.0227888263761997
-0.0225660763680934
-0.0217956267297267
-0.0206085294485092
-0.0191421844065189
-0.0175327900797128
-0.0159086547791957
-0.0143776126205921
-0.0130133144557476
-0.0118478694930672
-0.0108709502965211
-0.0100351888686418
-0.009268912486732
-0.0084927957504987
-0.0076350970193743
-0.0066424384713172
-0.0054849246516823
-0.004156372975558
-0.0026702238246798
-0.0010524784447625
0.0006613731384277
0.0024242214858531
0.0041797887533903
0.0058718034997582
0.0074514094740152
0.0088793728500604
0.0101273022592067
0.0111799985170364
0.0120351705700159
0.0127000091597437
0.0131895523518323
0.0135260038077831
0.0137356352061033
0.0138455647975206
0.0138836558908224
0.013880681246519
0.0138677768409252
0.0138656254857778
0.01387420296669
0.0138700753450393
0.0138073228299617
0.0136189172044396
0.0132211875170469
0.0125237191095948
0.011444428935647
0.0099290218204259
0.007970224134624
0.0056184618733823
0.0029800303746014
0.0002033849013969
-0.0025405141059309
-0.0050748055800795
-0.0072330022230744
-0.0088817365467548
-0.0099413115531206
-0.0103918276727199
-0.0102655924856662
-0.0096342982724308
-0.008597407490015
-0.0072722099721431
-0.0057832347229123
-0.0042505408637225
-0.002778795082122
-0.0014499789103865
-0.0003198767080903
0.0005835709162056
0.0012617157772183
0.0017456244677305
0.0020886003039777
0.0023505776189267
0.0025859763845801
0.002839142922312
0.0031420339364558
0.0035119629465043
0.0039503700099885
0.0044445469975471
0.0049737393856048
0.0055159176699817
0.0060508279129862
0.0065608746372163
0.0070317834615707
0.0074525238014757
0.0078171296045184
0.0081304218620061
0.0084104593843221
0.008681422099471
0.0089636137709021
0.0092681404203176
0.0095958188176155
0.0099396537989377
0.0102894883602857
0.0106344707310199
0.0109623475000262
0.0112586040049791
0.0115079171955585
0.0116975484415888
0.0118187051266431
0.0118614919483661
0.0118067441508173
0.0116213224828243
0.011253316886723
0.0106266597285866
0.0096490224823355
0.0082365283742547
0.0063413269817829
0.0039706672541797
0.0011926817242056
-0.0018717632628977
-0.0050664693117141
-0.0082203354686498
-0.0111665790900588
-0.0137583836913108
-0.0158795192837715
-0.0174503866583108
-0.0184308141469955
-0.0188216436654329
-0.0186681244522333
-0.0180612914264202
-0.0171290934085845
-0.0160181187093257
-0.0148717239499092
-0.0138085409998893
-0.0129081308841705
-0.0122083239257335
-0.0117103904485702
-0.0113860899582505
-0.0111839203163981
-0.011034931987524
-0.0108610847964882
-0.0105876456946134
-0.0101540721952915
-0.0095179267227649
-0.0086567495018243
-0.0075727347284555
-0.0062938057817518
-0.0048667499795556
-0.0033479039557278
-0.0017959191463887
-0.0002665044739842
0.0011919899843633
0.0025419080629944
0.0037570837885141
0.0048223040066659
0.0057336613535881
0.0064986934885382
0.0071338196285068
0.0076600229367613
0.0080991806462407
0.0084695154801011
0.0087806358933448
0.0090334229171276
0.0092231919988989
0.0093378582969307
0.0093497755005955
0.0092077255249023
0.0088343443349003
0.0081303464248776
0.0069865626282989
0.0053053074516355
0.0030278575140982
0.0001596827059984
-0.003214418888092
-0.0069303619675338
-0.0107620870694518
-0.0144549449905753
-0.0177662894129753
-0.020496878772974
-0.0225052628666162
-0.0237118806689977
-0.0241003222763538
-0.0237156189978122
-0.0226564444601535
-0.0210626535117626
-0.0190998781472444
-0.0169411972165107
-0.0147498436272144
-0.0126638822257518
-0.0107806753367185
-0.0091458801180124
-0.0077540464699268
-0.0065629854798316
-0.0055151879787445
-0.0045531149953603
-0.0036233142018318
-0.0026754066348075
-0.001661155372858
-0.0005365032702684
0.0007317382842302
0.002158984541893
0.0037420764565467
0.005461586639285
0.0072812419384717
0.0091483388096094
0.0110004749149084
0.0127763617783784
0.0144263077527284
0.0159169249236583
0.0172274634242057
0.0183441787958145
0.019259724766016
0.0199762061238288
0.0205063745379447
0.0208718441426754
0.0211014300584793
0.0212289653718471
0.0212867744266986
0.0212948732078075
0.0212475229054689
0.0210993476212024
0.0207600705325603
0.0201069861650466
0.0190122686326503
0.0173721760511398
0.0151276756078004
0.0122782327234745
0.0088935187086462
0.005118147470057
0.0011594537645578
-0.0027423948049545
-0.0063482969999313
-0.0094482339918613
-0.0118828974664211
-0.0135544314980506
-0.0144259370863437
-0.0145187154412269
-0.0139100719243288
-0.0127258878201246
-0.0111258290708065
-0.0092870835214853
-0.0073901899158954
-0.0056022703647613
-0.0040568429976701
-0.0028358120471239
-0.0019592922180891
-0.0013879630714654
-0.0010363683104515
-0.0007912497967481
-0.0005322378128767
-0.0001526195555925
0.0004244614392518
0.0012404322624206
0.0023067481815814
0.0036125537008047
0.0051300302147865
0.0068177357316017
0.0086209420114755
0.0104741137474775
0.0123095139861106
0.0140659697353839
0.0156933721154928
0.0171544589102268
0.0184245016425848
0.0194892939180135
0.020344479009509
0.0209975820034742
0.0214683879166841
0.0217847470194101
0.0219772066920995
0.0220735799521207
0.0220870524644851
0.0219940729439258
0.0217134226113557
0.0211031325161457
0.0199809148907661
0.0181630104780197
0.0155096007511019
0.0119631299749016
0.0075698606669902
0.0024808761663734
-0.0030633034184575
-0.0087574301287531
-0.0142645500600337
-0.0192566607147455
-0.0234544221311807
-0.0266551319509744
-0.0287446901202201
-0.0297002978622913
-0.0295901801437139
-0.0285638235509395
-0.0268288385123014
-0.0246224198490381
-0.0221850182861089
-0.0197394229471683
-0.0174731705337762
-0.0155210625380277
-0.0139518436044454
-0.0127636278048157
-0.0118904300034046
-0.0112231224775314
-0.0106360036879777
-0.0100032538175582
-0.0092075774446129
-0.0081541966646909
-0.0067881327122449
-0.0051020458340644
-0.0031316922977566
-0.000943437218666
0.0013815453276038
0.0037611313164234
0.0061219586059451
0.0084048919379711
0.0105670560151338
0.012582803145051
0.0144421085715293
0.0161443315446376
0.0176910273730754
0.019082510843873
0.0203208066523075
0.0214141365140676
0.0223738122731447
0.0232065506279468
0.0239079520106315
0.0244523547589778
0.0247774887830019
0.0247732922434806
0.0242861080914735
0.0231401212513446
0.0211702995002269
0.018261145800352
0.0143819563090801
0.0096065429970622
0.0041144471615552
-0.0018214138690382
-0.0078593865036964
-0.0136304106563329
-0.0187910590320825
-0.0230665355920791
-0.0262706261128187
-0.0283111725002527
-0.029189484193921
-0.0289939232170581
-0.0278873350471258
-0.0260883029550313
-0.0238456949591636
-0.0214080326259136
-0.0189939439296722
-0.0167707186192274
-0.0148429982364177
-0.0132484529167413
-0.011958360671997
-0.0108883455395698
-0.0099215619266033
-0.0089351907372474
-0.0078205112367868
-0.0064938897266983
-0.0049007250927388
-0.0030159293673932
-0.0008437780197709
0.0015823245048522
0.0042018331587314
0.0069325217045843
0.0096804061904549
0.0123514104634523
0.014858579263091
0.0171253681182861
0.0190915260463953
0.0207190178334712
0.0219908487051725
0.0229067299515008
0.023481722921133
0.0237469095736742
0.0237496551126241
0.0235492773354053
0.0232062861323356
0.0227703973650932
0.0222719572484493
0.0217159688472747
0.0210747215896844
0.020277015864849
0.019199326634407
0.0176723375916481
0.0155123407021164
0.0125667648389935
0.0087541779503226
0.0040924716740846
-0.0012874752283096
-0.0071490751579403
-0.0131766889244318
-0.0190139189362525
-0.0243058390915393
-0.0287376604974269
-0.0320650450885295
-0.0341351106762886
-0.0348983779549598
-0.0344114303588867
-0.0328286774456501
-0.030380044132471
-0.0273377299308776
-0.0239845607429742
-0.0205887388437986
-0.0173787903040647
-0.0145197613164782
-0.0120970075950026
-0.0101114865392446
-0.008492331020534
-0.0071234465576708
-0.0058706868439912
-0.0046055326238274
-0.0032256757840514
-0.0016669295728206
9.414926171302795e-05
0.0020432537421584
0.0041373651474714
0.0063179768621921
0.0085203126072883
0.0106746824458241
0.0127061707898974
0.0145393069833517
0.016108401119709
0.0173690393567085
0.0183041915297508
0.0189238712191581
0.0192605182528495
0.0193593502044677
0.0192668326199054
0.0190246626734733
0.0186711847782135
0.0182453580200672
0.017787754535675
0.0173372384160757
0.0169231258332729
0.0165520552545785
0.0161925610154867
0.0157618075609207
0.0151224546134471
0.014097211882472
0.0124967545270919
0.0101557932794094
0.0069736242294311
0.0029461868107318
-0.0018203016370534
-0.0071140602231025
-0.0126389311626553
-0.0180490557104349
-0.0229914747178554
-0.0271491631865501
-0.0302795823663473
-0.0322443731129169
-0.033021330833435
-0.0326955616474151
-0.0314379557967186
-0.029479632154107
-0.027085231617093
-0.0245248638093471
-0.0220449622720479
-0.0198422838002443
-0.0180476047098636
-0.0167191810905933
-0.0158416219055652
-0.0153319016098976
-0.0150568857789039
-0.0148609261959791
-0.0145961940288543
-0.014145778492093
-0.0134329404681921
-0.0124188913032412
-0.0110962009057402
-0.0094832871109247
-0.0076218442991375
-0.005574750714004
-0.0034224530681967
-0.0012566344812512
0.0008319290354847
0.0027692196890711
0.0045092087239027
0.0060357982292771
0.0073592159897089
0.0085115022957324
0.0095371501520276
0.0104769933968782
0.0113554997369647
0.0121802873909473
0.0129519896581768
0.0136748030781745
0.014358670450747
0.0150123257189989
0.0156313888728618
0.0161844827234745
0.016599852591753
0.0167583636939525
0.0165012143552303
0.0156549178063869
0.0140675567090511
0.0116470661014318
0.0083888405933976
0.004382318817079
-0.0001980494707822
-0.0051070284098386
-0.0100499484688043
-0.0147155001759529
-0.0188134647905826
-0.0221063122153282
-0.0244300998747348
-0.0257084369659423
-0.0259605012834072
-0.0252950079739093
-0.0238871108740568
-0.0219485275447368
-0.019699165597558
-0.0173408761620521
-0.0150394346565008
-0.012920344248414
-0.0110680200159549
-0.0095186429098248
-0.0082560405135154
-0.0072211502119898
-0.006328331772238
-0.0054774866439402
-0.0045636021532118
-0.0034904857166111
-0.00218788953498
-0.0006251974264159
0.0011843129759654
0.0031901423353701
0.0053187580779194
0.0074897464364767
0.0096282130107283
0.0116684455424547
0.0135507248342037
0.0152207044884562
0.0166347324848175
0.0177654772996902
0.0186048615723848
0.019163966178894
0.0194697994738817
0.0195606984198093
0.0194805841892957
0.0192728042602539
0.0189767032861709
0.0186264608055353
0.0182483363896608
0.0178535412997007
0.0174243412911891
0.0168969295918941
0.0161547176539897
0.0150422472506761
0.013395020738244
0.0110744591802358
0.0080011207610368
0.0041813505813479
-0.0002783434465527
-0.0051767816767096
-0.0102442204952239
-0.0151775935664772
-0.0196764320135116
-0.0234764460474252
-0.0263741575181484
-0.0282401666045188
-0.0290278941392898
-0.0287805460393428
-0.027628706768155
-0.0257720500230789
-0.0234488099813461
-0.0209023430943489
-0.0183523017913103
-0.0159736815840005
-0.0138843888416886
-0.0121413841843605
-0.0107441265136003
-0.0096428012475371
-0.008749739266932
-0.0079536475241184
-0.0071358042769134
-0.0061857318505644
-0.0050169052556157
-0.0035816822201013
-0.0018768720328807
6.349664181470871e-05
0.0021811928600072
0.0044042970985174
0.0066529735922813
0.0088439881801605
0.0108946803957223
0.0127281490713357
0.0142839662730693
0.0155296809971332
0.0164650958031415
0.0171203818172216
0.0175527222454547
0.0178386773914098
0.01805623434484
0.0182624906301498
0.0184813551604747
0.0187035948038101
0.0188898108899593
0.0189710706472396
0.0188478659838438
0.0183925293385982
0.0174634959548711
0.0159325115382671
0.0137152634561061
0.0107959024608135
0.0072410413995385
0.0032010667491704
-0.0011000824160873
-0.005385021213442
-0.0093556754291057
-0.012736789882183
-0.0153151452541351
-0.0169594194740057
-0.0176220871508121
-0.0173329375684261
-0.016188159584999
-0.0143366595730185
-0.011963945813477
-0.0092731406912207
-0.0064665609970688
-0.0037286113947629
-0.001209732145071
0.0009833173826336
0.0027906559407711
0.0041997493244707
0.0052394419908523
0.0059666112065315
0.006453612819314
0.0067804334685206
0.0070287231355905
0.0072759389877319
0.0075896261259913
0.0080209514126181
0.0085986899212002
0.0093285907059907
0.0101987766101956
0.0111861219629645
0.0122598921880126
0.0133830942213535
0.014517068862915
0.0156303886324167
0.01670085452497
0.0177077017724514
0.0186274666339159
0.0194376222789287
0.0201203133910894
0.0206649266183376
0.0210703406482934
0.0213417243212461
0.0214782040566205
0.0214544255286455
0.0212034545838832
0.0206112656742334
0.0195305366069078
0.0178109053522348
0.0153349172323942
0.0120495446026325
0.007984809577465
0.0032571209594607
-0.0019377181306481
-0.0073409681208431
-0.0126596475020051
-0.0176013484597206
-0.0219042785465717
-0.0253612957894802
-0.0278411600738763
-0.0293019600212574
-0.0297918431460857
-0.0294398516416549
-0.0284388959407806
-0.027020014822483
-0.0254198499023914
-0.0238486286252737
-0.0224702581763267
-0.0213963650166988
-0.0206825174391269
-0.0203226506710052
-0.0202492140233516
-0.0203426014631986
-0.0204467829316854
-0.0203888621181249
-0.0200033076107502
-0.0191582813858985
-0.017776658758521
-0.0158453695476055
-0.0134101323783397
-0.0105583639815449
-0.0073988861404359
-0.0040464936755597
-0.0006164009682834
0.0027728972490876
0.0060009127482771
0.008957615122199
0.0115570733323693
0.0137455873191356
0.0155064333230257
0.0168595723807811
0.0178546234965324
0.0185589659959077
0.019043194130063
0.0193665456026792
0.0195636991411447
0.0196324605494737
0.0195245258510112
0.0191435329616069
0.0183509327471256
0.0169825442135334
0.0148821165785193
0.0119449710473418
0.0081533845514059
0.0035933782346546
-0.0015471850056201
-0.0069975377991795
-0.0124373016878962
-0.0175352226942777
-0.0219842363148927
-0.0255330186337232
-0.0280121006071567
-0.0293454192578792
-0.0295444503426551
-0.0286929421126842
-0.0269359350204467
-0.0244755260646343
-0.0215577650815248
-0.0184422638267278
-0.0153656732290983
-0.0125123327597975
-0.009997246786952
-0.0078632142394781
-0.006089954636991
-0.0046083303168416
-0.003316001035273
-0.002095079049468
-0.0008300999179482
0.0005769692361354
0.0021968567743897
0.0040695145726203
0.0062030064873397
0.008569112047553
0.0111016724258661
0.0137062342837452
0.0162763278931379
0.0187079813331365
0.0209110230207443
0.0228176191449165
0.0243867803364992
0.0256048664450645
0.0264824405312538
0.0270472541451454
0.027335412800312
0.0273842215538024
0.0272295735776424
0.026904571801424
0.0264299940317869
0.0257951542735099
0.0249402876943349
0.0237534418702125
0.0220859851688146
0.0197820179164409
0.0167143139988183
0.0128208547830581
0.0081348195672035
0.0027970871888101
-0.0029532529879361
-0.0088055236265063
-0.0144170047715306
-0.0194587875157594
-0.0236542355269193
-0.0268013942986726
-0.0287846215069293
-0.0295816548168659
-0.0292621701955795
-0.0279740560799837
-0.0259230006486177
-0.0233509037643671
-0.0205097645521163
-0.0176306366920471
-0.0148969767615199
-0.0124293584376573
-0.0102832894772291
-0.008457850664854
-0.0069077615626156
-0.0055555230937898
-0.0043045450001955
-0.003052644431591
-0.0017074416391551
-0.0002025142312049
0.0014919317327439
0.0033677830360829
0.0053860750049352
0.0074867769144475
0.0095986537635326
0.0116507541388273
