bvp
-0.0246650800108909
-0.0270017459988594
-0.0298477932810783
-0.0330915749073028
-0.0365515053272247
-0.0399954691529274
-0.0431700311601161
-0.0458321534097194
-0.0477778613567352
-0.0488656498491764
-0.049033123999834
-0.0483010783791542
-0.0467653572559356
-0.0445833541452884
-0.0419559217989444
-0.0391047298908233
-0.0362444445490837
-0.0335485339164733
-0.0311194937676191
-0.0289778150618076
-0.0270735844969749
-0.0253171883523464
-0.0236183069646358
-0.0219181329011917
-0.0202066227793693
-0.0185251794755458
-0.0169586576521396
-0.0156206972897052
-0.0146365202963352
-0.0141233429312706
-0.0141652561724185
-0.0147886388003826
-0.0159510858356952
-0.017548244446516
-0.0194326303899288
-0.0214345455169677
-0.0233783349394798
-0.0250960066914558
-0.0264417193830013
-0.027307067066431
-0.0276395007967948
-0.0274636223912239
-0.0268936082720756
-0.0261232927441597
-0.0253960154950618
-0.0249641984701156
-0.0250427052378654
-0.0257663019001483
-0.0271655432879924
-0.0291625075042247
-0.0315816402435302
-0.0341740064322948
-0.036650713533163
-0.0387202240526676
-0.0401259362697601
-0.040678534656763
-0.0402768589556217
-0.0389145016670227
-0.0366716086864471
-0.0336933135986328
-0.0301622785627841
-0.0262738373130559
-0.0222159437835216
-0.0181543156504631
-0.0142242237925529
-0.0105267688632011
-0.0071257911622524
-0.0040443651378154
-0.0012633353471755
0.001271728426218
0.0036303736269474
0.0058693140745162
0.0080058351159095
0.0099981538951396
0.0117391012609004
0.0130697041749954
0.0138098262250423
0.0137943029403686
0.0129050761461257
0.0110938549041748
0.0083910375833511
0.0049014165997505
0.0007921196520328
-0.0037217438220977
-0.0083913877606391
-0.0129486173391342
-0.0171231403946876
-0.0206650700420141
-0.0233670882880687
-0.0250759683549404
-0.0256898291409015
-0.025149755179882
-0.0234424713999032
-0.0206246189773082
-0.0168564263731241
-0.0124189220368862
-0.007698930799961
-0.0031442604959011
0.0007944628596305
0.0037162639200687
0.0053066201508045
0.0053589604794979
0.0037869848310947
0.0006328858435153
-0.0039325933903455
-0.0096273645758628
-0.0160918682813644
-0.0229293033480644
-0.0297473799437284
-0.036199290305376
-0.0420137271285057
-0.0470063835382461
-0.0510762892663478
-0.0541954636573791
-0.0563988238573074
-0.0577738173305988
-0.0584440827369689
-0.0585463382303714
-0.058205846697092
-0.0575165525078773
-0.0565311089158058
-0.0552640110254287
-0.0537068545818328
-0.0518537946045398
-0.0497338026762008
-0.0474355965852737
-0.0451081432402133
-0.0429374799132347
-0.0411116778850555
-0.0397824868559837
-0.0390298962593078
-0.0388372130692005
-0.039084754884243
-0.0395626053214073
-0.03999500349164
-0.0400729291141033
-0.0394933186471462
-0.0379990264773368
-0.0354091897606849
-0.0316318348050117
-0.0266636162996292
-0.0205835476517677
-0.0135368704795837
-0.0057091563940048
0.0026993453502655
0.0114941075444221
0.020502783358097
0.0295846760272979
0.0386292897164821
0.0475482419133186
0.0562674440443515
0.0647223442792892
0.0728535950183868
0.0806032791733741
0.0879163816571235
0.0947434827685356
0.1010381206870079
0.1067536026239395
0.1118460521101951
0.1162817999720573
0.1200427412986755
0.123126283288002
0.1255410015583038
0.1273015439510345
0.1284253150224685
0.1289316117763519
0.1288425028324127
0.1281834691762924
0.1269845515489578
0.1252850890159607
0.1231414154171943
0.1206315904855728
0.1178484559059143
0.1148818880319595
0.1118047758936882
0.1086682081222534
0.1054957807064056
0.1022702604532241
0.0989172905683517
0.0952975451946258
0.0912195891141891
0.0864752233028411
0.0808848142623901
0.0743393450975418
0.0668322816491127
0.0584737211465835
0.0494813621044158
0.0401493608951568
0.0307998731732368
0.0217298381030559
0.0131730530411005
0.0052857995033264
-0.00185420922935
-0.008247347548604
-0.0139700109139084
-0.0191639959812164
-0.0240144729614257
-0.0287197642028331
-0.0334577932953834
-0.0383551567792892
-0.0434676930308342
-0.0487780086696147
-0.0542041100561618
-0.0596111491322517
-0.0648284330964088
-0.0696741342544555
-0.0739803239703178
-0.077611044049263
-0.0804723277688026
-0.0825156345963478
-0.0837381333112716
-0.0841814428567886
-0.0839249119162559
-0.0830708518624305
-0.0817280411720275
-0.0800016373395919
-0.077990747988224
-0.0757883116602897
-0.0734770745038986
-0.0711213126778602
-0.0687607377767562
-0.0664114505052566
-0.0640730708837509
-0.0617384165525436
-0.0594031326472759
-0.0570727586746215
-0.0547645017504692
-0.0525014176964759
-0.0503037460148334
-0.0481893718242645
-0.0461871065199375
-0.0443561673164367
-0.0428040623664855
-0.0416904613375663
-0.0412045717239379
-0.0415195748209953
-0.0427460893988609
-0.0449013896286487
-0.0478921234607696
-0.0515095219016075
-0.0554449409246444
-0.0593245215713977
-0.0627529844641685
-0.0653595104813575
-0.0668398886919021
-0.0669870376586914
-0.0657041370868682
-0.0630027651786804
-0.0589926950633525
-0.0538660697638988
-0.0478765107691288
-0.0413125455379486
-0.0344689488410949
-0.0276226103305816
-0.0210131965577602
-0.0148274414241313
-0.0091882720589637
-0.0041491724550724
0.0003061816096305
0.0042599216103553
0.0078498683869838
0.0112489312887191
0.0146368481218814
0.0181735083460807
0.0219806861132383
0.0261319298297166
0.0306475479155778
0.0354979112744331
0.0406140871345996
0.0458970703184604
0.0512256659567356
0.056466095149517
0.0614820532500743
0.0661479756236076
0.070367693901062
0.0740920230746269
0.0773242712020874
0.0801085904240608
0.0825070589780807
0.084576241672039
0.0863503590226173
0.0878347605466842
0.0890123397111892
0.0898545235395431
0.090318351984024
0.0903288275003433
0.0897652581334114
0.0884656012058258
0.0862516164779663
0.0829692184925079
0.078532226383686
0.0729558691382408
0.0663708224892616
0.059015616774559
0.0512116700410842
0.0433297902345657
0.0357532873749733
0.0288377329707145
0.0228716619312763
0.0180469714105129
0.0144404582679271
0.0120035372674465
0.0105673670768737
0.0098715052008628
0.0096067432314157
0.0094569735229015
0.0091368537396192
0.0084248324856162
0.0071856216527521
0.0053782286122441
0.003049898892641
0.0003194473683834
-0.002644782885909
-0.0056487023830413
-0.0084950709715485
-0.0110020954161882
-0.0130213219672441
-0.0144575284793972
-0.0152792669832706
-0.0155111141502857
-0.0152176385745406
-0.0144908688962459
-0.0134402541443705
-0.0121815055608749
-0.0108270701020956
-0.009480383247137
-0.0082306750118732
-0.0071474909782409
-0.0062782987952232
-0.0056471806019544
-0.0052514560520648
-0.0050624907016754
-0.0050367750227451
-0.0051323138177394
-0.0053217373788356
-0.0055999420583248
-0.0059904009103775
-0.0065540000796318
-0.0073966905474662
-0.0086657255887985
-0.0105274729430675
-0.013130635023117
-0.0165691897273063
-0.0208582337945699
-0.0259240604937076
-0.0316042304039001
-0.0376557745039463
-0.0437722206115722
-0.0496126376092433
-0.0548419505357742
-0.0591707304120063
-0.0623824894428253
-0.0643478259444236
-0.0650290176272392
-0.0644771382212638
-0.0628260225057601
-0.0602854527533054
-0.0571262910962104
-0.0536508336663246
-0.0501558631658554
-0.046899989247322
-0.0440782681107521
-0.0418029613792896
-0.0400942042469978
-0.0388896577060222
-0.0380728580057621
-0.0375043116509914
-0.0370405577123165
-0.0365401916205883
-0.0358680672943592
-0.0349065959453582
-0.0335686467587947
-0.0318053588271141
-0.0296098869293928
-0.0270153656601905
-0.0240833684802055
-0.0208892207592725
-0.0175137892365455
-0.014040183275938
-0.0105509515851736
-0.0071272170171141
-0.0038470015861094
-0.0007778897415846
0.0020320201292634
0.0045595117844641
0.0068077431060373
0.0088010616600513
0.0105706350877881
0.0121357319876551
0.0134856114163994
0.0145652908831834
0.0152736362069845
0.01548040099442
0.015058153308928
0.0139207756146788
0.0120594091713428
0.0095609975978732
0.0066012004390358
0.0034227287396788
0.0003097094595432
-0.0024425126612186
-0.0045606754720211
-0.0058243051171302
-0.0060893837362527
-0.0053041279315948
-0.0035166349261999
-0.0008714664727449
0.0024064872413873
0.006037225946784
0.0097146965563297
0.0131407734006643
0.0160649251192808
0.0183162037283182
0.0198133029043674
0.0205586925148963
0.0206302553415298
0.0201715100556612
0.0193745847791433
0.0184545628726482
0.0176188983023166
0.0170396175235509
0.0168367084115743
0.0170736033469438
0.0177614856511354
0.0188709367066621
0.0203467346727848
0.0221222415566444
0.0241316780447959
0.0263125523924827
0.0285969283431768
0.0309051219373941
0.0331494845449924
0.0352408960461616
0.0370928198099136
0.0386262089014053
0.0397750660777092
0.0404889285564422
0.0407294258475303
0.0404577702283859
0.0396182909607887
0.0381328985095024
0.0359157919883728
0.0329046547412872
0.029093325138092
0.0245464202016592
0.0193932391703128
0.0138182733207941
0.0080554448068141
0.0023761950433254
-0.0029330290853977
-0.0075992178171873
-0.0113905109465122
-0.0141377765685319
-0.0157514046877622
-0.0162340439856052
-0.0156819373369216
-0.0142719279974699
-0.0122399125248193
-0.0098528526723384
-0.0073759872466325
-0.0050464700907468
-0.0030604358762502
-0.001564085483551
-0.0006412910297513
-0.0003055948764085
-0.0005039079114794
-0.0011275978758931
-0.0020266966894268
-0.0030285082757472
-0.0039588753134012
-0.0046606492251157
-0.0050069810822606
-0.0049095824360847
-0.0043218415230512
-0.003237928263843
-0.001689095981419
0.0002601500600576
0.0025128228589892
0.0049432590603828
0.0074119851924479
0.0097866635769605
0.0119575411081314
0.0138442944735288
0.0153986811637878
0.0166029464453458
0.0174585618078708
0.0179618336260318
0.0180722083896398
0.0176901221275329
0.0166600532829761
0.0148020358756184
0.0119614508002996
0.0080556226894259
0.0031009563244879
-0.0027754195034503
-0.0093335835263133
-0.0162350665777921
-0.0230778157711029
-0.0294446293264627
-0.0349514260888099
-0.0392852127552032
-0.0422322712838649
-0.0436996705830097
-0.0437248721718788
-0.042466752231121
-0.0401794351637363
-0.0371748656034469
-0.0337831936776638
-0.0303203873336315
-0.0270627439022064
-0.0242241881787776
-0.0219387039542198
-0.0202518589794635
-0.0191224291920661
-0.0184352993965148
-0.01802409440279
-0.0176965594291687
-0.0172572862356901
-0.016528557986021
-0.0153717566281557
-0.0137060731649398
-0.0115177184343338
-0.0088555514812469
-0.0058145225048065
-0.0025164317339658
0.0009046476334333
0.0043157842010259
0.0075988490134477
0.0106606343761086
0.0134369796141982
0.0158869065344333
0.0179738923907279
0.0196389704942703
0.0207776110619306
0.0212333276867866
0.0208150725811719
0.0193356126546859
0.0166583191603422
0.0127409966662526
0.0076699387282133
0.001670328900218
-0.0049153864383697
-0.0116674564778804
-0.0181324165314435
-0.0238673407584428
-0.0284832902252674
-0.0316849052906036
-0.0333005338907241
-0.0332962684333324
-0.031772494316101
-0.0289462506771087
-0.0251231044530868
-0.0206624828279018
-0.0159409046173095
-0.0113117806613445
-0.0070620328187942
-0.0033804178237915
-0.0003485232591629
0.0020544528961181
0.0039408914744853
0.0054929070174694
0.0069271586835384
0.0084561817348003
0.0102585591375827
0.0124612748622894
0.0151298195123672
0.0182642508298158
0.0218025408685207
0.0256299450993537
0.0295948721468448
0.0335339084267616
0.0372998118400573
0.040777713060379
0.0438845604658126
0.0465621463954448
0.048771608620882
0.0504845157265663
0.0516632720828056
0.0522326044738292
0.05205599963665
0.0509350523352623
0.0486384443938732
0.0449517406523227
0.0397350862622261
0.0329782105982303
0.0248396284878253
0.015655193477869
0.0059094950556755
-0.0038242638111114
-0.0129602737724781
-0.0209692865610122
-0.0274272356182336
-0.0320472717285156
-0.0346997827291488
-0.0354170501232147
-0.0343804918229579
-0.0318933427333831
-0.0283435173332691
-0.0241605900228023
-0.0197706054896116
-0.0155532304197549
-0.0118063613772392
-0.0087215136736631
-0.0063713751733303
-0.0047137308865785
-0.0036139767616987
-0.0028765182942152
-0.0022738128900527
-0.0015736445784568
-0.0005680341273546
0.0009012799710035
0.0029283743351697
0.0055401623249053
0.0086997412145137
0.0123144667595624
0.0162520483136177
0.0203610062599182
0.0244860760867595
0.0284802839159965
0.0322188735008239
0.0356066226959228
0.0385678932070732
0.0410204157233238
0.0428425446152687
0.0438485071063041
0.0437876172363758
0.0423740968108177
0.0393399447202682
0.0344977639615535
0.0278015322983264
0.0193903893232345
0.0095988381654024
-0.0010713720694184
-0.0120066870003938
-0.0225499346852302
-0.0320694521069526
-0.0400228723883628
-0.0460126139223575
-0.0498219430446624
-0.0514205507934093
-0.0509457290172576
-0.0486717373132705
-0.044972151517868
-0.0402774065732955
-0.0350301712751388
-0.029640644788742
-0.0244462806731462
-0.0196825005114078
-0.0154681289568543
-0.0118082016706466
-0.0086144739761948
-0.0057356050238013
-0.0029908260330557
-0.0002061938866972
0.0027550281956791
0.0059772692620754
0.0094909369945526
0.0132771870121359
0.0172752272337675
0.02139238640666
0.0255174003541469
0.0295332912355661
0.0333277285099029
0.0368038602173328
0.039891418069601
0.0425519458949565
0.0447770580649375
0.0465838089585304
0.0480017438530921
0.0490434467792511
0.0496660396456718
0.0497388429939746
0.0490297339856624
0.0472245886921882
0.0439863502979278
0.0390378013253212
0.0322419330477714
0.0236608609557151
0.0135794840753078
0.0024842359125614
-0.0089977346360683
-0.0201815832406282
-0.0304105952382087
-0.0391255021095275
-0.0459109358489513
-0.0505246371030807
-0.0529085434973239
-0.0531804859638214
-0.0516099035739898
-0.0485782027244567
-0.044527918100357
-0.0399102568626403
-0.0351384989917278
-0.0305506587028503
-0.0263830088078975
-0.0227564442902803
-0.019677422940731
-0.0170541107654571
-0.0147250238806009
-0.0124933058395981
-0.0101624298840761
-0.0075707789510488
-0.0046164933592081
-0.0012661609798669
0.0024492498487234
0.0064457431435585
0.010602381080389
0.0147801283746957
0.018838295713067
0.0226437672972679
0.0260771419852972
0.029041638597846
0.0314710885286331
0.0333321504294872
0.0346227064728736
0.0353689305484294
0.0356191471219062
0.035434253513813
0.0348804704844951
0.0340263471007347
0.0329405702650547
0.0316901542246341
0.0303375124931335
0.0289280787110328
0.027462039142847
0.0258567668497562
0.0239199884235858
0.0213551186025142
0.0178057327866554
0.0129292458295822
0.0064835324883461
-0.0015964470803737
-0.0111597366631031
-0.0218475572764873
-0.0331349596381187
-0.0443929433822631
-0.0549622066318988
-0.0642261356115341
-0.0716733932495117
-0.0769452676177024
-0.0798646435141563
-0.0804457515478134
-0.0788843929767608
-0.0755273699760437
-0.070823810994625
-0.0652661919593811
-0.0593282356858253
-0.0534105636179447
-0.0478098466992378
-0.0427129603922367
-0.0382002815604209
-0.0342515483498573
-0.0307606160640716
-0.0275618955492973
-0.0244660526514053
-0.0212986543774604
-0.0179307367652654
-0.0142928510904312
-0.0103738084435462
-0.0062127523124217
-0.0018896516412496
0.0024884566664695
0.0068061333149671
0.0109554585069417
0.0148423742502927
0.0183853358030319
0.0215144641697406
0.024175988510251
0.0263370480388402
0.0279875043779611
0.0291429888457059
0.0298469774425029
0.0301647204905748
0.030172199010849
0.0299469009041786
0.0295613873749971
0.0290790628641843
0.0285512823611497
0.0280170999467372
0.0275079645216465
0.0270482711493968
0.0266404822468757
0.0262402035295963
0.0257350429892539
0.0249353796243667
0.0235826633870601
0.0213832892477512
0.0180668495595455
0.0134534612298011
0.0075110048055648
0.0003859065473079
-0.0076009966433048
-0.0159926190972328
-0.0242595914751291
-0.0318735986948013
-0.0383709147572517
-0.0434000641107559
-0.0467550158500671
-0.0483867526054382
-0.0483915843069553
-0.046985775232315
-0.0444716289639472
-0.0411973819136619
-0.0375175178050994
-0.0337578728795051
-0.0301870014518499
-0.026995800435543
-0.0242859460413455
-0.0220672618597745
-0.0202663466334342
-0.0187460016459226
-0.0173324570059776
-0.01584885828197
-0.0141489459201693
-0.0121402833610773
-0.0097920019179582
-0.0071309925988316
-0.0042323800735175
-0.0012062219902873
0.0018193423748016
0.0047171609476208
0.0073778945952653
0.0097201541066169
0.0116952834650874
0.0132892783731222
0.0145214535295963
0.0154403317719697
0.0161170288920402
0.0166342929005622
0.0170717127621173
0.0174933932721614
0.0179441235959529
0.0184534229338169
0.0190421249717474
0.0197249241173267
0.02050756290555
0.0213846582919359
0.02234205044806
0.0233603827655315
0.0244128070771694
0.0254513472318649
0.0263848975300788
0.0270618069916963
0.0272702444344759
0.0267577748745679
0.0252675171941518
0.0225920490920543
0.0186346173286438
0.0134535664692521
0.0072735846042633
0.0004628887400031
-0.0065152333118021
-0.0131640378385782
-0.0190145559608936
-0.0236755348742008
-0.0268679372966289
-0.0284450314939022
-0.028399096801877
-0.0268540605902671
-0.024045493453741
-0.0202941372990608
-0.0159738790243864
-0.0114689338952302
-0.0071267816238105
-0.0032222052104771
6.336200749501586e-05
0.0026507698930799
0.0045580412261188
0.0058792736381292
0.0067559080198407
0.0073500070720911
0.0078217405825853
0.0083109475672245
0.0089253894984722
0.0097381770610809
0.010790760628879
0.0120933391153812
0.0136214019730687
0.0153161035850644
0.0170918926596641
0.0188495349138975
0.0204942841082811
0.0219544265419244
0.0231906734406948
0.0241929721087217
0.0249708611518144
0.0255445353686809
0.0259374119341373
0.0261706970632076
0.0262629799544811
0.0262344256043434
0.0261105112731456
0.0259188525378704
0.0256804414093494
0.0254042595624923
0.0250882878899574
0.0247238092124462
0.0243005752563476
0.023808866739273
0.023232951760292
0.0225349497050046
0.0216348562389612
0.0203979983925819
0.0186421684920787
0.0161660779267549
0.0127898193895816
0.0083998497575521
0.0029906295239925
-0.0033137407153844
-0.010269571095705
-0.0175466705113649
-0.0247697196900844
-0.0315633453428745
-0.0375973619520664
-0.0426220968365669
-0.0464855805039405
-0.049133077263832
-0.0505975112318992
-0.0509872660040855
-0.0504690445959568
-0.0492448434233665
-0.0475277937948703
-0.0455190688371658
-0.0433864891529083
-0.0412520095705986
-0.0391939729452133
-0.0372525677084922
-0.0354280918836593
-0.0336817950010299
-0.0319485627114772
-0.0301553010940551
-0.0282344557344913
-0.0261310003697872
-0.0238087028264999
-0.0212570298463106
-0.0184940434992313
-0.0155620500445365
-0.0125190066173672
-0.0094307297840714
-0.0063646184280514
-0.0033863184507936
-0.0005600738804787
0.002053887117654
0.0044081243686378
0.006477226037532
0.0082616936415433
0.0097840167582035
0.0110795348882675
0.0121892988681793
0.01315797585994
0.0140319997444748
0.0148546202108263
0.0156599078327417
0.0164675582200288
0.0172782260924577
0.0180663503706455
0.0187663063406944
0.0192572101950645
0.0193613097071647
0.0188652351498603
0.0175596866756677
0.0152854435145854
0.0119752455502748
0.0076820561662316
0.0025850483216345
-0.0030267406255006
-0.0087877297773957
-0.0143000157549977
-0.0191795714199543
-0.0230982210487127
-0.0258164312690496
-0.0272004157304763
-0.0272267032414674
-0.0259817168116569
-0.0236531905829906
-0.0205071829259395
-0.0168526265770196
-0.0129996743053197
-0.0092211849987506
-0.0057265572249889
-0.0026502776890993
-5.2424147725105286e-05
0.0020730383694171
0.0037851389497518
0.0051788818091154
0.0063663013279438
0.0074616130441427
0.0085738040506839
0.0097986441105604
0.0112044569104909
0.0128197390586137
0.0146324001252651
0.0166010409593582
0.0186675116419792
0.0207637604326009
0.0228185169398784
0.0247661191970109
0.0265535321086645
0.0281443744897842
0.0295197032392025
0.0306754726916551
0.0316181927919387
0.0323617160320282
0.0329284518957138
0.033351082354784
0.03366694226861
0.0339084081351757
0.0340978763997554
0.0342480167746543
0.0343622304499149
0.0344295054674148
0.0344104692339897
0.0342197269201278
0.0337159447371959
0.0327071771025657
0.0309733636677265
0.0283037088811397
0.024541113525629
0.0196266807615757
0.0136365015059709
0.0067950179800391
-0.0005449000746011
-0.0079468311741948
-0.0149463973939418
-0.0211082436144351
-0.026077102869749
-0.0296145975589752
-0.0316147878766059
-0.0321006923913955
-0.0312105324119329
-0.0291768182069063
-0.026298139244318
-0.022906620055437
-0.019334428012371
-0.0158802829682827
-0.0127784786745905
-0.0101821646094322
-0.0081665087491273
-0.0067396275699138
-0.0058536175638437
-0.0054176887497305
-0.0053130602464079
-0.0054087685421109
-0.0055773146450519
-0.0057084169238805
-0.005718289874494
-0.0055521167814731
-0.0051837451756
-0.0046154903247952
-0.0038733268156647
-0.0029958318918943
-0.002022573724389
-0.0009916061535477
5.29484823346138e-05
0.0010568080469965
0.0019605159759521
0.0027068704366683
0.0032493807375431
0.0035611744970083
0.0036399709060788
0.0035085901618003
0.0032126484438776
0.0028158500790596
0.0023935688659548
0.0020231325179338
0.0017691794782876
0.0016662823036313
0.0017005959525704
0.001791214570403
0.0017773369327187
0.0014243926852941
0.0004565110430121
-0.0013929018750786
-0.0043255202472209
-0.0084270564839243
-0.0136330975219607
-0.0197239704430103
-0.0263478364795446
-0.0330627933144569
-0.0393918454647064
-0.0448812320828437
-0.0491496138274669
-0.051922008395195
-0.0530473440885543
-0.0525053180754184
-0.050406526774168
-0.046978160738945
-0.0425310134887695
-0.0374180562794208
-0.0319961719214916
-0.0265943855047225
-0.0214866213500499
-0.0168696157634258
-0.0128506161272525
-0.0094478167593479
-0.0066008530557155
-0.0041877999901771
-0.0020496770739555
-1.702830195426941e-05
0.0020720474421977
0.004357922822237
0.0069410502910614
0.0098679736256599
0.0131317600607872
0.0166839472949504
0.0204514097422361
0.0243539605289697
0.0283198524266481
0.0322930887341499
0.0362282320857048
0.0400807447731494
0.0438030287623405
0.0473467521369457
0.0506710037589073
0.0537558682262897
0.0566113702952861
0.0592709891498088
0.0617735311388969
0.0641459375619888
0.0663939416408538
0.0684996843338012
0.0704201608896255
0.0720787793397903
0.0733497738838195
0.0740463212132453
0.0739270374178886
0.0727261751890182
0.0701994597911834
0.0661757588386535
0.0606062151491642
0.0535988956689834
0.0454291924834251
0.0365176722407341
0.0273732598870992
0.0185220092535018
0.0104447090998291
0.003528332337737
-0.0019678575918078
-0.0059288856573402
-0.0083840480074286
-0.0094917323440313
-0.0095116458833217
-0.0087680229917168
-0.0076068975031375
-0.0063539389520883
-0.0052813808433711
-0.0045860954560339
-0.0043765604496002
-0.0046730134636163
-0.0054242890328168
-0.0065310159698128
-0.007863026112318
-0.0092713003978133
-0.0106011955067515
-0.0117089059203863
-0.0124776987358927
-0.0128300823271274
-0.0127321537584066
-0.0121899880468845
-0.0112435007467865
-0.0099598467350006
-0.0084224548190832
-0.0067125521600246
-0.0048878155648708
-0.0029715616255998
-0.0009587295353412
0.0011713281273841
0.0034419521689414
0.0058640874922275
0.0084224827587604
0.0110685415565967
0.0137178488075733
0.0162496604025363
0.0185128450393676
0.0203417465090751
0.0215747542679309
0.0220660902559757
0.0216857641935348
0.0203099139034748
0.017812967300415
0.0140702873468399
0.0089732967317104
0.0024590231478214
-0.005453173071146
-0.0146302655339241
-0.0248078927397727
-0.0355955436825752
-0.0465062335133552
-0.0570028387010097
-0.066553808748722
-0.0746896713972091
-0.0810507759451866
-0.085419625043869
-0.0877341777086258
-0.0880810841917991
-0.0866753011941909
-0.0838367193937301
-0.0799639075994491
-0.0754965841770172
-0.070868469774723
-0.0664616823196411
-0.0625691339373588
-0.0593669638037681
-0.0569009520113468
-0.0550911612808704
-0.0537557862699031
-0.0526491031050682
-0.0515051633119583
-0.0500814244151115
-0.0481939725577831
-0.0457318797707557
-0.0426513850688934
-0.0389670431613922
-0.0347472727298736
-0.0301059447228908
-0.0251864455640316
-0.0201414115726947
-0.015112018212676
-0.0102132493630051
-0.0055268225260078
-0.0010989382863044
0.0030553475953638
0.0069415974430739
0.0105761913582682
0.0139796771109104
0.0171698778867721
0.0201561376452446
0.0229385010898113
0.0255054142326116
0.0278234984725713
0.0298248715698719
0.0313967503607273
0.0323750674724578
0.0325494855642318
0.0316869169473648
0.0295736528933048
0.0260699223726987
0.02116234973073
0.0149966888129711
0.0078811375424265
0.0002594597171992
-0.0073400661349296
-0.0143677201122045
-0.0203144662082195
-0.0247673876583576
-0.0274553596973419
-0.0282750446349382
-0.027291091158986
-0.0247165486216545
-0.0208806544542312
-0.0161882154643535
-0.0110760442912578
-0.0059693735092878
-0.0012385081499814
0.0028384048491716
0.0060977321118116
0.0084951445460319
0.0100957956165075
0.011054940521717
0.0115919094532728
0.0119544379413127
0.0123769808560609
0.0130495317280292
0.0141039192676544
0.0156109817326068
0.0175852142274379
0.0199947319924831
0.022772554308176
0.0258263405412435
0.0290450844913721
0.0323063656687736
0.0354892164468765
0.0384896583855152
0.0412314757704734
0.0436713397502899
0.0458019264042377
0.0476484820246696
0.0492529273033142
0.0506546758115291
0.0518795549869537
0.05293445661664
0.0538030266761779
0.054439328610897
0.0547540225088596
0.0545972995460033
0.0537567064166069
0.0519819669425487
0.049030490219593
0.0447207503020763
0.0389830842614173
0.0318978130817413
0.0237112622708082
0.0148186553269624
0.0057153501547873
-0.0030633201822638
-0.0109995622187852
-0.0176465865224599
-0.0226732976734638
-0.0258914809674024
-0.027264192700386
-0.0269004926085472
-0.0250371303409338
-0.0220080651342868
-0.0182070638984441
-0.0140465656295418
-0.0099158948287367
-0.0061425641179084
-0.0029619964770972
-0.0005051284097135
0.0011944570578634
0.0021854951046407
0.002583832014352
0.0025547507684677
0.0022900733165442
0.0019823051989078
0.0018023485317826
0.0018838215619325
0.0023116127122193
0.0031151394359767
0.0042705885134637
0.0057122241705656
0.0073480792343616
0.0090775443241
0.0108079835772514
0.0124635491520166
0.013985252007842
0.0153288654983043
0.0164645761251449
0.0173779726028442
0.0180708412081003
0.0185603685677051
0.0188755877315998
0.0190511532127857
0.0191156864166259
0.0190685838460922
0.0188496056944131
0.0183190796524286
0.0172641817480325
0.0154359098523855
0.0126082655042409
0.0086375754326581
0.0035031139850616
-0.0026742964982986
-0.0096344035118818
-0.0170012041926383
-0.024326367303729
-0.0311456713825464
-0.0370370298624038
-0.0416678860783577
-0.0448244363069534
-0.0464223437011241
-0.0465045571327209
-0.0452298484742641
-0.0428500398993492
-0.0396753512322902
-0.0360335372388362
-0.0322358533740043
-0.0285572744905948
-0.0252202600240707
-0.0223741307854652
-0.0200805012136697
-0.0183164831250906
-0.0169934630393981
-0.0159812495112419
-0.015130890533328
-0.0142950974404811
-0.0133452806621789
-0.012183366343379
-0.0107489582151174
-0.0090224221348762
-0.0070227198302745
-0.0048009529709815
-0.0024342685937881
-2.148374915122986e-05
0.0023241396993398
0.0044868998229503
0.0063637606799602
0.0078804716467857
0.0090041644871234
0.0097473487257957
0.0101635474711656
0.0103384368121624
0.01037491671741
0.0103677846491336
0.0103712081909179
0.0103695709258317
0.0102648083120584
0.0098855476826429
0.0090112406760454
0.0074090901762247
0.0048866234719753
0.0013480372726917
-0.0031666588038206
-0.0084713427349925
-0.014251846820116
-0.0201067160815
-0.0256035290658473
-0.0303379260003566
-0.0339809358119964
-0.0363098606467247
-0.0372246876358985
-0.036751389503479
-0.0350317284464836
-0.0323008596897125
-0.028858408331871
-0.0250354688614606
-0.0211554784327745
-0.0174942482262849
-0.0142489653080701
-0.0115215573459863
-0.0093190530315041
-0.0075678420253098
-0.0061337235383689
-0.0048432969488203
-0.0035074586048722
-0.001948629040271
-2.843467518687248e-05
0.0023316356819123
0.0051407697610557
0.0083394851535558
0.0118072805926203
0.0153767736628651
0.0188573449850082
0.0220666006207466
0.0248595960438251
0.0271450635045766
0.0288865622133016
0.0300958417356014
0.030822318047285
0.0311383008956909
0.0311251524835824
0.030863394960761
0.0304189845919609
0.0298194885253906
0.0290294215083122
0.0279410239309072
0.0263849515467882
0.0241593103855848
0.0210791248828172
0.0170359797775745
0.0120445489883422
0.0062601012177765
-3.61977145075798e-05
-0.0064760204404592
-0.0126511724665761
-0.0181625243276357
-0.0226706825196743
-0.0259376186877489
-0.0278463475406169
-0.0284017380326986
-0.0277210790663957
-0.0260162781924009
-0.0235691610723733
-0.0207018461078405
-0.0177402663975954
-0.0149741554632782
-0.0126240216195583
-0.0108207333832979
-0.0095962574705481
-0.0088844690471887
-0.0085367346182465
-0.0083550978451967
-0.0081313047558069
-0.0076780510134994
-0.0068528247065842
-0.0055751521140336
-0.0038300631567835
-0.0016564764082431
0.0008678184822201
0.0036336067132651
0.0065050385892391
0.0093322647735476
0.0119723547250032
0.0143115790560841
0.0162802524864673
0.017854681238532
0.0190495420247316
0.0199057608842849
0.0204726345837116
0.0207818895578384
0.0208190754055976
0.0205051191151142
0.0197003558278083
0.0182341430336236
0.0159472990781068
0.0127332732081413
0.0085760708898305
0.0035781236365437
-0.0020346725359559
-0.0079330634325742
-0.0137242674827575
-0.0190019141882658
-0.0233936253935098
-0.0266000274568796
-0.0284243449568748
-0.0287905614823102
-0.0277479272335767
-0.0254622586071491
-0.0221945326775312
-0.0182677954435348
-0.014031202532351
-0.0098284035921096
-0.0059662358835339
-0.002682183869183
-0.0001186691224575
0.0016877120360732
0.0028004944324493
0.003365802578628
0.003586484119296
0.0036889342591166
0.0038888761773705
0.0043635824695229
0.0052326172590255
0.0065498454496264
0.0083094350993633
0.0104589015245437
0.0129089895635843
0.0155405681580305
0.018215162679553
0.020792057737708
0.0231489203870296
0.0251981504261493
0.0268927868455648
0.0282247494906187
0.029219402000308
0.0299234502017498
0.0303831156343221
0.0306140463799238
0.0305709727108478
0.0301324911415576
0.0291124880313873
0.0272971093654632
0.0244962610304355
0.020594447851181
0.0155901573598384
0.0096185486763715
0.0029499223455786
-0.0040427134372293
-0.0109375901520252
-0.0173184741288423
-0.022819809615612
-0.0271615274250507
-0.0301689021289348
-0.0317781344056129
-0.0320321843028068
-0.031068867072463
-0.0291015207767486
-0.0263917278498411
-0.0232204608619213
-0.0198637749999761
-0.0165677368640899
-0.0135214207693934
-0.0108378212898969
-0.0085479281842708
-0.0066053858026862
-0.0049017211422324
-0.0032924124971032
-0.0016284957528114
0.0002136500552296
0.0023103961721062
0.004680692218244
0.0072888741269707
0.0100581618025898
0.0128893870860338
0.0156762804836034
0.0183122064918279
0.0206960551440715
0.0227428823709487
0.0243929680436849
0.0256153419613838
0.0264080017805099
0.0267962161451578
0.0268271602690219
0.0265590548515319
0.0260437969118356
0.0253029894083738
0.0243039038032293
0.0229477062821388
0.0210834052413702
0.0185491200536489
0.0152217866852879
0.0110573368147015
0.0061153708957135
0.0005640834569931
-0.0053357942961156
-0.0112633053213357
-0.0168789327144622
-0.021868173032999
-0.0259771682322025
-0.0290319360792636
-0.03094376437366
-0.0317088514566421
-0.0314040370285511
-0.0301782414317131
-0.0282374434173107
-0.0258199907839298
-0.0231692921370267
-0.0205119028687477
-0.0180370975285768
-0.0158767830580472
-0.0140929697081446
-0.012676783837378
-0.011558529920876
-0.0106232045218348
-0.0097251143306493
-0.0087049910798668
-0.0074147088453173
-0.0057437154464423
-0.0036390479654073
-0.0011161335278302
0.0017433977918699
0.00480747083202
0.0079137291759252
0.0108895543962717
0.0135762039572
0.0158524457365274
0.0176464077085256
0.0189346894621849
0.0197362937033176
0.0201052092015743
0.0201202277094125
0.019872011616826
0.0194505658000707
0.0189348328858613
0.0183816086500883
0.0178100951015949
0.0171854551881551
0.016409832984209
0.0153240235522389
0.0137238297611474
0.011399395763874
0.0081901364028453
0.0040344395674765
-0.0009997887536883
-0.0067095984704792
-0.0127782095223665
-0.0188188143074512
-0.024428591132164
-0.0292390119284391
-0.0329553037881851
-0.0353832021355629
-0.0364435240626335
-0.0361740998923778
-0.0347182638943195
-0.0323053076863288
-0.0292270220816135
-0.0258065573871135
-0.0223586224019527
-0.0191504210233688
-0.0163728166371583
-0.0141227282583713
-0.0123987291008234
-0.0111145712435245
-0.0101252198219299
-0.009255570359528
-0.008328684605658
-0.0071905711665749
-0.0057257781736552
-0.0038612917996942
-0.0015629632398486
0.0011659399606287
0.0042814104817807
0.0076991729438304
0.0113035645335912
0.0149622000753879
0.0185422226786613
0.0219224207103252
0.0249983295798301
0.0276826806366443
0.0299053750932216
0.0316173732280731
0.0327983051538467
0.0334615409374237
0.0336527712643146
0.0334440171718597
0.0329256542026996
0.0321933627128601
0.0313281863927841
0.0303783770650625
0.0293479468673467
0.0281876847147941
0.0267913676798343
0.0250068362802267
0.0226640962064266
0.0196141302585601
0.0157700311392545
0.0111406026408076
0.0058455616235733
0.0001075081527233
-0.005773945711553
-0.0114569636061787
-0.016595909371972
-0.0208825301378965
-0.024085808545351
-0.0260798949748277
-0.0268538855016231
-0.0265049077570438
-0.0252193566411733
-0.023249227553606
-0.0208855271339416
-0.0184258576482534
-0.0161390956491231
-0.014235408976674
-0.0128466188907623
-0.0120187010616064
-0.0117167197167873
-0.0118368649855256
-0.0122203920036554
-0.0126760061830282
-0.013014106079936
-0.013078493066132
-0.0127629339694976
-0.0120139047503471
-0.0108239501714706
-0.0092198671773076
-0.0072527476586401
-0.004992947448045
-0.0025256932713091
5.563674494624138e-05
0.002657514065504
0.0051928590983152
0.0075840260833501
0.0097634736448526
0.011672893539071
0.0132597712799906
0.0144762322306633
0.0152885504066944
0.015692887827754
0.0157223790884017
0.0154425175860524
0.014940733090043
0.0143127273768186
0.0136500364169478
0.0130308354273438
0.0125080030411481
0.0120919132605195
0.0117324255406856
0.0113078998401761
0.0106328576803207
0.0094870589673519
0.0076537542045116
0.0049591548740863
0.0013136798515915
-0.003253037109971
-0.0085790827870368
-0.0143862469121813
-0.0203171726316213
-0.0259801596403121
-0.0309954099357128
-0.0350414924323558
-0.0378948599100112
-0.0394530184566974
-0.0397382751107215
-0.0388852879405021
-0.037116527557373
-0.0347082577645778
-0.0319534949958324
-0.029129659757018
-0.026470348238945
-0.0241404324769973
-0.0222202837467193
-0.0207019411027431
-0.0194971356540918
-0.0184589568525552
-0.0174136329442262
-0.0161922685801982
-0.014655090868473
-0.0127072446048259
-0.0103080794215202
-0.007473886013031
-0.004270922858268
-0.0007990328595042
0.0028245733119547
0.0064731356687843
0.0100143318995833
0.0133183812722563
0.0162715278565883
0.0187899842858314
0.0208269208669662
0.0223708618432283
0.0234394632279872
0.0240718573331832
0.0243221949785947
0.0242549497634172
0.0239407569169998
0.0234529934823513
0.0228653326630592
0.0222493037581443
0.0216655284166336
0.0211419817060232
0.0206477232277393
0.0200772378593683
0.0192531943321228
0.0179529655724763
0.0159548874944448
0.0130886873230338
0.0092785879969596
0.0045717633329331
-0.0008559413254261
-0.0067184455692768
-0.0126541629433631
-0.0182684976607561
-0.0231795031577348
-0.0270615555346012
-0.0296829584985971
-0.0309345815330743
-0.0308415070176124
-0.0295523405075073
-0.0273103676736354
-0.0244145989418029
-0.0211789160966873
-0.0178953725844621
-0.0148037187755107
-0.012068722397089
-0.0097698364406824
-0.0079044979065656
-0.0063993446528911
-0.0051261074841022
-0.0039229989051818
-0.0026197209954261
-0.0010644514113664
0.0008508097380399
0.0031769052147865
0.0059096198529005
0.0089987926185131
0.0123583506792783
0.0158775113523006
0.0194331239908933
0.0229006074368953
0.0261617600917816
0.0291103869676589
0.0316558815538883
0.033725693821907
0.035270407795906
0.0362720936536788
0.0367503315210342
0.036758467555046
0.0363702774047851
0.0356665663421154
0.0347291156649589
0.0336365923285484
0.0324523076415061
0.0312041826546192
0.0298636853694915
0.028332058340311
0.0264453757554292
0.024003479629755
0.0208158567547798
0.0167502500116825
0.0117715643718838
0.0059672081843018
-0.0004454107256606
-0.0071400259621441
-0.0137302950024604
-0.0198271516710519
-0.0250878538936376
-0.0292499810457229
-0.0321507528424263
-0.0337349735200405
-0.03405137732625
-0.0332394242286682
-0.0315116755664348
-0.029131032526493
-0.0263818353414535
-0.0235398709774017
-0.0208450555801391
-0.0184753332287073
-0.016524814069271
-0.0149989109486341
-0.0138303758576512
-0.0129023790359497
-0.0120689254254102
-0.0111743109300732
-0.0100727071985602
-0.0086458148434758
-0.0068150581791996
-0.0045462511479854
-0.0018497295677661
0.0012214472517371
0.0045777037739753
0.0081061301752924
0.0116873458027839
0.0152107495814561
0.0185844246298074
0.021734457463026
0.0245969742536544
0.027114950120449
0.0292403064668178
0.0309361312538385
0.0321802124381065
0.0329683274030685
0.033314574509859
0.033250980079174
0.0328258126974105
0.0320969223976135
0.0311195477843284
0.0299280099570751
0.0285108890384435
0.0267902053892612
0.0246232375502586
0.0218282286077737
0.0182222947478294
0.0136681273579597
0.0081204492598772
0.0016566552221775
-0.0055140852928161
-0.0130651658400893
-0.0205902699381113
-0.0276547223329544
-0.0338470004498958
-0.0388223975896835
-0.0423365384340286
-0.0442675091326236
-0.0446243286132812
-0.0435404181480407
-0.0412529185414314
-0.0380737781524658
-0.0343602709472179
-0.030483067035675
-0.0267867967486381
