bvp
0.0640921145677566
0.054643839597702
0.0438727810978889
0.0321958363056182
0.0201606396585702
0.0083757005631923
-0.0025643645785748
-0.0121444705873727
-0.0199770741164684
-0.0258333552628755
-0.0296589992940425
-0.0315674878656864
-0.0318100750446319
-0.0307348687201738
-0.0287467148154974
-0.0262689013034105
-0.0237025395035743
-0.0213859323412179
-0.019561918452382
-0.0183592848479747
-0.0177928712218999
-0.0177819672971963
-0.0181764420121908
-0.0187808349728584
-0.0193785224109888
-0.0197626296430826
-0.0197707787156105
-0.0193109363317489
-0.0183731541037559
-0.0170304663479328
-0.0154266552999615
-0.0137486364692449
-0.012190151028335
-0.0109187355265021
-0.0100569361820817
-0.0096796192228794
-0.0098193753510713
-0.0104721318930387
-0.0115989968180656
-0.0131229860708117
-0.0149273192510008
-0.0168664120137691
-0.0187904089689254
-0.020575888454914
-0.0221587233245372
-0.023565225303173
-0.0249321311712265
-0.0265013761818408
-0.0285790804773569
-0.0314656570553779
-0.0353794805705547
-0.0403936877846717
-0.0463987216353416
-0.0531028136610984
-0.0600713416934013
-0.0667874664068222
-0.0727170035243034
-0.0773724913597107
-0.08036969602108
-0.0814637318253517
-0.0805613249540329
-0.0777168422937393
-0.0731161236763
-0.0670488774776458
-0.0598746947944164
-0.0519878230988979
-0.0437816157937049
-0.0356135331094265
-0.0277754291892051
-0.0204729437828063
-0.0138150304555892
-0.0078131482005119
-0.0023904666304588
0.0025945678353309
0.0073109418153762
0.0119182765483856
0.0165436621755361
0.0212713982909917
0.0261413380503654
0.0311546772718429
0.0362820364534854
0.041468571871519
0.0466370470821857
0.0516913160681724
0.0565234422683715
0.0610267370939254
0.0651102736592292
0.0687098056077957
0.0717934668064117
0.0743586868047714
0.0764209479093551
0.0780036449432373
0.0791347175836563
0.0798453241586685
0.080164298415184
0.0801040232181549
0.0796348452568054
0.0786571279168129
0.0769936442375183
0.0744168013334274
0.0707046091556549
0.065706267952919
0.0593974590301513
0.0519138984382152
0.0435572750866413
0.0347653105854988
0.0260468963533639
0.0179038848727941
0.0107633145526051
0.0049292938783764
0.0005565737374126
-0.0023518004454672
-0.00392508180812
-0.0043911561369895
-0.0040366267785429
-0.0031676422804594
-0.0020760092884302
-0.0010132817551493
-0.0001734085381031
0.0003199949860572
0.000421717762947
0.0001599136739969
-0.0003828387707471
-0.0010907799005508
-0.0018317457288503
-0.0024724435061216
-0.0028940383344888
-0.0030061565339565
-0.0027573890984058
-0.0021381452679634
-0.0011736191809177
8.556991815567017e-05
0.0015679448843002
0.0031853839755058
0.0048429779708385
0.0064507946372032
0.0079301223158836
0.0092128328979015
0.0102386176586151
0.0109540857374668
0.0113141275942325
0.0112851373851299
0.0108479037880897
0.0099970065057277
0.0087338797748088
0.0070498250424861
0.0049031004309654
0.0022045038640499
-0.0011759549379348
-0.0053787007927894
-0.0105085261166095
-0.0165871307253837
-0.0235191844403743
-0.031087227165699
-0.0389798656105995
-0.0468384511768817
-0.0543036013841629
-0.0610510259866714
-0.0668137967586517
-0.0713941901922226
-0.07467021048069
-0.076602317392826
-0.0772420912981033
-0.0767327845096588
-0.0752918943762779
-0.0731822252273559
-0.0706810057163238
-0.0680476427078247
-0.065492458641529
-0.0631572157144546
-0.0611137077212333
-0.0593718402087688
-0.0578884594142437
-0.0565785281360149
-0.0553301274776458
-0.0540196672081947
-0.0525250136852264
-0.0507382601499557
-0.0485780872404575
-0.0459962785243988
-0.0429776422679424
-0.0395398400723934
-0.0357331670820713
-0.0316339582204818
-0.0273316707462072
-0.0229176096618175
-0.0184802785515785
-0.014101980254054
-0.0098529737442731
-0.0057867737486958
-0.0019378555007278
0.0016761911101639
0.0050426246598362
0.0081297336146235
0.0108594931662082
0.0130929481238126
0.0146396989002823
0.0152950445190072
0.0148984063416719
0.0133927017450332
0.0108641348779201
0.0075505152344703
0.0038153640925884
9.780656546354294e-05
-0.0031469566747546
-0.0055060721933841
-0.0066592171788215
-0.0064149610698223
-0.0047289542853832
-0.001702457666397
0.0024358257651329
0.0073596742004156
0.0126842372119426
0.0180102176964283
0.0229678992182016
0.0272595342248678
0.0306940115988254
0.0331997647881507
0.0348135381937027
0.0356583818793296
0.0359202399849891
0.035820722579956
0.035585768520832
0.0354185104370117
0.0354807004332542
0.0358796790242195
0.036661323159933
0.0378123298287391
0.0392702259123325
0.0409359708428382
0.0426873266696929
0.0443950742483139
0.0459403544664382
0.0472245514392852
0.0481695085763931
0.0487182736396789
0.048841506242752
0.0485435985028743
0.0478628426790237
0.0468653067946434
0.045631781220436
0.0442348271608352
0.0427076071500778
0.0410139113664627
0.039031658321619
0.0365627519786357
0.0333747752010822
0.029262863099575
0.0241096410900354
0.0179237090051174
0.0108504798263311
0.0031610408332198
-0.0047780778259038
-0.0125508643686771
-0.019742302596569
-0.0259845722466707
-0.0309941489249467
-0.0345958694815635
-0.0367352999746799
-0.0374810434877872
-0.0370138846337795
-0.0356000140309333
-0.033552061766386
-0.0311865378171205
-0.0287840757519006
-0.0265618897974491
-0.0246651601046323
-0.0231663603335618
-0.0220631286501884
-0.0212828442454338
-0.0207021068781614
-0.0201775096356868
-0.01957643404603
-0.0187973100692033
-0.0177768692374229
-0.0164885129779577
-0.0149352410808205
-0.0131386015564203
-0.0111264064908027
-0.008921843022108
-0.0065365955233573
-0.0039725336246192
-0.0012329993769526
0.001664028968662
0.0046808840706944
0.0077646123245358
0.0108543559908866
0.0138876130804419
0.0168043933808803
0.0195490252226591
0.0220718923956155
0.0243321005254983
0.0262976214289665
0.0279390588402748
0.0292167253792285
0.0300647467374801
0.0303786881268024
0.0300120767205953
0.0287884324789047
0.0265349335968494
0.0231311600655317
0.0185581892728805
0.0129343383014202
0.0065252063795924
-0.0002770428545773
-0.0070013413205742
-0.0131622944027185
-0.0183241963386535
-0.0221493504941463
-0.0244274213910102
-0.0250887162983417
-0.0242022275924682
-0.0219583790749311
-0.0186439659446477
-0.0146153848618268
-0.0102627743035554
-0.0059637008234858
-0.0020402185618877
0.0012697579804807
0.0038253830280154
0.0055844993330538
0.0065979957580566
0.0069940877147018
0.0069508915767073
0.0066651236265897
0.0063247694633901
0.0060874312184751
0.0060661011375486
0.0063243727199733
0.0068775890395045
0.0076960436999797
0.0087127545848488
0.0098372157663106
0.0109711056575179
0.0120227988809347
0.0129179852083325
0.0136046512052416
0.0140551021322608
0.0142667712643742
0.0142605816945433
0.0140735823661088
0.0137447752058506
0.0133031588047742
0.0127682071179151
0.0121591594070196
0.0114993546158075
0.0108105167746543
0.0101018995046615
0.0093539897352457
0.0084966048598289
0.0073937568813562
0.005850788205862
0.0036468170583248
0.0005834754556417
-0.0034629665315151
-0.0084993932396173
-0.0143938045948743
-0.0208784900605678
-0.0275778323411941
-0.0340532734990119
-0.0398551933467388
-0.0445772409439086
-0.0479114800691604
-0.0496929287910461
-0.0499181970953941
-0.0487348586320877
-0.0464096218347549
-0.0432862900197505
-0.0397402234375476
-0.0361315533518791
-0.0327632911503315
-0.029851745814085
-0.0275095291435718
-0.0257397387176752
-0.0244449339807033
-0.023450244218111
-0.022533094510436
-0.021459300071001
-0.0200249850749969
-0.0180891752243042
-0.0155858732759952
-0.0125204753130674
-0.0089591285213828
-0.0050161560066044
-0.0008393229800276
0.0034093167632818
0.007573340088129
0.0115169072523713
0.015133979730308
0.0183523297309875
0.0211325604468584
0.0234666373580694
0.0253788325935602
0.0269203223288059
0.0281524956226348
0.0291322600096464
0.029908062890172
0.0305191520601511
0.0309927463531494
0.0313393026590347
0.0315435901284217
0.0315503291785717
0.0312505215406417
0.0304793119430542
0.0290315672755241
0.0266959145665168
0.0233051888644695
0.0187928546220064
0.0132366176694631
0.0068683139979839
4.4764019548892975e-05
-0.0068010734394192
-0.0132096167653799
-0.0187441036105155
-0.0230422392487525
-0.0258611403405666
-0.0271037481725215
-0.0268236398696899
-0.0252108052372932
-0.0225625373423099
-0.0192458741366863
-0.0156564805656671
-0.0121756084263324
-0.0091285062953829
-0.0067500942386686
-0.0051642032340168
-0.0043815160170197
-0.0043143718503415
-0.0048001436516642
-0.0056281499564647
-0.0065698255784809
-0.0074087404645979
-0.007962442934513
-0.0080927303060889
-0.0077117243781685
-0.0067896246910095
-0.0053568254224956
-0.0034943879581987
-0.00131745217368
0.0010453457944095
0.0034722280688583
0.0058580012992024
0.0081129381433129
0.0101634906604886
0.011958697810769
0.0134722404181957
0.014696410857141
0.015634212642908
0.0162916779518127
0.0166716091334819
0.0167733449488878
0.0165976397693157
0.0161507930606603
0.01544248778373
0.0144720859825611
0.013206435367465
0.0115637145936489
0.0094125708565115
0.0065886941738426
0.0029325522482395
-0.0016588547732681
-0.0071853077970445
-0.013515742495656
-0.0203841794282197
-0.0274084843695163
-0.0341284871101379
-0.040059071034193
-0.0447516739368438
-0.047852236777544
-0.0491429269313812
-0.0485608950257301
-0.0461945235729217
-0.0422648154199123
-0.0371023416519165
-0.0311198495328426
-0.0247715599834918
-0.0185003019869327
-0.0126860309392213
-0.0076072067022323
-0.0034183133393526
-0.0001431033015251
0.0023147240281105
0.0041424166411161
0.0055775754153728
0.0068676397204399
0.0082367733120918
0.009861659258604
0.0118568073958158
0.0142712863162159
0.0170939434319734
0.0202619470655918
0.0236733965575695
0.027201734483242
0.0307075306773185
0.0340511128306388
0.0371085219085216
0.0397863052785396
0.0420292727649211
0.0438185557723045
0.0451632291078567
0.0460903830826282
0.0466350838541984
0.0468286387622356
0.0466814115643501
0.0461582019925117
0.0451515391469001
0.0434705205261707
0.0408660434186458
0.0370908379554748
0.0319711491465568
0.0254696067422628
0.0177259463816881
0.0090637747198343
-4.002917557954788e-05
-0.009014930576086
-0.0172726195305585
-0.0242832973599433
-0.0296365786343812
-0.0330798961222171
-0.0345335379242897
-0.0340838953852653
-0.0319637283682823
-0.0285264998674392
-0.0242090430110692
-0.0194810554385185
-0.0147933904081583
-0.0105324378237128
-0.0069817909970879
-0.0042979726567864
-0.0025056460872292
-0.0015097828581929
-0.0011210227385163
-0.0010906681418418
-0.0011500939726829
-0.0010496089234948
-0.0005902890115976
0.0003565195947885
0.0018408233299851
0.0038353549316525
0.0062490939162671
0.0089511573314666
0.011795399710536
0.0146382544189691
0.0173514690250158
0.0198320485651493
0.0220078378915786
0.0238373707979917
0.0253042597323656
0.0264087542891502
0.0271604340523481
0.0275758281350135
0.0276812352240085
0.0275146216154098
0.0271163899451494
0.0265042707324028
0.025641793385148
0.0244166199117898
0.0226397085934877
0.0200675148516893
0.0164438188076019
0.0115557583048939
0.0052948025986552
-0.0022912072017788
-0.0109726199880242
-0.0203509368002414
-0.0299047641456127
-0.0390531718730926
-0.0472226813435554
-0.0539088398218154
-0.058729562908411
-0.0614677667617797
-0.0620936900377273
-0.0607607848942279
-0.0577787011861801
-0.0535675846040248
-0.0486009120941162
-0.0433486625552177
-0.0382282398641109
-0.0335658155381679
-0.0295706149190664
-0.0263242647051811
-0.0237882286310195
-0.0218282658606767
-0.0202460661530494
-0.0188100393861532
-0.0172878224402666
-0.0154815847054123
-0.0132549628615379
-0.0105421347543597
-0.0073432503268122
-0.0037146620452404
0.0002434412017464
0.0044026859104633
0.0086232349276542
0.0127676371484994
0.0167115926742553
0.0203535687178373
0.0236215312033891
0.0264730509370565
0.0288912579417228
0.0308825615793466
0.032472625374794
0.0336959697306156
0.0345853343605995
0.0351638123393058
0.0354319363832473
0.0353435724973678
0.0347796753048896
0.033540241420269
0.0313683860003948
0.0280045010149478
0.0232539903372526
0.0170494150370359
0.0094944331794977
0.0008796663023531
-0.0083362516015768
-0.0175786800682544
-0.0262322723865509
-0.0337225496768951
-0.0395842045545578
-0.0435065180063247
-0.0453549996018409
-0.0451706536114215
-0.0431518517434597
-0.0396234840154647
-0.0349962897598743
-0.0297214277088642
-0.024244075641036
-0.0189585946500301
-0.014170192182064
-0.0100679602473974
-0.0067122671753168
-0.0040423795580863
-0.001908479258418
-0.0001168325543403
0.0015316717326641
0.0032170563936233
0.0050837378948926
0.0072265937924385
0.0096830632537603
0.0124375782907009
0.0154351294040679
0.0185943245887756
0.0218171812593936
0.0249992795288562
0.0280422605574131
0.0308663956820964
0.0334180369973182
0.0356698259711265
0.037615168839693
0.0392586179077625
0.0406080111861228
0.0416734889149665
0.0424699187278747
0.0430138260126113
0.043306715786457
0.0433047488331794
0.0428872257471084
0.0418450571596622
0.0399038046598434
0.0367776490747928
0.0322384759783744
0.0261836014688015
0.0186895634979009
0.0100370477885007
0.0006908907089382
-0.0087631857022643
-0.0177000313997268
-0.0255304649472236
-0.0317627005279064
-0.0360489934682846
-0.0382166244089603
-0.0382803082466125
-0.0364318899810314
-0.033009186387062
-0.0284501574933528
-0.0232379268854856
-0.017845157533884
-0.0126877324655652
-0.0080902744084596
-0.0042615644633769
-0.0012856523972004
0.000865955138579
0.002310691634193
0.0032311517279595
0.0038512735627591
0.0044084973633289
0.0051222862675786
0.006165100261569
0.0076424200087785
0.0095852985978126
0.0119552947580814
0.0146591775119304
0.0175673384219408
0.0205282568931579
0.0233808737248182
0.0259731616824865
0.0281815025955438
0.0299181770533323
0.0311320591717958
0.0318132862448692
0.0319981724023819
0.0317656546831131
0.0312202349305152
0.0304610673338174
0.0295418594032526
0.0284302253276109
0.0269815512001514
0.0249463878571987
0.0220199227333068
0.017921108752489
0.0124758016318082
0.0056797936558723
-0.002275651320815
-0.0110209174454212
-0.0200580824166536
-0.0288277603685855
-0.0367785468697547
-0.0434286259114742
-0.0484124608337879
-0.0515098571777343
-0.0526605993509292
-0.051967442035675
-0.0496836751699447
-0.0461829230189323
-0.0419148579239845
-0.0373517870903015
-0.0329321101307868
-0.0290115159004926
-0.0258342660963535
-0.023524846881628
-0.0220900066196918
-0.0214278977364301
-0.0213474594056606
-0.0215981844812631
-0.0219061654061079
-0.0220104791224002
-0.0216951016336679
-0.0208119265735149
-0.0192930176854133
-0.0171507429331541
-0.0144633939489722
-0.0113532524555921
-0.0079661672934889
-0.0044525936245918
-0.0009541045874357
0.0023998133838176
0.0054947081953287
0.0082414336502552
0.0105848275125026
0.0125040579587221
0.0140088628977537
0.0151368435472249
0.01595064625144
0.0165303293615579
0.016960434615612
0.0173147935420274
0.0176395177841186
0.0179307963699102
0.0181083958595991
0.0179958306252956
0.0173178389668464
0.015722818672657
0.0128389000892639
0.0083589162677526
0.0021280199289321
-0.0057951118797063
-0.0151182794943451
-0.0253405068069696
-0.0358168706297874
-0.0458457209169864
-0.0547560900449752
-0.0619803667068481
-0.0671057105064392
-0.0699031427502632
-0.0703349485993385
-0.0685423165559768
-0.0648187398910522
-0.0595738478004932
-0.0532869324088096
-0.0464522242546081
-0.0395255014300346
-0.0328824669122695
-0.0267931334674358
-0.0214097537100315
-0.0167666338384151
-0.0127931088209152
-0.0093386061489582
-0.0062056118622422
-0.0031853420659899
-8.936785161495209e-05
0.0032290546223521
0.0068640923127532
0.0108511056751012
0.0151628190651535
0.0197130180895328
0.0243713054805994
0.0289846453815698
0.0333994813263416
0.0374812595546245
0.0411291234195232
0.0442839264869689
0.0469293668866157
0.0490849614143371
0.050791785120964
0.0520992130041122
0.0530583634972572
0.053720399737358
0.0541362687945365
0.0543529354035854
0.0544060245156288
0.0543188117444515
0.0541087314486503
0.0537897087633609
0.0533633306622505
0.0527986101806163
0.0520032793283462
0.0507990308105945
0.0489174164831638
0.0460267774760723
0.0417904704809188
0.0359436348080635
0.0283673610538244
0.0191415213048458
0.0085632419213652
-0.0028777658008038
-0.0145639162510633
-0.0258342120796442
-0.036063440144062
-0.0447232127189636
-0.0514256209135055
-0.055950827896595
-0.0582557246088981
-0.0584656074643135
-0.0568528324365615
-0.053801704198122
-0.0497600808739662
-0.0451849065721035
-0.0404928550124168
-0.0360215827822685
-0.0320019759237766
-0.0285477824509143
-0.0256657786667346
-0.0232755504548549
-0.021229650825262
-0.0193365029990673
-0.0173899233341217
-0.0152009828016161
-0.0126234386116266
-0.0095701562240719
-0.0060216234996914
-0.0020234016701579
0.0023273294791579
0.0068984292447566
0.0115385111421346
0.01609468460083
0.020431375131011
0.0244391020387411
0.0280296467244625
0.0311319828033447
0.0336972959339618
0.0357055887579917
0.0371684096753597
0.0381276607513427
0.0386499129235744
0.0388168953359127
0.0387157946825027
0.0384326204657554
0.0380467250943183
0.0376206561923027
0.0371805615723133
0.0366888381540775
0.036018531769514
0.0349418930709362
0.033146284520626
0.030286593362689
0.0260644070804119
0.0203085094690322
0.013035612180829
0.0044772932305932
-0.0049350783228874
-0.0146237984299659
-0.0239439904689788
-0.0322714075446128
-0.0390790179371833
-0.0439889132976532
-0.0467993505299091
-0.0474911741912364
-0.046215109527111
-0.0432653203606605
-0.0390447303652763
-0.0340201072394847
-0.0286684166640043
-0.0234236512333154
-0.0186329204589128
-0.0145283937454223
-0.0112169487401843
-0.0086858728900551
-0.0068225739523768
-0.0054442323744297
-0.0043320450931787
-0.0032650509383529
-0.0020497061777859
-0.0005413577891886
0.0013471557758748
0.0036460170522332
0.0063294977881014
0.0093199107795953
0.0125000998377799
0.0157329943031072
0.0188837610185146
0.0218383260071277
0.0245131719857454
0.0268569905310869
0.0288460459560155
0.0304759945720434
0.0317575372755527
0.0327190309762954
0.0334090627729892
0.0338931269943714
0.0342471525073051
0.0345485880970954
0.0348625853657722
0.0352302119135856
0.0356678776443004
0.0361741557717323
0.0367319285869598
0.0373022481799125
0.0378190651535987
0.0381883680820465
0.0382819436490535
0.0379193499684333
0.0368495658040046
0.0347542613744735
0.0312847197055816
0.0261260867118835
0.0190698727965354
0.0100726708769798
-0.0007112696766853
-0.01292609795928
-0.0260392762720584
-0.0393939167261123
-0.052281592041254
-0.0640220344066619
-0.0740354135632515
-0.0818970203399658
-0.0873678624629974
-0.0904000625014305
-0.0911213308572769
-0.0898054465651512
-0.0868348628282547
-0.0826561823487281
-0.0777296274900436
-0.0724827349185943
-0.0672784000635147
-0.0623935796320438
-0.0580026283860206
-0.0541702061891555
-0.0508572123944759
-0.04793656244874
-0.0452190674841403
-0.0424881279468536
-0.039536602795124
-0.036198504269123
-0.0323685333132743
-0.0280076954513788
-0.0231394339352846
-0.0178402420133352
-0.0122276144102215
-0.006448776461184
-0.0006692400202155
0.0049425461329519
0.010234922170639
0.0150911230593919
0.019437376409769
0.0232418961822986
0.0265105403959751
0.0292795971035957
0.0316069424152374
0.0335636138916015
0.0352236628532409
0.0366514399647712
0.037892073392868
0.0389727503061294
0.0399115234613418
0.0407180413603782
0.0413838997483253
0.0418800823390483
0.0421673059463501
0.0422085486352443
0.0419765599071979
0.0414536073803901
0.040619857609272
0.0394289530813694
0.0377775169909
0.0354864373803138
0.0323134399950504
0.0280009023845195
0.0223452113568782
0.0152682606130838
0.0068699424155056
-0.00255659641698
-0.0125501211732625
-0.0225367955863475
-0.0319037623703479
-0.0400757566094398
-0.0465786419808864
-0.051082294434309
-0.0534226819872856
-0.0536049529910087
-0.0517907254397869
-0.048273030668497
-0.0434437617659568
-0.0377559289336204
-0.0316774435341358
-0.0256386157125234
-0.0199852492660284
-0.0149502363055944
-0.0106479059904813
-0.0070826318114995
-0.0041636656969785
-0.0017285179346799
0.0004250109195709
0.0025067403912544
0.0047067254781723
0.0071723572909832
0.0099929142743349
0.0131933335214853
0.0167373176664114
0.0205402988940477
0.0244877878576517
0.0284548476338386
0.0323245152831077
0.035997774451971
0.0393928177654743
0.0424421690404415
0.0450922325253486
0.047304131090641
0.0490553453564643
0.0503421053290367
0.0511814504861831
0.0516091808676719
0.0516732856631279
0.0514291003346443
0.0509383380413055
0.0502666793763637
0.0494780614972114
0.0486306026577949
0.0477733090519905
0.0469335243105888
0.0460921078920364
0.0451561883091926
0.043942455202341
0.0421836450695991
0.0395630300045013
0.0357702374458313
0.0305688101798295
0.0238620862364768
0.0157382152974605
0.0064812051132321
-0.0034546763636171
-0.0135013815015554
-0.0230504982173442
-0.0315260253846645
-0.0384439937770366
-0.0434581190347671
-0.0463925600051879
-0.0472547933459281
-0.0462239161133766
-0.0436191707849502
-0.0398561879992485
-0.0353970974683761
-0.0307003762573003
-0.0261758230626583
-0.0221484564244747
-0.0188342295587062
-0.0163297001272439
-0.0146159771829843
-0.013575118035078
-0.0130151379853487
-0.0126995602622628
-0.0123827559873461
-0.0118496119976043
-0.0109458202496171
-0.009589672088623
-0.0077686640433967
-0.0055267764255404
-0.0029492191970348
-0.0001464737579226
0.0027629286050796
0.0056641697883605
0.0084498524665832
0.0110234767198562
0.0133068729192018
0.0152463121339678
0.0168149340897798
0.0180146768689155
0.0188722945749759
0.0194242075085639
0.0197015311568975
0.0197265073657035
0.0195178538560867
0.0190981067717075
0.0184962358325719
0.017743706703186
0.0168700218200683
0.0159030146896839
0.01487104780972
0.0137997604906558
0.012699956074357
0.0115474127233028
0.010258387774229
0.0086722522974014
0.0065532177686691
0.0036174654960632
-0.000410258769989
-0.0057235546410083
-0.0123744215816259
-0.0202420689165592
-0.0290287695825099
-0.0382841639220714
-0.0474581196904182
-0.055970013141632
-0.063278704881668
-0.0689411535859108
-0.0726543739438057
-0.0742818713188171
-0.0738614872097969
-0.0715886577963829
-0.0677828937768936
-0.0628506690263748
-0.0572444871068
-0.0514149516820907
-0.0457618124783039
-0.0405933707952499
-0.0361032113432884
-0.0323659516870975
-0.029345516115427
-0.0269132442772388
-0.02487731911242
-0.0230180770158767
-0.0211197733879089
-0.0189954694360494
-0.0165058970451354
-0.0135712753981351
-0.0101755699142813
-0.0063631171360611
-0.0022255382500588
0.0021183292847126
0.006542996969074
0.0109322760254144
0.0151852751150727
0.0192146264016628
0.0229470990598201
0.0263280775398015
0.0293232817202806
0.0319161526858806
0.0341033935546875
0.0358907654881477
0.0372930839657783
0.0383403114974498
0.0390801765024662
0.039568405598402
0.0398559384047985
0.0399840585887432
0.0399820730090141
0.0398598276078701
0.0395924970507621
0.0390978977084159
0.0382162295281887
0.0367102846503257
0.0342990234494209
0.0307205282151699
0.0258033573627471
0.0195231959223747
0.0120328068733215
0.0036612048279494
-0.005122335627675
-0.0137736806645989
-0.0217459127306938
-0.0285516865551471
-0.0338118001818656
-0.0372838899493217
-0.0388712510466575
-0.0386212170124053
-0.0367156453430652
-0.0334488861262798
-0.0291948541998863
-0.0243684779852628
-0.0193843320012092
-0.0146162156015634
-0.0103607354685664
-0.006807267665863
-0.0040253838524222
-0.0019779950380325
-0.0005477545782923
0.0004375940188765
0.0011812429875135
0.0018918421119451
0.0027555609121918
0.0039112269878387
0.0054377275519073
0.007353569380939
0.0096239699050784
0.0121736545115709
0.0149005483835935
0.0176874585449695
0.0204175971448421
0.0229918248951435
0.0253335461020469
0.0273814834654331
0.0290853939950466
0.0304094515740871
0.0313358455896377
0.0318651869893074
0.0320174917578697
0.0318331196904182
0.0313687361776828
0.0306897144764661
0.0298623051494359
0.0289429575204849
0.027961092069745
0.0268962644040584
0.0256567727774381
0.0240713618695735
0.0219032727181911
0.0188895612955093
0.0148029197007417
0.0095206461846828
0.003074787557125
-0.0043322136625647
-0.0123438965529203
-0.0204897094517946
-0.028241466730833
-0.0350773036479949
-0.040541511029005
-0.0442937314510345
-0.0461455509066581
-0.0460788272321224
-0.0442390963435173
-0.0409070774912834
-0.0364609695971012
-0.0313373617827892
-0.0259882286190986
-0.0208344534039497
-0.0162256136536598
-0.012410826049745
-0.0095196468755602
-0.0075574284419417
-0.0064176940359175
-0.0059061590582132
-0.0057735303416848
-0.0057558994740247
-0.0056122560054063
-0.0051493635401129
-0.0042358702048659
-0.002808095421642
-0.0008696750737726
0.0015127616934478
0.004222952760756
0.0071182530373334
0.0100532351061701
0.0128959026187658
0.0155367068946361
0.0178935527801513
0.0199135933071374
0.0215718261897563
0.0228670611977577
0.0238149613142013
0.0244414471089839
0.0247811451554298
0.0248787365853786
0.0247884336858987
0.0245668329298496
0.0242564156651496
0.0238642934709787
0.0233413204550743
0.0225649178028106
0.0213346891105175
0.0193916726857423
0.0164653118699789
0.0123389661312103
0.0069120284169912
0.0002413992770016
-0.0074433870613574
-0.0157558396458625
-0.0241970140486955
-0.0322147607803344
-0.0392670631408691
-0.0448866635560989
-0.0487366095185279
-0.0506426803767681
-0.0506002753973007
-0.0487612746655941
-0.0454076863825321
-0.0409166365861892
-0.0357164926826953
-0.0302383117377758
-0.0248734224587678
-0.0199426710605621
-0.0156747549772262
-0.0121929086744785
-0.0095135765150189
-0.0075558442622423
-0.00615812279284
-0.0051058828830718
-0.0041689677163958
-0.0031349156051874
-0.0018289005383849
-0.0001227017492055
0.0020605325698852
0.0047435304149985
0.0078978957608342
0.0114551950246095
0.015322333201766
0.0193941202014684
0.0235595218837261
0.0277055203914642
0.0317232422530651
0.0355148762464523
0.038998894393444
0.0421098843216896
0.0447915941476821
0.0469929762184619
0.0486733093857765
0.0498097352683544
0.0504014417529106
0.0504667721688747
0.0500259920954704
0.0490675121545791
0.0475120469927787
0.045197557657957
0.041897676885128
0.0373708009719848
0.0314269363880157
0.0239944290369749
0.0151675716042518
0.0052199740894138
-0.0054188705980777
-0.0162129048258066
-0.0265818014740943
-0.03596693277359
-0.0438913851976394
-0.0500033274292945
-0.0540988035500049
-0.0561277121305465
-0.0561849698424339
-0.054488368332386
-0.051346369087696
-0.0471186898648738
-0.0421762876212596
-0.0368659347295761
-0.0314788557589054
-0.0262301173061132
-0.02125770971179
-0.016634440049529
-0.0123797040432691
-0.0084691634401679
-0.0048461691476404
-0.0014374521560966
0.0018285205587744
0.0050075151957571
0.0081339860334992
0.011221582069993
0.0142659749835729
0.0172465443611145
0.0201272759586572
0.0228618178516626
0.0254010744392871
0.0276948660612106
0.0296887662261724
0.0313247703015804
0.0325469262897968
0.0333089008927345
0.0335828028619289
0.0333684273064136
0.0326990969479084
0.0316384173929691
0.0302692018449306
0.0286789424717426
0.0269349291920661
0.0250452123582363
0.0229224041104316
0.0203740950673818
0.0171299036592245
0.0128945102915167
0.0074108568951487
0.0005274508148431
-0.0077412659302353
-0.0171832237392663
-0.0273975301533937
-0.0378387756645679
-0.0478866025805473
-0.0569258779287338
-0.0644183754920959
-0.0699555948376655
-0.0732934325933456
-0.0743698924779892
-0.073304146528244
-0.0703745782375335
-0.0659771412611007
-0.0605757795274257
-0.0546567402780056
-0.0486848503351211
-0.0430574752390384
-0.0380632802844047
-0.0338570550084114
-0.0304571539163589
-0.0277634803205728
-0.0255874320864677
-0.0236872546374797
-0.021805141121149
-0.0197014808654785
-0.0171826127916574
-0.0141203980892896
-0.0104618091136217
-0.0062265843152999
-0.0014973953366279
0.0035900715738534
0.00885995849967
0.0141175482422113
0.0191761068999767
0.0238822102546691
0.0281324721872806
0.0318782925605773
0.0351193323731422
0.0378892198204994
0.040240578353405
0.0422342009842395
0.0439285188913345
0.0453607402741909
0.0465182140469551
0.0473069921135902
0.0475292429327964
0.0468903183937072
0.0450505763292312
0.041709117591381
0.0366900190711021
0.0300087630748748
0.021905168890953
0.0128318518400192
0.0033985050395131
-0.0057117529213428
-0.0138323288410902
-0.0203930232673883
-0.0249799638986587
-0.0273697525262832
-0.02753740362823
-0.0256421938538551
-0.0219985451549291
-0.0170396529138088
-0.0112743247300386
-0.0052343644201755
0.0005840174853801
0.0057765953242778
0.010072779841721
0.0133527629077434
0.0156411677598953
0.0170826092362403
0.0179050080478191
0.0183781199157238
0.0187740791589021
0.0193336457014083
0.0202415399253368
0.0216140542179346
0.023493418470025
0.0258449371904134
0.0285656340420246
0.0315061137080192
0.0344957187771797
0.037365898489952
0.0399706661701202
0.0422012768685817
0.0439926758408546
0.0453211739659309
0.0461957603693008
0.0466462671756744
0.0467111021280288
0.046429269015789
0.0458407998085022
0.0449906662106514
0.0439191237092018
0.0426305420696735
0.0410569310188293
0.039036002010107
0.0363146439194679
0.0325850248336792
0.0275485627353191
0.020989567041397
0.0128400847315788
0.0032232552766799
-0.0075346725061535
-0.0189285315573215
-0.030332488939166
-0.0410816483199596
-0.0505568832159042
-0.0582542829215526
-0.0638331547379493
-0.0671410337090492
-0.0682122409343719
-0.067243218421936
-0.064555786550045
-0.0605575516819953
-0.0557013973593711
-0.0504432842135429
-0.0451989620923996
-0.0403033792972564
-0.0359815880656242
-0.0323382504284381
-0.0293633341789245
-0.0269488971680402
-0.0249135755002498
-0.0230321027338504
-0.0210720971226692
-0.0188363809138536
-0.0161958150565624
-0.0131011102348566
-0.0095748826861381
-0.0056924424134194
-0.0015635266900062
0.0026812553405761
0.0069031491875648
0.0109667405486106
0.0147496201097965
0.0181508734822273
0.0210971944034099
0.0235462393611669
0.0254887156188488
0.0269481688737869
0.0279725547879934
0.028618186712265
0.0289364270865917
0.0289682280272245
0.0287426449358463
0.0282700210809707
0.0275215301662683
0.0264007505029439
0.0247250963002443
0.0222345013171434
0.018637390807271
0.0136859398335218
0.0072538685053586
-0.0006067473441362
-0.0096382945775985
-0.0193867236375808
-0.0292553473263978
-0.0385940596461296
-0.0467926412820816
-0.0533526986837387
-0.0579316169023513
-0.0603608191013336
-0.0606444701552391
-0.0589440315961837
-0.0555512756109237
-0.0508534014225006
-0.0452939867973327
-0.0393303595483303
-0.0333896204829216
-0.0278305485844612
-0.022914757952094
-0.0187868177890777
-0.0154706612229347
-0.0128870671615004
-0.0108807049691677
-0.0092480815947055
-0.0077675664797425
-0.0062271943315863
-0.0044459020718932
-0.0022910817060619
0.0003065676137339
0.0033445202279835
0.0067508886568248
0.0103981774300336
0.0141204269602894
0.0177296139299869
0.0210379790514707
0.0238863192498683
0.0261645969003438
0.0278177410364151
0.0288444068282842
0.0292942691594362
0.029262064024806
0.0288787223398685
0.028299605473876
0.0276866871863603
0.0271840393543243
0.0268889348953962
0.0268182195723056
0.0268726795911788
0.0268168728798627
0.0262987688183784
0.0249174498021602
0.0223187617957592
0.0182826034724712
0.0127771683037281
0.0059791938401758
-0.0017376695759594
-0.0098500903695821
-0.0177589952945709
-0.0248712413012981
-0.0306750014424324
-0.0347952097654342
-0.0370202735066413
-0.0373074412345886
-0.035775639116764
-0.0326849333941936
-0.0284027718007564
-0.0233598053455352
-0.0179988630115985
-0.0127291120588779
-0.0078936954960227
-0.0037450985983014
-0.0004276076797395
0.0020270685199648
0.0036920295096933
0.0047276043333113
0.0053533855825662
0.0058135283179581
0.0063417912460863
0.0071298829279839
0.0083034271374344
0.0099116405472159
0.0119324289262294
0.0142889861017465
0.0168697703629732
0.0195431821048259
0.0221660546958446
0.0245944485068321
0.0267016608268022
0.028395626693964
0.0296277496963739
0.0303931348025798
0.0307228751480579
0.0306714456528425
0.0303058475255966
0.0296981632709503
0.0289194360375404
0.0280322059988975
0.0270765665918588
0.0260476507246494
0.0248701237142086
0.02338064648211
0.0213317200541496
0.0184271354228258
0.0143878860399127
0.0090319812297821
0.0023407917469739
-0.0055096643045544
-0.0141575029119849
-0.0230985879898071
-0.0317549034953117
-0.0395518206059932
-0.0459879860281944
-0.0506881475448608
-0.0534342415630817
-0.0541740730404853
-0.0530132725834846
-0.0501985698938369
-0.0460924282670021
-0.0411338210105896
-0.0357870087027549
-0.0304874572902917
-0.0255946442484855
-0.0213587135076522
-0.0179054029285907
-0.0152405891567468
-0.0132694533094763
-0.0118223000317811
-0.0106833530589938
-0.0096228551119565
-0.0084298597648739
-0.006936237681657
-0.0050258473493158
-0.0026387507095932
0.000221493653953
0.0034880107268691
0.007045139092952
0.0107496287673711
0.0144502595067024
0.0180019419640302
0.0212758593261241
0.024169698357582
0.0266164559870958
0.0285878852009773
0.0300922915339469
0.0311682019382715
0.031876228749752
0.0322906970977783
0.0324889905750751
0.0325375534594059
0.03248081356287
0.0323413051664829
0.0321256183087825
0.0318206436932086
0.0313742347061634
0.0306691192090511
0.0295088216662406
0.0276328567415475
0.0247609261423349
0.0206518899649381
0.0151655096560716
0.0083147613331675
0.0002919835969805
-0.0085376612842082
-0.0176719706505537
-0.0265351869165897
-0.0345581248402595
-0.0412519425153732
-0.0462587252259254
-0.0493755489587783
-0.0505591481924057
-0.0499191917479038
-0.0477005764842033
-0.0442518070340156
-0.0399812422692775
-0.0353108942508697
-0.0306345596909523
-0.0262786280363798
-0.0224691089242696
-0.0193151421844959
-0.0168113391846418
-0.0148569643497467
-0.0132906110957264
-0.0119266491383314
-0.0105776600539684
-0.0090693617239594
-0.0072602955624461
-0.0050608133897185
-0.0024401992559432
0.0005786437541246
0.0039295079186558
0.0075135240331292
0.0112105701118707
0.0148923397064208
0.0184363983571529
0.0217393264174461
0.0247253812849521
0.0273460950702428
0.0295729152858257
0.0313917435705661
0.0328014120459556
0.0338129773736
0.0344512090086936
0.0347577631473541
0.0347905755043029
0.0346169285476207
0.0343015938997268
0.0338939502835273
0.0334151200950145
0.0328389964997768
0.0320680625736713
0.0309224538505077
0.0291578024625778
0.026505634188652
0.0227245762944221
0.0176592171192169
0.0112966345623135
0.003801402170211
-0.0044856593012809
-0.013090050779283
-0.0214740857481956
-0.0291098393499851
-0.035539474338293
-0.0404188111424446
-0.0435423403978347
-0.0448517277836799
-0.0444335117936134
-0.042505145072937
-0.0393832810223102
-0.0354425124824047
-0.0310785975307226
-0.0266726575791835
-0.0225507114082574
-0.018949344754219
-0.0159983318299055
-0.0137199852615594
-0.0120425056666135
-0.0108224470168352
-0.009869591332972
-0.0089743938297033
-0.0079390723258256
-0.0066063730046153
-0.0048774983733892
-0.0027146646752953
-0.0001343023031949
0.0027988720685243
0.0059793004766106
0.0092787714675068
0.0125694498419761
0.0157378893345594
0.0186906307935714
0.0213594939559698
0.0237069129943847
0.025727342814207
0.0274417344480752
0.0288849174976348
0.0300929918885231
0.0310980342328548
0.0319263376295566
0.0325954891741275
0.0331107787787914
0.0334529876708984
0.0335492715239524
0.0332430340349674
0.032292440533638
0.0304077975451946
0.0273151453584432
0.0228274408727884
0.0169034004211425
0.0096772778779268
0.0014556189998984
-0.0073131578974425
-0.0160898901522159
-0.0243090204894542
-0.0314455479383468
-0.0370713397860527
-0.0408922210335731
-0.0427701957523822
-0.0427352972328662
-0.0409789495170116
-0.0378232561051845
-0.0336756072938442
-0.0289809182286262
-0.0241751279681921
-0.0196419041603803
-0.0156780537217855
-0.0124711338430643
-0.0100898351520299
-0.0084898099303245
-0.0075352741405367
-0.0070283990353345
-0.006738387979567
-0.0064282147213816
-0.0058813723735511
-0.0049292645417153
-0.003472036216408
-0.0014856997877359
0.000984160695225
0.0038382685743272
0.0069442372769117
0.0101571548730134
0.0133366622030735
0.016359057277441
0.0191259514540433
0.021570473909378
0.0236581563949584
0.0253798607736825
0.026743147522211
0.027770347893238
0.0284981708973646
0.0289724972099065
0.0292430575937032
0.029361005872488
0.0293770916759967
0.0293363071978092
0.0292617306113243
0.0291243381798267
0.0288093127310276
0.0281010661274194
0.0267037265002727
0.024293627589941
0.0205880403518676
0.0154128121212124
0.0087550487369298
0.0007925992831587
-0.0081105092540383
-0.0174474529922008
-0.0266351327300071
-0.035085842013359
-0.0422753430902957
-0.0477975755929946
-0.0513994544744491
-0.0529969073832035
-0.052672766149044
-0.0506566055119037
-0.0472905561327934
-0.0429873056709766
-0.038185067474842
-0.0333018153905868
-0.0286909006536006
-0.024606168270111
-0.0211870800703763
-0.0184629559516906
-0.0163678601384162
-0.0147613054141402
-0.013453590683639
-0.0122350296005606
-0.0109037701040506
-0.0092855617403984
-0.0072470274753868
-0.0047071939334273
-0.0016473201103508
0.0018847270403057
0.0057807001285254
0.0098895346745848
0.0140426130965352
0.0180807933211326
0.021870482712984
0.0253032743930816
0.0282914526760578
0.0307686924934387
0.0326933190226554
0.034050028771162
0.0348511897027492
0.0351404137909412
0.034992691129446
0.0345039330422878
0.0337731689214706
0.0328810177743434
0.0318605527281761
0.0306634306907653
0.0291388109326362
0.0270410142838954
0.0240669976919889
0.0199154615402221
0.0143590196967124
0.0073161516338586
-0.0010987557470798
-0.0105639826506376
-0.0205785483121871
