bvp
-0.0189397651702165
-0.0173332896083593
-0.0157344937324523
-0.0141275934875011
-0.0124973924830555
-0.0108351567760109
-0.009142062626779
-0.0074289022013545
-0.005710634868592
-0.0039965864270925
-0.0022872830741107
-0.0005851327441632
0.001094035571441
0.0027199308387935
0.0042554149404168
0.0056692231446504
0.0069455662742257
0.0080836620181798
0.0090935993939638
0.0099951857700943
0.0108155459165573
0.0115817952901124
0.0123132085427641
0.01301852427423
0.0137009713798761
0.0143668679520487
0.0150243695825338
0.0156691763550043
0.0162762906402349
0.016809020191431
0.0172325540333986
0.0175214875489473
0.0176624804735183
0.0176540687680244
0.0175053030252456
0.0172347668558359
0.0168686807155609
0.0164365991950035
0.0159644782543182
0.0154638793319463
0.014919389039278
0.014280685223639
0.0134590826928615
0.0123294917866587
0.0107501093298196
0.0085995029658079
0.0058121997863054
0.0023998981341719
-0.0015439325943589
-0.0058571472764015
-0.0103385355323553
-0.0147825255990028
-0.0190040674060583
-0.0228520594537258
-0.0262172482907772
-0.0290341563522815
-0.0312720984220504
-0.0329179242253303
-0.0339673608541488
-0.0344340652227401
-0.0343606770038604
-0.0338159501552581
-0.0328815206885337
-0.031638529151678
-0.0301597639918327
-0.0285087376832962
-0.0267408546060323
-0.0249010976403951
-0.0230204630643129
-0.0211163386702537
-0.0191945843398571
-0.0172487962990999
-0.0152595154941082
-0.0131981940940022
-0.0110401064157485
-0.0087827164679765
-0.0064525604248046
-0.0040945685468614
-0.0017562913708388
0.0005235928110778
0.0027203666977584
0.0048223440535366
0.0068267476744949
0.0087364958599209
0.010560386814177
0.0123126935213804
0.0140065718442201
0.0156454630196094
0.0172246694564819
0.0187449790537357
0.0202181823551654
0.0216511562466621
0.0230283960700035
0.0243121329694986
0.0254544969648122
0.0264132022857666
0.0271653663367033
0.0277113988995552
0.0280680637806653
0.0282601695507764
0.0283166095614433
0.0282654501497745
0.028124576434493
0.0278971809893846
0.0275818966329097
0.0271887369453907
0.0267408676445484
0.0262597892433404
0.0257526971399784
0.0252127833664417
0.0246236361563205
0.0239579491317272
0.0231710541993379
0.0221942067146301
0.0209325309842824
0.0192737057805061
0.0171095766127109
0.0143641447648406
0.011017438955605
0.0071179447695612
0.0027837688103318
-0.0018069772049784
-0.0064447093755006
-0.0109331533312797
-0.0151239996775984
-0.0189226828515529
-0.0222772471606731
-0.0251685511320829
-0.0276008807122707
-0.0295891016721725
-0.0311482734978199
-0.0322890803217887
-0.0330194197595119
-0.0333504974842071
-0.0333024635910987
-0.0329064726829528
-0.0322007238864898
-0.0312233716249465
-0.0300139244645833
-0.0286241956055164
-0.0271223951131105
-0.0255801267921924
-0.0240534767508506
-0.0225738007575273
-0.0211489014327526
-0.0197677742689847
-0.0184069462120533
-0.0170379653573036
-0.0156349297612905
-0.0141796264797449
-0.0126619301736354
-0.0110793411731719
-0.0094355223700404
-0.0077333422377705
-0.0059748403728008
-0.0041775866411626
-0.0023868326097726
-0.0006650955183431
0.0009314225753769
0.0023718867450952
0.0036561689339578
0.0048070140182971
0.0058545931242406
0.0068224184215068
0.0077228979207575
0.0085606202483177
0.0093372538685798
0.010055836290121
0.0107242632657289
0.0113573707640171
0.0119707882404327
0.0125648509711027
0.013116099871695
0.0135874841362237
0.0139448149129748
0.0141674680635333
0.0142519595101475
0.0142099307850003
0.0140633974224329
0.0138364899903535
0.013541942462325
0.0131647437810897
0.0126470178365707
0.0118860928341746
0.0107613466680049
0.0091810701414942
0.0071138278581202
0.0045872563496232
0.0016748446505516
-0.0015119567979127
-0.0048327185213565
-0.0081346808001399
-0.0112719042226672
-0.0141189852729439
-0.0165770780295133
-0.0185764860361814
-0.0200777687132358
-0.0210681054741144
-0.0215551406145095
-0.0215628538280725
-0.0211266092956066
-0.020287225022912
-0.0190927032381296
-0.0176076628267765
-0.0159171223640441
-0.0141180735081434
-0.0123024806380271
-0.0105385845527052
-0.0088609084486961
-0.0072730453684926
-0.0057561006397008
-0.0042764022946357
-0.0027931621298193
-0.0012684948742389
0.0003225235268473
0.0019871881231665
0.003718763589859
0.00550527125597
0.0073309754952788
0.0091654546558856
0.010958238504827
0.0126515729352831
0.0141981309279799
0.0155682107433676
0.0167482979595661
0.0177395120263099
0.018556423485279
0.0192234180867671
0.0197705402970314
0.0202305577695369
0.0206347610801458
0.0210087783634662
0.0213742088526487
0.02175148203969
0.0221519898623228
0.022564698010683
0.0229547582566738
0.0232754349708557
0.0234819389879703
0.0235409066081047
0.0234337951987981
0.0231556110084056
0.0227134581655263
0.0221252925693988
0.0214164108037948
0.0206154771149158
0.0197520814836025
0.0188544616103172
0.0179483573883771
0.0170557629317045
0.0161829702556133
0.0152972321957349
0.0143124740570783
0.0130989514291286
0.011513827368617
0.009442001581192
0.0068299965932965
0.0036982735618948
0.0001328056678175
-0.0037337122485041
-0.0077416291460394
-0.0117221968248486
-0.015515100210905
-0.018983582034707
-0.0220212377607822
-0.0245520547032356
-0.0265351273119449
-0.0279743745923042
-0.0289165638387203
-0.0294334571808576
-0.0296028275042772
-0.0294957272708416
-0.0291676614433527
-0.0286548398435115
-0.0279777236282825
-0.0271494686603546
-0.0261831320822238
-0.0250937808305025
-0.0238967388868331
-0.0226042196154594
-0.0212215445935726
-0.019744798541069
-0.0181664768606424
-0.0164892673492431
-0.0147343054413795
-0.0129375215619802
-0.0111389951780438
-0.0093707535415887
-0.007651038467884
-0.0059872874990105
-0.0043812501244246
-0.0028334311209619
-0.0013461292255669
7.84904696047306e-05
0.0014444834087044
0.0027634964790195
0.0040489817038178
0.005311228800565
0.0065519111230969
0.0077564362436532
0.0088952789083123
0.0099354609847068
0.010850815102458
0.0116278296336531
0.012268797494471
0.0127894897013902
0.0132119227200746
0.0135591393336653
0.01385457534343
0.0141218341886997
0.0143818007782101
0.0146482782438397
0.0149264289066195
0.0152149405330419
0.015505145303905
0.0157764554023742
0.0159974638372659
0.0161348078399896
0.0161633994430303
0.016073428094387
0.0158700570464134
0.0155622866004705
0.0151451248675584
0.0145849157124757
0.0138143906369805
0.0127397421747446
0.0112613271921873
0.0093053542077541
0.0068562990054488
0.0039757881313562
0.0007930546998977
-0.0025307741016149
-0.0058375052176415
-0.008990803733468
-0.0118868229910731
-0.0144581589847803
-0.0166691616177558
-0.0185057800263166
-0.0199634116142988
-0.0210402943193912
-0.0217391438782215
-0.0220688246190547
-0.0220445655286312
-0.0216898526996374
-0.0210343748331069
-0.0201072618365287
-0.0189386457204818
-0.0175724774599075
-0.0160732008516788
-0.0145158655941486
-0.0129676554352045
-0.011472949758172
-0.0100495675578713
-0.0086937742307782
-0.0073862541466951
-0.0060987039469182
-0.0048027765005826
-0.0034773435909301
-0.0021120540332049
-0.0007086819969117
0.0007209510076791
0.0021616648882627
0.0035987994633615
0.0050122183747589
0.0063700666651129
0.0076339710503816
0.0087714344263076
0.0097652077674865
0.0106154195964336
0.0113362679257988
0.0119502237066626
0.0124815925955772
0.012951853685081
0.0133776348084211
0.0137697514146566
0.0141325592994689
0.0144653106108307
0.0147679280489683
0.0150451753288507
0.0153007712215185
0.0155283017084002
0.0157101545482873
0.0158230029046535
0.0158441346138715
0.0157579686492681
0.0155618069693446
0.0152672305703163
0.0148969804868102
0.0144786331802606
0.0140337701886892
0.01356459595263
0.0130433365702629
0.0124096386134624
0.0115796327590942
0.0104608898982405
0.0089669721201062
0.0070362091064453
0.0046512726694345
0.0018481109291315
-0.0012860000133514
-0.0046223076060414
-0.0080074807628989
-0.0112836528569459
-0.014308363199234
-0.0169704314321279
-0.0191973708570003
-0.0209538005292415
-0.022233560681343
-0.0230489000678062
-0.0234196614474058
-0.0233716890215873
-0.0229488462209701
-0.0222209431231021
-0.0212741233408451
-0.0201952885836362
-0.0190626867115497
-0.0179396979510784
-0.016867134720087
-0.01585846953094
-0.0149039840325713
-0.013980945572257
-0.0130625180900096
-0.0121228005737066
-0.0111393276602029
-0.0100927911698818
-0.0089637404307723
-0.0077349292114377
-0.0064052687957882
-0.0050009591504931
-0.0035701156593859
-0.0021667971741408
-0.0008360276115126
0.0003939383896067
0.0015122112818062
0.0025223100092262
0.0034392499364912
0.0042867441661655
0.005090408027172
0.0058687245473265
0.0066288476809859
0.0073702875524759
0.0080948192626237
0.0088102910667657
0.009520006366074
0.0102132745087146
0.0108677418902516
0.011456137523055
0.0119549287483096
0.0123518258333206
0.0126444790512323
0.0128337666392326
0.0129214487969875
0.0129132466390728
0.0128221735358238
0.012668028473854
0.0124725513160228
0.0122563643380999
0.0120409503579139
0.0118462368845939
0.0116783017292618
0.0115171112120151
0.0113125117495656
0.0109855197370052
0.0104332268238067
0.0095419380813837
0.0082100126892328
0.0063734357245266
0.0040241689421236
0.0012171254493296
-0.0019339378923177
-0.0052730878815054
-0.0086283991113305
-0.011834024451673
-0.014740995131433
-0.0172301847487688
-0.0192324444651603
-0.0207363367080688
-0.0217745583504438
-0.0224016606807708
-0.0226759612560272
-0.0226503200829029
-0.0223694685846567
-0.0218716021627187
-0.0211922749876976
-0.0203644428402185
-0.0194131601601839
-0.0183532945811748
-0.0171944387257099
-0.0159435141831636
-0.0145993055775761
-0.0131536126136779
-0.011607177555561
-0.009980296716094
-0.0083049926906824
-0.006612682249397
-0.0049295481294393
-0.0032760947942733
-0.0016664303839206
-0.0001088380813598
0.0013914094306528
0.0028291535563766
0.0041989544406533
0.0054972437210381
0.0067231738939881
0.0078797237947583
0.0089796744287014
0.0100451372563838
0.0110916933044791
0.012114911340177
0.0130929024890065
0.0139969363808631
0.0148017313331365
0.0154924066737294
0.016067512333393
0.0165371987968683
0.0169179961085319
0.0172298736870288
0.0174941215664148
0.0177279785275459
0.0179398916661739
0.018132334575057
0.0183102265000343
0.0184801761060953
0.0186372138559818
0.0187574923038482
0.018806317821145
0.0187506731599569
0.0185668785125017
0.0182451512664556
0.0177927836775779
0.0172309540212154
0.0165849197655916
0.0158720277249813
0.0150861172005534
0.0141831096261739
0.013081707060337
0.0116854021325707
0.009917770512402
0.0077479034662246
0.0051902830600738
0.0022946968674659
-0.0008560987189412
-0.0041482541710138
-0.0074490164406597
-0.0106258392333984
-0.0135629642754793
-0.0161711610853672
-0.0183922201395034
-0.0201962180435657
-0.0215717554092407
-0.0225184708833694
-0.0230457447469234
-0.0231728442013263
-0.022926989942789
-0.0223438162356615
-0.021475737914443
-0.0203981511294841
-0.019200149923563
-0.0179649479687213
-0.0167551282793283
-0.0156090445816516
-0.0145425600931048
-0.0135499378666281
-0.0126069718971848
-0.0116790318861603
-0.0107291797176003
-0.0097237415611743
-0.008637061342597
-0.0074530448764562
-0.0061619044281542
-0.0047619733959436
-0.003270290326327
-0.0017268669325858
-0.0001856265589594
0.0012987593654543
0.0026819265913218
0.0039366479031741
0.0050521986559033
0.0060279159806668
0.0068687344901263
0.007587170228362
0.0082070212811231
0.0087609626352787
0.0092825489118695
0.0098013542592525
0.0103431548923254
0.0109249260276556
0.0115425866097211
0.0121661396697163
0.0127501841634511
0.0132512468844652
0.0136395823210477
0.0139006283134222
0.0140322986990213
0.0140431439504027
0.0139492638409137
0.0137705458328127
0.0135286292061209
0.0132451886311173
0.0129380030557513
0.012615124695003
0.0122674284502863
0.0118551133200526
0.0112934969365596
0.0104585951194167
0.0092175789177417
0.0074682813137769
0.0051733702421188
0.0023765391670167
-0.0008068997412919
-0.0042166970670223
-0.007677131332457
-0.0110214836895465
-0.0141104636713862
-0.0168438553810119
-0.0191616415977478
-0.021033126860857
-0.0224417820572853
-0.0233808532357215
-0.0238632652908563
-0.0239285565912723
-0.0236346274614334
-0.0230440478771924
-0.0222169645130634
-0.0212094448506832
-0.0200716610997915
-0.0188454445451498
-0.0175637286156415
-0.0162518322467803
-0.0149267436936497
-0.0135943070054054
-0.012249806895852
-0.0108803287148475
-0.0094636576250195
-0.0079730032011866
-0.0063960547558963
-0.0047517041675746
-0.0030857459641993
-0.001452013850212
0.0001050075516104
0.0015590186230838
0.0029018665663897
0.0041397176682949
0.0052904956974089
0.006378476973623
0.0074237938970327
0.0084369722753763
0.0094236750155687
0.0103929797187447
0.0113625209778547
0.0123522048816084
0.0133652053773403
0.014374753460288
0.0153314042836427
0.0161823369562625
0.0168891716748476
0.0174368545413017
0.0178310237824916
0.0180909261107444
0.018243595957756
0.018316064029932
0.0183276534080505
0.0182882286608219
0.0182019248604774
0.0180742740631103
0.0179186593741178
0.0177515037357807
0.0175768509507179
0.0173801593482494
0.0171391852200031
0.0168360397219657
0.0164593607187271
0.0160015765577554
0.0154532073065638
0.0147904381155967
0.0139623135328292
0.0128881800919771
0.0114698056131601
0.0096169151365756
0.0072761075571179
0.0044547622092068
0.001235119998455
-0.0022378186695277
-0.0057972748763859
-0.0092945974320173
-0.0126155707985162
-0.0156787857413291
-0.0184288900345563
-0.0208302699029445
-0.0228624176234006
-0.0245168879628181
-0.0257913935929536
-0.0266822762787342
-0.0271843206137418
-0.0272991098463535
-0.0270452946424484
-0.0264603849500417
-0.0255901403725147
-0.0244810320436954
-0.0231850203126668
-0.0217635706067085
-0.0202824920415878
-0.0188004691153764
-0.0173570774495601
-0.0159680284559726
-0.0146276969462633
-0.0133138503879308
-0.0119939362630248
-0.0106330644339323
-0.009202379733324
-0.0076868459582328
-0.0060888202860951
-0.0044228150509297
-0.0027054892852902
-0.0009542168118059
0.0008028759621083
0.0025213109329342
0.0041478434577584
0.0056316801346838
0.0069319801405072
0.0080240620300173
0.0089048277586698
0.0095925712957978
0.0101217329502105
0.0105381580069661
0.0108926836401224
0.0112297469750046
0.0115782599896192
0.0119539331644773
0.0123698925599455
0.0128394290804862
0.0133648682385683
0.0139283016324043
0.0144947618246078
0.0150228701531887
0.0154771693050861
0.0158363059163093
0.0160932708531618
0.0162522569298744
0.0163268409669399
0.0163378920406103
0.0163097381591796
0.0162656344473361
0.0162208881229162
0.0161724425852298
0.016087906435132
0.0158964097499847
0.0154868215322494
0.01472392026335
0.0134824942797422
0.0116864331066608
0.0093377772718667
0.0065227984450757
0.0033963648602366
0.0001568824518471
-0.0029852241277694
-0.0058424603193998
-0.0082742013037204
-0.0101924454793334
-0.0115568693727254
-0.0123648904263973
-0.0126383071765303
-0.0124160647392272
-0.0117565374821424
-0.010736365802586
-0.0094410721212625
-0.0079565197229385
-0.0063637290149927
-0.0047323345206677
-0.0031137489713728
-0.0015401297714561
-2.951035276055336e-05
0.001410175813362
0.0027808251325041
0.0040931520052254
0.0053650769405066
0.0066232746466994
0.0079031409695744
0.0092358877882361
0.0106272138655185
0.0120483124628663
0.0134450392797589
0.0147528517991304
0.0159115381538867
0.0168809201568365
0.0176520496606826
0.0182463508099317
0.0187049061059951
0.0190769881010055
0.0194120556116104
0.0197515338659286
0.0201192237436771
0.0205197371542453
0.0209483131766319
0.0213924515992403
0.0218164958059787
0.0221538431942462
0.0223222374916076
0.0222470816224813
0.0218776129186153
0.0211939755827188
0.0202067270874977
0.0189505498856306
0.0174744352698326
0.015831746160984
0.0140734985470771
0.0122440606355667
0.0103787891566753
0.0085081197321414
0.0066655986011028
0.0048826076090335
0.0031665973365306
0.0014881715178489
-0.0002096109092235
-0.001992043107748
-0.0039165802299976
-0.0060285180807113
-0.0083700530230999
-0.0109907053411006
-0.0139486007392406
-0.0173039026558399
-0.0211053695529699
-0.0253692381083965
-0.03005887940526
-0.0350734069943428
-0.0402468815445899
-0.0453665927052497
-0.0502118617296218
-0.0545927807688713
-0.05837182700634
-0.0614688843488693
-0.0638561397790908
-0.0655485317111015
-0.0665892660617828
-0.067031517624855
-0.0669262632727623
-0.066319927573204
-0.0652567818760871
-0.0637841075658798
-0.0619569048285484
-0.0598333403468132
-0.0574621297419071
-0.0548800565302372
-0.0521257445216178
-0.0492488294839859
-0.0463032126426696
-0.0433352068066597
-0.0403765067458152
-0.0374438501894474
-0.0345415323972702
-0.0316630192101001
-0.0287932399660348
-0.0259129516780376
-0.0230029728263616
-0.0200491938740015
-0.0170490629971027
-0.0140107879415154
-0.0109448209404945
-0.0078647099435329
-0.0047985250130295
-0.0017908597365021
0.0011096084490418
0.0038638049736618
0.0064490139484405
0.0088609857484698
0.0111153107136487
0.0132454307749867
0.015292833559215
0.017293844372034
0.0192711353302001
0.0212306473404169
0.0231629125773906
0.0250523723661899
0.0268906019628047
0.0286766532808542
0.0304003693163394
0.0320291556417942
0.0335139818489551
0.0348073355853557
0.0358765944838523
0.0367075391113758
0.037304013967514
0.0376850850880146
0.0378791689872741
0.0379188433289527
0.0378369241952896
0.0376607403159141
0.0374030247330665
0.0370539985597133
0.0365786887705326
0.0359131060540676
0.034960638731718
0.0336061269044876
0.031748566776514
0.02933388389647
0.0263772122561931
0.0229695979505777
0.0192662812769413
0.0154629787430167
0.0117666088044643
0.0083634201437234
0.0053919069468975
0.0029309019446372
0.0010051168501377
-0.0003973133862018
-0.0013033356517553
-0.0017463341355323
-0.001776335760951
-0.0014667958021163
-0.000904282554984
-0.000173881649971
0.0006496105343103
0.0015060398727655
0.0023493655025959
0.0031436719000339
0.0038636401295661
0.0045019034296274
0.005075242370367
0.0056202337145805
0.0061792843043804
0.0067921020090579
0.0074984859675168
0.0083321724086999
0.0093000270426273
0.0103724608197808
0.0114934435114264
0.0125970505177974
0.0136233810335397
0.0145285967737436
0.0152875836938619
0.0158927366137504
0.016349546611309
0.0166707187891006
0.0168721675872802
0.0169711299240589
0.0169861931353807
0.0169415362179279
0.016872189939022
0.0168167799711227
0.0167973265051841
0.0168068166822195
0.0168140642344951
0.016776967793703
0.0166548378765583
0.0164165440946817
0.0160455051809549
0.0155405849218368
0.0149132199585437
0.0141849629580974
0.0133856302127242
0.0125506930053234
0.0117178317159414
0.0109237562865018
0.0102035664021968
0.0095848087221384
0.0090702008455991
0.0086247092112898
0.0081771621480584
0.0076254843734204
0.0068429540842771
0.0056947679258883
0.00406334688887
0.0018730624578893
-0.0008908342570066
-0.0041734217666089
-0.0078545352444052
-0.0117653422057628
-0.0157132241874933
-0.0195063091814517
-0.0229716338217258
-0.0259742401540279
-0.0284393038600683
-0.030360709875822
-0.0317859128117561
-0.0327883213758468
-0.0334433168172836
-0.0338121429085731
-0.0339324511587619
-0.0338191874325275
-0.0334742069244384
-0.0328965336084365
-0.0320915728807449
-0.0310781728476285
-0.0298868641257286
-0.0285488255321979
-0.0270833373069763
-0.0254971254616975
-0.0238002464175224
-0.022018352523446
-0.020186798647046
-0.0183376614004373
-0.0164920985698699
-0.0146612459793686
-0.0128499791026115
-0.0110568795353174
-0.0092774555087089
-0.0075140204280614
-0.0057779652997851
-0.0040813134983181
-0.0024300944060087
-0.0008212248794734
0.0007579093798995
0.0023189319763332
0.0038562980480492
0.0053446134552359
0.0067499945871531
0.0080410307273268
0.0091964090242981
0.01021009683609
0.0110889952629804
0.0118469446897506
0.0125039555132389
0.0130861951038241
0.0136212315410375
0.0141335669904947
0.0146408295258879
0.0151506206020712
0.0156649611890316
0.0161828137934207
0.0166883580386638
0.0171425268054008
0.017494847998023
0.0177030339837074
0.0177443195134401
0.0176174268126487
0.0173379015177488
0.0169305447489023
0.0164251942187547
0.0158554557710886
0.0152530875056982
0.0146349631249904
0.0139866881072521
0.0132521288469433
0.0123383738100528
0.0111325765028595
0.0095204133540391
0.0074081653729081
0.0047509018331766
0.0015727444551885
-0.0020330930128693
-0.0059203449636697
-0.0099148955196142
-0.0138413356617093
-0.0175408739596605
-0.0208819843828678
-0.0237698964774608
-0.026149908080697
-0.0280003305524587
-0.0293210223317146
-0.0301217902451753
-0.0304182432591915
-0.0302419904619455
-0.0296503510326147
-0.0287213306874036
-0.0275400970131158
-0.0261860284954309
-0.0247240755707025
-0.0231997687369585
-0.0216366201639175
-0.0200400575995445
-0.0184070616960525
-0.016732133924961
-0.0150084812194108
-0.0132288029417395
-0.0113818822428584
-0.009447400458157
-0.0074036819860339
-0.0052474718540906
-0.0030045555904507
-0.0007229512557387
0.0015395060181617
0.0037260269746184
0.0057916920632123
0.0077113169245421
0.0094789592549204
0.0111001562327146
0.0125836450606584
0.0139387371018528
0.015177734196186
0.0163169391453266
0.0173762254416942
0.0183819122612476
0.0193645320832729
0.0203445218503475
0.0213215183466672
0.0222759582102298
0.023173950612545
0.0239762775599956
0.0246515106409788
0.0251820776611566
0.0255630835890769
0.0258014202117919
0.02591323107481
0.0259175337851047
0.0258315466344356
0.0256703160703182
0.0254493672400712
0.0251884646713733
0.0249077901244163
0.0246147457510232
0.0242968760430812
0.0239294059574604
0.0234885104000568
0.0229600686579942
0.0223395973443985
0.0216258242726326
0.0208120942115783
0.01987518183887
0.0187631919980049
0.0173902455717325
0.0156446527689695
0.0134124681353569
0.0106137814000248
0.0072377584874629
0.0033510345965623
-0.0009246179834008
-0.0054407073184847
-0.0100420406088233
-0.0145801603794097
-0.0189218763262033
-0.0229564439505338
-0.0266022589057683
-0.0298077780753374
-0.032544732093811
-0.0347982160747051
-0.0365588665008544
-0.0378199219703674
-0.0385802388191223
-0.0388490445911884
-0.0386464707553386
-0.0380062013864517
-0.036986693739891
-0.0356759391725063
-0.0341756641864776
-0.0325757414102554
-0.0309385918080806
-0.0292975585907697
-0.0276602450758218
-0.0260143373161554
-0.0243359189480543
-0.0225950982421636
-0.0207603182643651
-0.0188063569366931
-0.0167224276810884
-0.0145129896700382
-0.0121909491717815
-0.0097753759473562
-0.007300681900233
-0.0048216166906058
-0.0024027153849601
-0.0001034690067172
0.0020318729802966
0.0039815306663513
0.0057485047727823
0.0073550660163164
0.0088334046304225
0.0102174207568168
0.0115353967994451
0.0128033934161067
0.0140252849087119
0.0152035281062126
0.0163500886410474
0.017480032518506
0.0185914002358913
0.0196565855294466
0.0206337701529264
0.0214814990758895
0.0221649706363677
0.0226584374904632
0.0229493957012891
0.023042282089591
0.0229566823691129
0.0227214153856039
0.0223696343600749
0.0219345800578594
0.0214389208704233
0.0208776034414768
0.0202064253389835
0.0193390548229217
0.0181478690356016
0.0164821818470954
0.0142111210152506
0.0112666562199592
0.0076641244813799
0.0035008145496249
-0.0010604338021948
-0.0058180829510092
-0.0105629758909344
-0.0151050593703985
-0.0192896071821451
-0.0230036173015832
-0.0261747911572456
-0.0287616476416587
-0.0307403746992349
-0.0321040265262126
-0.0328742787241935
-0.0331060476601123
-0.0328777953982353
-0.0322785675525665
-0.0313970632851123
-0.0303123481571674
-0.0290871150791645
-0.027762671932578
-0.0263578817248344
-0.0248723924160003
-0.023291427642107
-0.0215941220521926
-0.0197627302259206
-0.01778369769454
-0.0156403630971908
-0.0133130475878715
-0.0107954833656549
-0.0081108044832944
-0.0053105298429727
-0.0024600028991699
0.000376945361495
0.0031448788940906
0.0057988176122307
0.0083085540682077
0.010663223452866
0.0128717813640832
0.0149556985124945
0.0169369019567966
0.0188329108059406
0.0206626188009977
0.0224525574594736
0.0242300033569335
0.0260044485330581
0.0277591105550527
0.0294599831104278
0.0310672111809253
0.0325428247451782
0.0338586047291755
0.035000666975975
0.0359668508172035
0.0367607325315475
0.0373869277536869
0.0378483012318611
0.0381468161940574
0.0382874608039855
0.0382815152406692
0.0381496772170066
0.0379199311137199
0.0376124307513237
0.0372236184775829
0.036726027727127
0.0360780991613864
0.0352280549705028
0.0341051779687404
0.0326080173254013
0.0306060966104269
0.0279619358479976
0.0245656203478574
0.0203684885054826
0.0154045699164271
0.0097931530326604
0.0037242090329527
-0.0025661969557404
-0.0088290022686123
-0.0148409660905599
-0.0204332005232572
-0.0254984460771083
-0.0299826804548501
-0.0338691994547843
-0.037160363048315
-0.0398632064461708
-0.0419843159615993
-0.0435327813029289
-0.0445242188870906
-0.0449810102581977
-0.0449319407343864
-0.0444154404103755
-0.0434812977910041
-0.04218515381217
-0.0405839830636978
-0.0387394577264785
-0.0367176458239555
-0.0345770865678787
-0.0323581732809543
-0.0300842225551605
-0.0277677625417709
-0.0254137888550758
-0.0230204053223133
-0.0205818265676498
-0.0180950164794921
-0.0155659401789307
-0.0130114816129207
-0.0104559864848852
-0.0079238656908273
-0.0054317116737365
-0.0029878173954784
-0.0006022215820848
0.0017051249742507
0.0039068623445928
0.00597665598616
0.0078975968062877
0.0096651026979088
0.0112839136272668
0.0127639099955558
0.0141160953789949
0.015351302921772
0.0164828523993492
0.0175270698964595
0.0184988491237163
0.019408268854022
0.0202628225088119
0.0210684314370155
0.0218227766454219
0.0225093103945255
0.0231014993041753
0.0235743857920169
0.0239148866385221
0.0241249091923236
0.0242167245596647
0.0242057722061872
0.0241047348827123
0.0239139851182699
0.0236031915992498
0.0230932012200355
0.0222563985735178
0.0209427662193775
0.019018979743123
0.0163975991308689
0.0130481645464897
0.0090027526021003
0.0043608481064438
-0.0007153814658522
-0.0060188681818544
-0.0113248545676469
-0.0164208188652992
-0.0211287625133991
-0.0253130830824375
-0.0288783106952905
-0.0317650698125362
-0.0339464657008647
-0.035423707216978
-0.0362192802131176
-0.0363683253526687
-0.0359191559255123
-0.0349464118480682
-0.0335557460784912
-0.0318678990006446
-0.0299986042082309
-0.0280457511544227
-0.0260787028819322
-0.024130955338478
-0.0222029834985733
-0.0202722996473312
-0.0183036290109157
-0.0162578839808702
-0.0141008971258997
-0.0118109984323382
-0.0093808025121688
-0.0068117696791887
-0.0041135596111416
-0.0013166405260562
0.0015185438096523
0.0043131322599947
0.0069899344816803
0.0094860922545194
0.0117616401985287
0.013804679736495
0.0156275890767574
0.0172575209289789
0.0187279134988784
0.0200748220086097
0.0213368814438581
0.0225514471530914
0.0237466543912887
0.0249387454241514
0.0261317696422338
0.0273099839687347
0.0284330565482378
0.029446505010128
0.030297715216875
0.0309455953538417
0.0313655622303485
0.0315539203584194
0.0315295979380607
0.0313283056020736
0.0309910420328378
0.030555548146367
0.0300540663301944
0.0295141004025936
0.0289582684636116
0.0283988565206527
0.0278194323182106
0.0271454118192195
0.0262275524437427
0.0248618815094232
0.022838894277811
0.0199937969446182
0.0162404906004667
0.0115894172340631
0.0061495164409279
0.0001123640686273
-0.006276479922235
-0.0127502810209989
-0.0190522745251655
-0.0249621234834194
-0.0303104929625988
-0.0349755063652992
-0.0388747677206993
-0.0419682189822196
-0.0442595668137073
-0.045784518122673
-0.0465968325734138
-0.0467616841197013
-0.0463540181517601
-0.0454568080604076
-0.0441566631197929
-0.0425389781594276
-0.0406831242144107
-0.0386555269360542
-0.0365037955343723
-0.0342542007565498
-0.0319093242287635
-0.0294479876756668
-0.0268385224044322
-0.0240637641400098
-0.0211362168192863
-0.018093068152666
-0.0149819711223244
-0.0118501465767622
-0.0087404754012823
-0.0056891525164246
-0.002721581608057
0.0001480937935411
0.0029127006419003
0.0055712545290589
0.0081318533048033
0.0106071354821324
0.0130072543397545
0.0153434760868549
0.0176281295716762
0.0198586340993642
0.0220068842172622
0.0240270979702472
0.0258699990808963
0.0274956300854682
0.0288834460079669
0.0300352331250906
0.0309691522270441
0.0317103713750839
0.0322851650416851
0.032718189060688
0.033030916005373
0.0332410261034965
0.033362541347742
0.0334097743034362
0.0333980098366737
0.0333311669528484
0.033190369606018
0.0329394005239009
0.0325409322977066
0.0319697484374046
0.0312132313847541
0.0302567593753337
0.0290627554059028
0.0275571383535861
0.0256317555904388
0.0231632702052593
0.0200443603098392
0.0162188466638326
0.0117080863565206
0.0066194720566272
0.0011312421411275
-0.0045457929372787
-0.0102090602740645
-0.0156863592565059
-0.0208410527557134
-0.0255702771246433
-0.0298000890761613
-0.0334798842668533
-0.036576721817255
-0.0390674173831939
-0.0409323424100875
-0.0421597473323345
-0.0427585244178772
-0.0427658222615718
-0.0422399789094924
-0.041247047483921
-0.0398594141006469
-0.0381644777953624
-0.0362632311880588
-0.0342561304569244
-0.0322266966104507
-0.030228205025196
-0.0282796341925859
-0.02637211792171
-0.0244782902300357
-0.0225610136985778
-0.0205816216766834
-0.0185080636292696
-0.0163222942501306
-0.0140218846499919
-0.0116145266219973
-0.0091116148978471
-0.0065300366841256
-0.0039017878007143
-0.0012770912144333
0.001283643185161
0.0037213331088423
0.005989515222609
0.008061614818871
0.0099312262609601
0.0116080846637487
0.0131121492013335
0.0144676435738801
0.0156987514346838
0.016826044768095
0.0178632400929927
0.018818374723196
0.0197015665471553
0.0205272585153579
0.0213011819869279
0.0220090746879577
0.0226232837885618
0.0231167618185281
0.023471463471651
0.0236801020801067
0.0237458925694227
0.0236847586929798
0.023524560034275
0.0232944302260875
0.0230102576315403
0.0226623695343732
0.0222038011997938
0.0215458162128925
0.0205711219459772
0.0191547404974699
0.0171795077621936
0.014554806984961
0.0112429605796933
0.0072799492627382
0.0027789352461695
-0.0020844349637627
-0.0070985206402838
-0.0120462570339441
-0.0167311057448387
-0.0209897235035896
-0.02469452470541
-0.0277566462755203
-0.0301285348832607
-0.03179781883955
-0.0327750705182552
-0.03309066593647
-0.0328048691153526
-0.0320125892758369
-0.0308302659541368
-0.0293759852647781
-0.0277562513947486
-0.0260579772293567
-0.024340197443962
-0.0226299334317445
-0.0209264662116765
-0.0192090142518281
-0.017445771023631
-0.015605779364705
-0.0136679075658321
-0.0116197541356086
-0.0094521902501583
-0.0071649509482085
-0.0047818440943956
-0.0023543746210634
5.274917930364609e-05
0.0023782835341989
0.0045737400650978
0.0066082007251679
0.00846903398633
0.0101593388244509
0.0116965174674987
0.0131092416122555
0.0144275147467851
0.0156727246940135
0.0168574023991823
0.0179919116199016
0.0190897434949874
0.0201629512012004
0.0212086420506238
0.0222042687237262
0.0231179445981979
0.0239192973822355
0.0245848707854747
0.0251034647226333
0.0254802107810974
0.0257327426224946
0.0258797109127044
0.0259310510009527
0.0258871112018823
0.0257432907819747
0.0254957694560289
0.0251491647213697
0.0247226860374212
0.0242439042776823
0.0237284377217292
0.0231599360704422
0.022480234503746
0.0215881988406181
0.0203483738005161
0.0186133161187171
0.0162569135427474
0.013207389973104
0.0094675458967685
0.005118672735989
0.0003118086606264
-0.0047534401528537
-0.0098598394542932
-0.0147992400452494
-0.0193874686956405
-0.0234786756336689
-0.0269846357405185
-0.0298826470971107
-0.0322000943124294
-0.0339861363172531
-0.0352869778871536
-0.0361338555812835
-0.0365449376404285
-0.0365349426865577
-0.0361250601708889
-0.0353491753339767
-0.034252792596817
-0.0328870676457881
-0.0313062071800231
-0.0295661184936761
-0.027713593095541
-0.0257748495787382
-0.0237625855952501
-0.0216926280409097
-0.0195882562547922
-0.0174737181514501
-0.0153696555644273
-0.0132903214544057
-0.0112406425178051
-0.0092176869511604
-0.0072150658816099
-0.0052260672673583
-0.003245641477406
-0.0012708585709333
0.0007010204717516
0.0026771854609251
0.0046725319698452
0.0067025176249444
0.0087670348584651
0.0108413808047771
0.01288409717381
0.0148525647819042
0.0167139768600463
0.0184497088193893
0.0200553573668003
0.0215374715626239
0.0229079462587833
0.0241788290441036
0.0253610573709011
0.0264650676399469
0.0274978056550025
0.0284598488360643
0.0293502323329448
0.0301696024835109
0.0309105217456817
0.0315478555858135
0.0320431962609291
0.0323584899306297
0.0324701331555843
0.0323784537613391
0.0321087948977947
0.0317014530301094
0.03119040094316
0.0305776577442884
0.0298154763877391
0.0288056638091802
0.0274184457957744
0.0255266744643449
0.0230421647429466
0.0199342407286167
0.0162249654531478
0.0119781754910945
0.007292098365724
0.0022904193028807
-0.0028885062783956
-0.0081010274589061
-0.0132049405947327
-0.0180638842284679
-0.0225520469248294
-0.0265594441443681
-0.0299928747117519
-0.0327731370925903
-0.0348363444209098
-0.0361374169588089
-0.0366487652063369
-0.0363643951714038
-0.0353171192109584
-0.0335899665951728
-0.0313077718019485
-0.0286198556423187
-0.0256843660026788
-0.0226545669138431
-0.0196661762893199
-0.0168270394206047
-0.0142136439681053
-0.011877822689712
-0.009857116267085
-0.0081773530691862
-0.00684554874897
-0.0058379713445901
-0.0050897230394184
-0.0045036291703581
-0.0039882743731141
-0.0034971260465681
-0.0030361078679561
-0.002644891384989
-0.0023735943250358
-0.0022654966451227
-0.0023480574600398
-0.0026282700709998
-0.003090396290645
-0.0036999615840613
-0.0044106664136052
-0.0051688165403902
-0.0059171086177229
-0.0065949605777859
-0.0071324571035802
-0.0074523724615573
-0.0074893268756568
-0.0072077582590281
-0.0066042435355484
-0.0057014194317162
-0.0045416029170155
-0.0031793438829481
-0.0016710271593183
-6.385147571563721e-05
0.0016132409218698
0.0033533184323459
0.0051632635295391
0.0070441202260553
0.0089714610949158
0.0108862612396478
0.0126959672197699
0.0142772663384675
0.0154810929670929
0.016151774674654
0.016159601509571
0.0154306981712579
0.0139632457867264
0.0118294693529605
0.0091643724590539
0.0061416644603013
0.0029448252171278
-0.0002544864546507
-0.0033071828074753
-0.0060921302065253
-0.0085198301821947
-0.010529370047152
-0.0120787406340241
-0.0131453508511185
-0.0137415872886776
-0.0139228645712137
-0.0137750459834933
-0.0133940987288951
-0.0128693655133247
-0.0122707290574908
-0.0116407508030533
-0.010993018746376
-0.0103157609701156
-0.0095788724720478
-0.0087406244128942
-0.0077561982907354
-0.006590680219233
-0.0052260239608585
-0.0036573717370629
-0.0018938556313514
3.193924203515053e-05
0.0020624715834856
0.0041259657591581
0.0061479122377932
0.0080587351694703
0.0097987502813339
0.0113204270601272
0.012589044868946
0.0135839395225048
0.0143022872507572
0.0147654991596937
0.0150224454700946
0.0151416352018713
0.0151970414444804
0.0152584426105022
0.0153818689286708
0.0155953112989664
0.0158926658332347
0.0162432063370943
0.0166059546172618
0.0169392395764589
0.0172054730355739
0.0173738095909357
0.0174219720065593
0.017338728532195
0.0171257108449935
0.0167942028492689
0.0163586847484111
0.0158335212618112
0.0152335735037922
0.0145756835117936
0.0138751743361353
0.0131296003237366
0.0122961541637778
0.0112822921946644
0.0099574653431773
0.0081769898533821
0.0058097164146602
0.0027648992836475
-0.0009888485074043
-0.005415859632194
-0.0104160001501441
-0.0158368498086929
-0.0214926283806562
-0.0271850358694791
-0.032718725502491
-0.0379089415073394
-0.0425944998860359
-0.046660766005516
-0.0500507578253746
-0.0527518317103385
-0.0547734647989273
-0.0561332106590271
-0.0568528696894645
-0.0569574385881423
-0.0564751699566841
-0.0554416552186012
-0.0539028532803058
-0.0519116520881652
-0.0495226643979549
-0.0467884913086891
-0.0437527373433113
-0.0404420420527458
-0.0368706583976745
-0.0330577939748764
-0.0290384385734796
-0.0248593930155038
-0.0205708071589469
-0.0162203535437583
-0.0118497759103775
-0.0074935629963874
-0.0031793303787708
0.0010705441236495
0.0052360035479068
0.0092960838228464
0.0132267996668815
0.0170014854520559
0.0205976665019989
0.024009583517909
0.0272495187819004
0.0303312893956899
0.0332566797733306
0.0360164418816566
0.0385972261428833
0.0409875214099884
0.0431802347302436
0.0451733209192752
0.0469698384404182
0.0485732071101665
0.0499797277152538
0.0511786490678787
0.0521600767970085
0.0529204607009887
0.0534633621573448
0.0538017973303794
0.0539582297205925
0.0539537370204925
0.0537958964705467
0.0534798763692379
0.0529977977275848
0.0523438341915607
0.0515104830265045
0.0504772029817104
0.0491984784603118
0.0476010888814926
0.0455933697521686
0.0430853329598903
0.0400141961872577
0.0363625958561897
0.0321662500500679
0.027517307549715
0.0225566439330577
0.0174474269151687
0.0123444823548197
0.0073761334642767
0.0026371995918452
-0.0018099644221365
-0.0059247114695608
-0.0096751190721988
-0.0130339842289686
-0.0159827210009098
-0.0185142774134874
-0.0206319969147443
-0.0223489515483379
-0.0236877240240573
-0.0246733352541923
-0.0253229029476642
-0.0256474949419498
-0.0256652552634477
-0.0254059974104166
-0.0249017868191003
-0.0241769813001155
-0.0232464205473661
-0.0221192259341478
-0.0208020489662885
-0.0193004086613655
-0.0176224987953901
-0.0157860666513443
-0.0138205830007791
-0.0117616169154644
-0.0096463989466428
-0.0075129838660359
-0.0053948415443301
-0.0033165572676807
-0.0013009225949645
0.0006234990432858
0.0024252790026366
0.0040763271972537
0.0055566765367984
