bvp
-0.0002707918174564
0.0009652986191213
0.0021021906286478
0.003147552255541
0.0041201412677764
0.0050447583198547
0.0059464289806783
0.0068507795222103
0.0077797174453735
0.0087363058701157
0.0096977297216653
0.0106245707720518
0.011475009843707
0.012217054143548
0.0128350593149662
0.013328693807125
0.0137076936662197
0.0139857297763228
0.0141775589436292
0.0143012339249253
0.0143794612959027
0.0144357271492481
0.0144909350201487
0.0145664755254983
0.0146825602278113
0.0148417754098773
0.0150165017694234
0.0151560958474874
0.0151988361030817
0.0150741934776306
0.0147029627114534
0.0140034016221761
0.0128997536376118
0.0113323209807276
0.0092716729268431
0.0067321890965104
0.0037774730008095
0.0005149748176336
-0.0029148766770958
-0.0063497074879705
-0.009625144302845
-0.0126075381413102
-0.0152175240218639
-0.0174272675067186
-0.0192415155470371
-0.0206780787557363
-0.021755427122116
-0.0224875062704086
-0.0228808522224426
-0.0229343622922897
-0.0226460378617048
-0.0220235846936702
-0.0210915338248014
-0.0198912359774112
-0.0184721555560827
-0.0168791934847831
-0.0151512045413255
-0.0133338356390595
-0.0114849116653203
-0.0096619762480258
-0.0079082893207669
-0.0062479106709361
-0.0046850191429257
-0.0032054395414888
-0.0017840201035141
-0.0003957864828407
0.000977384392172
0.0023462916724383
0.0037149777635931
0.0050802621990442
0.0064330929890275
0.0077646197751164
0.0090692611411213
0.0103365927934646
0.0115437982603907
0.0126601113006472
0.0136558022350072
0.0145078562200069
0.0152032487094402
0.0157417152076959
0.0161376874893903
0.0164180733263492
0.0166138745844364
0.0167506095021963
0.0168431401252746
0.0168965123593807
0.0169146917760372
0.0169118009507656
0.0169094558805227
0.0169175788760185
0.0169199835509061
0.0168792903423309
0.0167532004415988
0.0165093149989843
0.0161338653415441
0.0156350824981927
0.0150403222069144
0.0143861640244722
0.0137057732790708
0.0130168497562408
0.0123097160831093
0.0115395691245794
0.0106329731643199
0.0095086889341473
0.0080947037786245
0.0063335201703011
0.0041892789304256
0.0016607725992798
-0.0012093880213797
-0.0043347859755158
-0.0075938701629638
-0.0108459396287798
-0.0139518752694129
-0.0167925860732793
-0.0192795172333717
-0.0213584322482347
-0.0230075735598802
-0.0242282655090093
-0.0250292550772428
-0.0254147090017795
-0.0253896843641996
-0.0249786134809255
-0.0242353491485118
-0.0232386607676744
-0.0220796894282102
-0.0208450760692358
-0.019603306427598
-0.0183993987739086
-0.0172544457018375
-0.0161659754812717
-0.0151105504482984
-0.0140529628843069
-0.0129576530307531
-0.0117936022579669
-0.0105336960405111
-0.0091546783223748
-0.0076444754377007
-0.0060151503421366
-0.0043058143928647
-0.0025711902417242
-0.0008687519002705
0.0007480153581127
0.002233684528619
0.0035575414076447
0.0047106742858886
0.005705720745027
0.0065688299946486
0.0073310602456331
0.0080218762159347
0.0086655234917998
0.0092851324006915
0.0099091418087482
0.0105635030195117
0.0112527702003717
0.0119534386321902
0.0126257706433534
0.0132301058620214
0.0137371588498353
0.0141305280849337
0.0144050661474466
0.0145651781931519
0.0146222291514277
0.0145907439291477
0.0144867692142724
0.0143282935023307
0.0141338873654603
0.0139195108786225
0.0136929098516702
0.0134357679635286
0.0130751896649599
0.0124752391129732
0.0114684645086526
0.0099056679755449
0.007696446031332
0.0048350137658417
0.0014098063111305
-0.0024100842420011
-0.0064085912890732
-0.0103605920448899
-0.0140615552663803
-0.0173463206738233
-0.0200993921607732
-0.0222557540982961
-0.0237894728779792
-0.0247036162763834
-0.0250338111072778
-0.0248500499874353
-0.0242450591176748
-0.0233187209814786
-0.0221654567867517
-0.0208662021905183
-0.0194863304495811
-0.0180748254060745
-0.0166620016098022
-0.0152604803442955
-0.0138687267899513
-0.0124745415523648
-0.0110608702525496
-0.009609866887331
-0.0081014782190322
-0.0065170070156455
-0.0048519168049097
-0.0031231241300702
-0.0013626683503389
0.0003931829705834
0.0021107643842697
0.0037623890675604
0.0053294720128178
0.0068052243441343
0.0081943869590759
0.0095078600570559
0.0107538532465696
0.0119318068027496
0.0130348522216081
0.0140609946101903
0.0150225907564163
0.0159383788704872
0.0168123394250869
0.0176232103258371
0.018333937972784
0.0189093127846717
0.0193291082978248
0.0195924676954746
0.0197149906307458
0.0197215043008327
0.0196393933147192
0.0194974858313798
0.019326951354742
0.0191560685634613
0.0190010592341423
0.0188643168658018
0.0187431406229734
0.0186343230307102
0.0185248609632253
0.0183850415050983
0.0181770697236061
0.01786720007658
0.0174288619309663
0.0168372131884098
0.016059473156929
0.0150480177253484
0.0137429982423782
0.0120848193764686
0.0100326379761099
0.007582290098071
0.0047760372981429
0.0017031310126185
-0.0015086624771356
-0.0047177127562463
-0.0078033255413174
-0.0106850769370794
-0.0133174257352948
-0.0156771838665008
-0.0177554339170455
-0.0195504315197467
-0.0210609640926122
-0.0222818180918693
-0.0232024174183607
-0.0238108206540346
-0.0240998230874538
-0.0240714438259601
-0.0237409807741642
-0.0231370460242033
-0.0222929995507001
-0.0212416145950555
-0.0200226791203022
-0.018688179552555
-0.0172943416982889
-0.0158912446349859
-0.014516744762659
-0.0131913786754012
-0.0119167454540729
-0.0106821404770016
-0.0094733275473117
-0.0082749454304575
-0.007069042418152
-0.0058369352482259
-0.0045640463940799
-0.0032412442378699
-0.0018631555140018
-0.0004331296950113
0.0010262762662023
0.0024715680629014
0.0038482695817947
0.0051037427037954
0.0061988113448023
0.0071163959801197
0.0078625315800309
0.008460234850645
0.0089423544704914
0.0093449736014008
0.0097008729353547
0.0100353443995118
0.010363838635385
0.0106935454532504
0.0110318325459957
0.0113886222243309
0.0117626637220382
0.0121292676776647
0.0124464249238371
0.0126708876341581
0.0127701163291931
0.0127271069213747
0.012541894800961
0.0122294761240482
0.011813442222774
0.0113211758434772
0.0107802236452698
0.0102088432759046
0.0096008237451314
0.0089151673018932
0.0080825788900256
0.0070223724469542
0.0056547978892922
0.0039125923067331
0.0017599919810891
-0.000788290053606
-0.0036612120456993
-0.0067433528602123
-0.0098960865288972
-0.0129765048623085
-0.0158519390970468
-0.0184115916490554
-0.0205746740102767
-0.0222939737141132
-0.0235534608364105
-0.0243585780262947
-0.0247234720736742
-0.0246697515249252
-0.0242373496294021
-0.0234877988696098
-0.0224975012242794
-0.0213503465056419
-0.0201261863112449
-0.0188862942159175
-0.0176668856292963
-0.0164814889430999
-0.0153237944468855
-0.0141712659969925
-0.0129945073276758
-0.0117683876305818
-0.0104766422882676
-0.0091074369847774
-0.0076471548527479
-0.0060850828886032
-0.0044279252178967
-0.0027075898833572
-0.0009757103398442
0.0007086149416863
0.0022920756600797
0.0037375316023826
0.0050294352695345
0.006173513829708
0.0071910619735717
0.0081121185794472
0.0089703043922781
0.0097972126677632
0.0106157651171088
0.0114382347092032
0.0122737018391489
0.0131329176947474
0.0140180513262748
0.01490936614573
0.0157653037458658
0.0165357440710067
0.0171766467392444
0.0176580362021923
0.0179678797721862
0.0181140899658203
0.0181227102875709
0.0180312246084213
0.0178799200803041
0.0177050102502107
0.0175330750644207
0.0173804759979248
0.0172603260725736
0.0171819701790809
0.0171349830925464
0.0170762296766042
0.016932263970375
0.0166093613952398
0.0160058066248893
0.0150287011638283
0.013613318093121
0.0117379920557141
0.0094301057979464
0.0067616458982229
0.0038374487776309
0.000783257652074
-0.002265965566039
-0.0051789302378892
-0.0078385733067989
-0.0101542184129357
-0.012076886370778
-0.0136035811156034
-0.014763057231903
-0.0155941070988774
-0.0161324478685855
-0.0164107102900743
-0.0164617244154214
-0.0163193624466657
-0.0160183999687433
-0.0155927147716283
-0.0150728272274136
-0.0144843617454171
-0.0138468779623508
-0.0131707536056637
-0.0124514661729335
-0.011672880500555
-0.0108247576281428
-0.0099137257784605
-0.0089558605104684
-0.0079670017585158
-0.0069622215814888
-0.0059563587419688
-0.0049594342708587
-0.0039735184982419
-0.0029953820630908
-0.0020209331996738
-0.0010487306863069
-8.282158523797989e-05
0.0008676040451973
0.0017957645468413
0.0027070315554738
0.0036163427866995
0.0045313397422432
0.0054392423480749
0.0063097267411649
0.007107863202691
0.0078054624609649
0.008386455476284
0.0088499309495091
0.0092111080884933
0.0094963945448398
0.0097344787791371
0.0099493842571973
0.0101562906056642
0.010358246974647
0.010549122467637
0.0107246609404683
0.0108859473839402
0.0110285459086298
0.0111358202993869
0.0111861852928996
0.0111631015315651
0.0110588362440466
0.0108721805736422
0.0106040574610233
0.0102520585060119
0.009800030849874
0.0092060649767518
0.0084027713164687
0.0073143132030963
0.0058792079798877
0.0040703574195504
0.0019084941595792
-0.000540685839951
-0.0031866375356912
-0.0059339008294045
-0.0086908554658293
-0.0113709550350904
-0.0138922166079282
-0.0161807388067245
-0.0181791391223669
-0.0198515988886356
-0.0211795754730701
-0.0221535786986351
-0.0227689500898122
-0.0230268239974975
-0.0229366365820169
-0.0225146207958459
-0.0217790864408016
-0.0207554101943969
-0.0194912608712911
-0.0180609449744224
-0.0165514517575502
-0.0150437606498599
-0.0135981142520904
-0.012245493941009
-0.0109874531626701
-0.0098009696230292
-0.0086464453488588
-0.0074810674414038
-0.0062707043252885
-0.004993513226509
-0.0036402433179318
-0.002213014755398
-0.0007183756679296
0.0008362703956663
0.002432286273688
0.0040299580432474
0.005574804265052
0.0070122117176651
0.0082995072007179
0.0094126816838979
0.0103484475985169
0.0111234746873378
0.0117706656455993
0.0123322624713182
0.0128501430153846
0.0133571708574891
0.0138748399913311
0.0144173521548509
0.0149976499378681
0.0156231112778186
0.0162791442126035
0.0169225707650184
0.017494574189186
0.0179386138916015
0.0182133372873067
0.0183014757931232
0.0182138215750455
0.0179844126105308
0.017657671123743
0.0172743592411279
0.0168641675263643
0.0164478253573179
0.016042560338974
0.0156615804880857
0.0153055945411324
0.0149478102102875
0.0145180718973279
0.0139028225094079
0.012969771400094
0.0116048734635114
0.009744020178914
0.0073888632468879
0.0046040345914661
0.0015020645223557
-0.0017746589146554
-0.0050733787938952
-0.0082508632913231
-0.0111875962466001
-0.0137949828058481
-0.0160141456872224
-0.0178070049732923
-0.0191550813615322
-0.0200691074132919
-0.0205892026424407
-0.0207724049687385
-0.0206809062510728
-0.0203730575740337
-0.0198975261300802
-0.0192929096519947
-0.0185891203582286
-0.0178078915923833
-0.0169628523290157
-0.0160603038966655
-0.0151008386164903
-0.0140802366659045
-0.012988744303584
-0.0118096256628632
-0.0105249360203742
-0.0091312667354941
-0.0076500996947288
-0.0061228899285197
-0.0045981314033269
-0.0031194642651826
-0.0017195491818711
-0.000419573392719
0.0007698216941207
0.0018484874162822
0.0028266620356589
0.003722611349076
0.0045567089691758
0.0053461678326129
0.0061070625670254
0.0068600820377469
0.0076260054484009
0.0084094209596514
0.0091889705508947
0.0099254939705133
0.0105792712420225
0.0111221177503466
0.0115387560799717
0.0118235163390636
0.0119809480383992
0.0120292445644736
0.0119974473491311
0.0119154239073395
0.0118062393739819
0.0116844633594155
0.0115593476220965
0.0114429537206888
0.0113504501059651
0.0112850423902273
0.0112250540405511
0.0111227193847298
0.0109075531363487
0.0104939769953489
0.0097937490791082
0.0087286988273262
0.0072439056821167
0.0053215511143207
0.002990108449012
0.0003248248249292
-0.0025615408085286
-0.0055358335375785
-0.0084617920219898
-0.0112121477723121
-0.0136816008016467
-0.0158041436225175
-0.0175602417439222
-0.0189633537083864
-0.0200400725007057
-0.0208186786621809
-0.0213242061436176
-0.0215776730328798
-0.0215988047420978
-0.0214063338935375
-0.0210154727101326
-0.020439064130187
-0.0196923166513443
-0.0187967400997877
-0.0177789963781833
-0.016661062836647
-0.0154525740072131
-0.0141578866168856
-0.0127878282219171
-0.0113636367022991
-0.0099146589636802
-0.0084724780172109
-0.0070628840476274
-0.0056997649371623
-0.0043851765803992
-0.0031152497977018
-0.0018847472965717
-0.0006862790323793
0.0004883664660155
0.001641415990889
0.0027700108475983
0.0038791424594819
0.0049846349284052
0.0060957306995987
0.0071997358463704
0.0082664815708994
0.009262865409255
0.0101634161546826
0.0109571767970919
0.0116504644975066
0.0122600719332695
0.0128038898110389
0.0132983783259987
0.0137575566768646
0.0141884740442037
0.0145894382148981
0.0149561194702982
0.0152898328378796
0.0155959427356719
0.0158731713891029
0.0161088071763515
0.0162828732281923
0.0163732282817363
0.0163613483309745
0.0162387508898973
0.0160060338675975
0.0156613495200872
0.0151863824576139
0.0145378522574901
0.013648260384798
0.0124408937990665
0.0108563443645834
0.008877009153366
0.0065389461815357
0.0039236200973391
0.0011323487851768
-0.0017357463948428
-0.0045901788398623
-0.0073495400138199
-0.0099437097087502
-0.0123156085610389
-0.014422652311623
-0.016237448900938
-0.0177441090345382
-0.0189324412494897
-0.019795561209321
-0.0203325115144252
-0.0205522384494543
-0.020470917224884
-0.0201020538806915
-0.0194565635174512
-0.0185589287430048
-0.0174568146467208
-0.0162126217037439
-0.0148896239697933
-0.0135396160185337
-0.0121933855116367
-0.0108607411384582
-0.0095405932515859
-0.0082292901352047
-0.0069200173020362
-0.0056008892133831
-0.004257695749402
-0.0028775595128536
-0.0014499584212899
3.344658762216568e-05
0.0015724748373031
0.0031467732042074
0.0047150026075541
0.0062274076044559
0.0076378099620342
0.0089120920747518
0.0100372433662414
0.0110237570479512
0.0118951983749866
0.0126753058284521
0.013383443467319
0.0140356700867414
0.0146449953317642
0.0152192413806915
0.0157628469169139
0.0162854213267564
0.016802292317152
0.0173203069716691
0.017827033996582
0.0182940661907196
0.0186853744089603
0.0189647432416677
0.0191043503582477
0.0190922487527132
0.0189332757145166
0.0186457261443138
0.0182583387941122
0.0178054515272378
0.0173195116221904
0.0168250277638435
0.0163358990103006
0.015852028504014
0.015346985310316
0.0147510673850774
0.0139510221779346
0.0128145487979054
0.011224752292037
0.0091103557497262
0.0064654164016246
0.0033525303006172
-0.0001120152883231
-0.0037796418182551
-0.0074870930984616
-0.0110752191394567
-0.0144109018146991
-0.0174019038677215
-0.0199959799647331
-0.0221669301390647
-0.0239044576883316
-0.025217667222023
-0.0261382814496755
-0.0267129614949226
-0.0269914548844099
-0.0270163267850875
-0.026817250996828
-0.0264134015887975
-0.0258202385157346
-0.0250538345426321
-0.024132901802659
-0.0230789855122566
-0.021912982687354
-0.0206526666879653
-0.0193106681108474
-0.0178874433040618
-0.0163724180310964
-0.014762663282454
-0.0130792539566755
-0.0113650104030966
-0.0096701774746179
-0.0080374432727694
-0.0064930524677038
-0.0050461296923458
-0.0036913896910846
-0.002411289140582
-0.0011824951507151
1.3383105397224426e-05
0.0011842981912195
0.0023306994698941
0.0034541096538305
0.0045670783147215
0.0056922193616628
0.0068457876332104
0.0080235702916979
0.0092007359489798
0.0103387916460633
0.0113954255357384
0.0123346205800771
0.0131326057016849
0.0137810409069061
0.0142878331243991
0.0146729443222284
0.0149611048400402
0.0151759572327137
0.0153384404256939
0.0154707748442888
0.0156007427722215
0.0157522596418857
0.0159252509474754
0.0160904787480831
0.0162055734544992
0.0162318740040063
0.0161370877176523
0.0158850587904453
0.0154245300218462
0.0146889295428991
0.0136102829128503
0.0121398791670799
0.0102638117969036
0.0080076036974787
0.0054326374083757
0.0026307087391614
-0.000280144973658
-0.0031680227257311
-0.0059146387502551
-0.0084399860352277
-0.0107056815177202
-0.0127039719372987
-0.0144447237253189
-0.0159424506127834
-0.0172053072601556
-0.0182298328727483
-0.0190023742616176
-0.0195053778588771
-0.0197253823280334
-0.0196602996438741
-0.0193222891539335
-0.0187305621802806
-0.0178994610905647
-0.0168407000601291
-0.0155818006023764
-0.0141761591657996
-0.0126915983855724
-0.0111912507563829
-0.0097219552844762
-0.0083114318549633
-0.006968361325562
-0.0056837419979274
-0.0044362060725688
-0.0032001975923776
-0.001953400671482
-0.0006824396550655
0.0006130118854343
0.0019232844933867
0.0032413494773209
0.0045674070715904
0.0058952067047357
0.0072012315504252
0.0084509532898664
0.0096114818006753
0.0106610087677836
0.0115929935127496
0.0124138742685318
0.0131369531154632
0.013778650201857
0.0143572706729173
0.0148901604115962
0.0153896529227495
0.0158602502197027
0.0163020212203264
0.0167210735380649
0.0171305164694786
0.017534289509058
0.0179145485162735
0.0182352568954229
0.0184552874416112
0.018543729558587
0.0184872616082429
0.0182864814996719
0.0179509222507476
0.0174967385828495
0.0169426258653402
0.0162998139858245
0.0155579503625631
0.0146754654124379
0.0135841714218258
0.0122107062488794
0.010499695315957
0.0084216389805078
0.0059713260270655
0.0031705717556178
7.5529795140028e-05
-0.0032227295450866
-0.0066113737411797
-0.009975210763514
-0.0132116880267858
-0.0162388756871223
-0.0189978312700986
-0.0214490480720996
-0.0235636979341506
-0.0253155920654535
-0.0266764685511589
-0.0276123695075511
-0.0280903875827789
-0.0281010493636131
-0.0276754759252071
-0.0268812477588653
-0.0258048884570598
-0.024531552568078
-0.0231294743716716
-0.0216441415250301
-0.0200999192893505
-0.0185047816485166
-0.0168546997010707
-0.0151358032599091
-0.0133248372003436
-0.0113905072212219
-0.0092971883714199
-0.0070094196125864
-0.0045026117004454
-0.0017828007694333
0.0011011036112904
0.0040634963661432
0.0069974372163414
0.009792149066925
0.012351025827229
0.0146043971180915
0.0165141113102436
0.0180717632174491
0.0192910339683294
0.020198430866003
0.0208294373005628
0.0212288089096546
0.0214515011757612
0.021562423557043
0.0216261390596628
0.0216861013323068
0.0217523928731679
0.0218076594173908
0.0218212846666574
0.0217618960887193
0.0216051936149597
0.0213392209261655
0.0209678374230861
0.0205078981816768
0.019982423633337
0.019416157156229
0.0188309662044048
0.0182397067546844
0.0176459457725286
0.0170510932803154
0.0164559911936521
0.0158500038087368
0.015198603272438
0.0144376223906874
0.0134751163423061
0.0122025776654481
0.0105137936770915
0.0083269756287336
0.0056049786508083
0.002368314191699
-0.0013033766299486
-0.0052833557128906
-0.0094196926802396
-0.0135583840310573
-0.0175576917827129
-0.0212929919362068
-0.0246655736118555
-0.0276182852685451
-0.0301399938762187
-0.0322521142661571
-0.0339884683489799
-0.0353774353861808
-0.0364325195550918
-0.0371563509106636
-0.0375541187822818
-0.0376416891813278
-0.0374403670430183
-0.0369700565934181
-0.0362512692809104
-0.0353099852800369
-0.0341748520731925
-0.0328649282455444
-0.0313851721584796
-0.0297403559088706
-0.0279477275907993
-0.0260362587869167
-0.024041797965765
-0.022000465542078
-0.0199407506734132
-0.0178817622363567
-0.0158384423702955
-0.0138268023729324
-0.0118633117526769
-0.0099585577845573
-0.0081131923943758
-0.0063216318376362
-0.0045736143365502
-0.002847344148904
-0.0011122885625809
0.0006501404568552
0.0024302927777171
0.0041943532414734
0.0059007732197642
0.0075142318382859
0.0090115815401077
0.0103819947689771
0.0116230370476841
0.0127359637990593
0.0137251717969775
0.0146007975563406
0.0153791587799787
0.0160806700587272
0.016728613525629
0.0173488371074199
0.0179632101207971
0.018574059009552
0.0191523879766464
0.0196388065814971
0.0199499186128377
0.0199846681207418
0.0196365937590599
0.0188148319721221
0.0174661725759506
0.0155907236039638
0.0132469683885574
0.0105439350008964
0.0076225521042943
0.0046323277056217
0.0017141075804829
-0.0010073878802359
-0.0034340708516538
-0.0055110561661422
-0.007229920476675
-0.0086117042228579
-0.0096862418577075
-0.0104816677048802
-0.011024722829461
-0.0113431746140122
-0.0114608844742178
-0.0113891139626502
-0.0111273722723126
-0.010674487799406
-0.0100367721170187
-0.0092287408187985
-0.0082688238471746
-0.0071707274764776
-0.0059408312663435
-0.0045891879126429
-0.0031404355540871
-0.0016329009085893
-0.0001099742949008
0.0013898899778723
0.0028385976329445
0.0042172726243734
0.0055145910009741
0.006728877313435
0.0078691653907299
0.0089507792145013
0.0099906735122203
0.0110061056911945
0.0120145119726657
0.0130345802754163
0.0140825556591153
0.0151589810848236
0.0162396281957626
0.0172820389270782
0.0182387866079807
0.0190682038664817
0.0197440646588802
0.020263047888875
0.0206429101526737
0.0209114849567413
0.0210962183773517
0.0212201327085495
0.0213001444935798
0.0213438980281353
0.0213520005345344
0.0213285163044929
0.021283458918333
0.021219789981842
0.0211244784295558
0.0209741462022066
0.0207441411912441
0.0204145945608615
0.0199747793376445
0.0194245036691427
0.0187690127640962
0.0180054176598787
0.0171062313020229
0.0160116963088512
0.0146373910829424
0.0128949303179979
0.0107205305248498
0.0081015285104513
0.0050852461718022
0.0017634723335504
-0.0017524459399282
-0.0053484248928725
-0.0089177703484892
-0.0123704811558127
-0.0156390164047479
-0.0186769235879182
-0.0214524380862712
-0.0239418745040893
-0.0261228419840335
-0.0279683750122785
-0.029447728767991
-0.0305329523980617
-0.0312029384076595
-0.0314418375492095
-0.0312449913471937
-0.0306373238563537
-0.0296807363629341
-0.0284590069204568
-0.0270570758730173
-0.0255465414375066
-0.0239762887358665
-0.0223688967525959
-0.0207259096205234
-0.0190400686115026
-0.0173066407442092
-0.0155271301046013
-0.0137063851580023
-0.0118477689102292
-0.0099497269839048
-0.0080064376816153
-0.0060162777081131
-0.0039950711652636
-0.0019800618756562
-1.9053462892770767e-05
0.0018447702750563
0.0035822761710733
0.0051795630715787
0.0066334553994238
0.0079472232609987
0.0091318897902965
0.0102100418880581
0.0112123293802142
0.012167003005743
0.0130922580137848
0.013996155001223
0.0148820839822292
0.0157505981624126
0.0165912359952926
0.0173752475529909
0.0180616341531276
0.0186128262430429
0.0190070196986198
0.0192395709455013
0.0193192604929208
0.0192648116499185
0.0191000942140817
0.0188496615737676
0.0185366030782461
0.0181810837239027
0.0177986975759267
0.0174016896635293
0.0170036405324935
0.0166169963777065
0.0162367820739746
0.0158245936036109
0.0153070045635104
0.0145833939313888
0.0135384509339928
0.0120623866096138
0.010074121877551
0.0075402203947305
0.0044853212311863
0.0009908489882946
-0.0028154617175459
-0.0067779477685689
-0.0107370279729366
-0.0145457349717617
-0.0180737841874361
-0.0212144795805215
-0.0239000022411346
-0.0261076316237449
-0.0278479401022195
-0.0291468501091003
-0.0300354659557342
-0.0305496156215667
-0.0307298935949802
-0.0306166447699069
-0.0302457772195339
-0.0296494700014591
-0.0288590509444475
-0.0279061906039714
-0.0268199872225523
-0.0256205461919307
-0.0243124105036258
-0.0228881873190403
-0.0213467068970203
-0.0197067856788635
-0.0180012714117765
-0.0162621550261974
-0.0145129198208451
-0.0127698881551623
-0.0110453739762306
-0.009347254410386
-0.0076756859198212
-0.0060237753205001
-0.0043825176544487
-0.0027441652491688
-0.0011039942037314
0.0005411652382463
0.0021986081264913
0.0038768397644162
0.0055687651038169
0.0072412202134728
0.0088433707132935
0.0103225223720073
0.0116377314552664
0.0127694029361009
0.013722600415349
0.0145224928855896
0.0152035905048251
0.0157986637204885
0.0163315385580062
0.0168145578354597
0.0172523129731416
0.0176504720002412
0.0180225577205419
0.0183854326605796
0.0187455713748931
0.019091447815299
0.019396636635065
0.0196264460682868
0.0197450444102287
0.0197183601558208
0.0195075012743473
0.0190594792366027
0.0183070264756679
0.0171789601445198
0.0156143885105848
0.0135788898915052
0.0110821025446057
0.0081883799284696
0.0050140637904405
0.0017089922912418
-0.0015764639247208
-0.0047222608700394
-0.0076491236686706
-0.010310960933566
-0.0126828094944357
-0.0147496741265058
-0.016496630385518
-0.0179048404097557
-0.0189557485282421
-0.0196387842297554
-0.0199569780379533
-0.0199288353323936
-0.0195864718407392
-0.0189667027443647
-0.0180990789085626
-0.0170078296214342
-0.0157291293144226
-0.014321444556117
-0.0128559190779924
-0.011395089328289
-0.0099760172888636
-0.0086078066378831
-0.0072799017652869
-0.0059719653800129
-0.0046609002165496
-0.0033263871446251
-0.0019568626303225
-0.0005524498410522
0.0008786735124886
0.0023281106259673
0.0037932670675218
0.005272947717458
0.0067533240653574
0.0082004806026816
0.0095680858939886
0.0108106173574924
0.0118929045274853
0.0127954259514808
0.0135173127055168
0.0140776243060827
0.0145106650888919
0.014853585511446
0.0151362372562289
0.0153819499537348
0.0156127223744988
0.0158505551517009
0.0161161869764328
0.0164228491485118
0.016763424500823
0.0171047579497098
0.0173985548317432
0.0175988227128982
0.017671687528491
0.0175946541130542
0.0173545721918344
0.0169508438557386
0.0163988098502159
0.0157287176698446
0.0149806533008813
0.0141962859779596
0.0134102059528231
0.0126437805593013
0.0118988240137696
0.0111442133784294
0.0103010274469852
0.0092470655217766
0.0078474003821611
0.0059932060539722
0.0036307666450738
0.0007748194038867
-0.0024935062974691
-0.0060421517118811
-0.0097109470516443
-0.0133349010720849
-0.0167664662003517
-0.019893480464816
-0.0226450264453887
-0.0249834172427654
-0.0268886666744947
-0.0283504165709018
-0.0293749999254941
-0.0299905128777027
-0.030239064246416
-0.0301685594022274
-0.0298286154866218
-0.0292638950049877
-0.0285079237073659
-0.0275838896632194
-0.0265083685517311
-0.0252934135496616
-0.023950146511197
-0.0224934704601764
-0.0209415536373853
-0.0193075649440288
-0.0175908170640468
-0.0157809071242809
-0.0138756008818745
-0.0118936756625771
-0.0098714297637343
-0.0078509263694286
-0.0058705289848148
-0.0039613144472241
-0.0021444254089146
-0.0004260605201125
0.0012013978557661
0.0027490523643791
0.0042229746468365
0.005623921751976
0.0069525926373898
0.008218340575695
0.0094459913671016
0.010668396949768
0.0119042694568634
0.0131427682936191
0.0143496925011277
0.0154846049845218
0.0165135115385055
0.0174143593758344
0.0181785803288221
0.0188091769814491
0.0193151347339153
0.0197050515562295
0.0199851877987384
0.0201626028865575
0.0202477984130382
0.0202561691403388
0.0202108919620513
0.020136633887887
0.0200392454862594
0.0198953319340944
0.0196664668619632
0.0193189680576324
0.0188325569033622
0.0182028226554393
0.0174426827579736
0.0165788289159536
0.0156416706740856
0.0146528780460357
0.0136131718754768
0.0124920886009931
0.011227904818952
0.0097462385892868
0.0079888617619872
0.0059303604066371
0.0035745492205023
0.0009468719363212
-0.0019061788916587
-0.0049170437268912
-0.0080016795545816
-0.0110689019784331
-0.0140319298952817
-0.0168150402605533
-0.01935251429677
-0.0215862803161144
-0.0234686024487018
-0.024967536330223
-0.0260692983865737
-0.0267748236656188
-0.0270914621651172
-0.0270312130451202
-0.0266237780451774
-0.0259263888001441
-0.0250130891799926
-0.0239562466740608
-0.0228177160024642
-0.0216469690203666
-0.0204781610518693
-0.0193266943097114
-0.0181880723685026
-0.0170415192842483
-0.0158588029444217
-0.0146135706454515
-0.0132873374968767
-0.0118699315935373
-0.0103553831577301
-0.0087439883500337
-0.0070534343831241
-0.0053232535719871
-0.0036050463095307
-0.0019479650072753
-0.0003865309990942
0.0010673077777028
0.0024219411425292
0.0036933673545718
0.0048943813890218
0.0060311453416943
0.0071024098433554
0.0081019597128033
0.0090239951387047
0.009868792258203
0.010649899020791
0.0113947335630655
0.0121301990002393
0.0128662548959255
0.0135908611118793
0.0142742078751325
0.0148789919912815
0.0153738055378198
0.0157429128885269
0.0159896984696388
0.0161343477666378
0.0162061937153339
0.0162350516766309
0.0162424948066473
0.0162296500056982
0.0161683205515146
0.0160046946257352
0.0156681351363658
0.0150749962776899
0.014135948382318
0.0127769093960523
0.0109652075916528
0.0087244398891925
0.0061315698549151
0.0033033518120646
0.0003809849440585
-0.0024873956572264
-0.0051698866300284
-0.00757154263556
-0.0096395565196871
-0.0113523071631789
-0.0127010205760598
-0.0136750284582376
-0.0142648862674832
-0.0144830495119094
-0.0143772372975945
-0.0140214851126074
-0.0134968031197786
-0.0128749124705791
-0.0122088585048913
-0.0115297008305788
-0.010846808552742
-0.0101523054763674
-0.0094299148768186
-0.0086642056703567
-0.007846025750041
-0.0069708484224975
-0.0060296328738331
-0.0050022602081298
-0.0038677975535392
-0.0026257024146616
-0.0013047847896814
4.566740244626999e-05
0.0013702334836125
0.0026204520836472
0.0037635061889886
0.0047842729836702
0.0056831324473023
0.006470400840044
0.0071597290225327
0.0077672810293734
0.0083139631897211
0.0088218506425619
0.0093106105923652
0.0098013989627361
0.0103161120787262
0.0108644273132085
0.0114346835762262
0.0119993472471833
0.0125250164419412
0.0129776243120431
0.0133262835443019
0.0135525660589337
0.0136590618640184
0.0136647289618849
0.01359299197793
0.0134658068418502
0.0133025627583265
0.0131195364519953
0.0129320863634347
0.0127584794536232
0.012615617364645
0.0125053059309721
0.0124062541872262
0.0122810304164886
0.0120887150987982
0.0117894364520907
0.0113375838845968
0.0106726661324501
0.0097206169739365
0.0084091806784272
0.0066882814280688
0.0045459251850843
0.0020159445703029
-0.0008241292089223
-0.0038631600327789
-0.0069684092886745
-0.0100026503205299
-0.0128488764166831
-0.0154264215379953
-0.0176923088729381
-0.0196370705962181
-0.0212739091366529
-0.0226217359304428
-0.0236916039139032
-0.0244822446256876
-0.0249844901263713
-0.0251892693340778
-0.0250948537141084
-0.0247116554528474
-0.0240612681955099
-0.0231682825833559
-0.0220515988767147
-0.0207285266369581
-0.019230568781495
-0.0176099296659231
-0.0159281939268112
-0.0142394807189702
-0.0125799523666501
-0.010966770350933
-0.009401436895132
-0.0078734774142503
-0.0063667916692793
-0.0048674130812287
-0.0033677816390991
-0.0018660756759345
-0.0003617038019001
0.0011504162102937
0.0026821615174412
0.0042455331422388
0.0058395718224346
0.0074431588873267
0.0090179089456796
0.0105159347876906
0.0118906311690807
0.0131081445142626
0.0141540244221687
0.0150341400876641
0.0157715212553739
0.0163988284766674
0.0169502831995487
0.0174580588936805
0.0179499294608831
0.0184464119374752
0.0189604982733726
0.019493643194437
0.0200259629637002
0.020514665171504
0.0209054537117481
0.0211475677788257
0.0212038438767194
0.0210541598498821
0.020696872845292
0.0201492942869663
0.0194442551583051
0.0186228174716234
0.0177257768809795
0.0167882926762104
0.0158367082476615
0.0148824620991945
0.0139149632304906
0.0128939766436815
0.0117423366755247
0.0103531153872609
0.0086168553680181
0.0064534377306699
0.0038346322253346
0.00079314596951
-0.0025823470205068
-0.0061617181636393
-0.009792847558856
-0.0133250299841165
-0.0166311245411634
-0.0196220222860574
-0.0222492478787899
-0.0244911033660173
-0.0263312011957168
-0.0277539659291505
-0.0287612807005643
-0.0293834973126649
-0.0296723172068595
-0.029690071940422
-0.0295028090476989
-0.0291719995439052
-0.028745099902153
-0.0282506104558706
-0.0276985559612512
-0.027081748470664
-0.0263777170330286
-0.0255565084517002
-0.0245918817818164
-0.0234651658684015
-0.0221605021506547
-0.0206680726259946
-0.0190011020749807
-0.017205199226737
-0.0153469424694776
-0.0134937362745404
-0.011699229478836
-0.0099979899823665
-0.0084066018462181
-0.0069256443530321
-0.0055388696491718
-0.0042142951861023
-0.0029109893366694
-0.0015879720449447
-0.0002118414267897
0.0012419568374752
0.0027933986857533
0.004452196881175
0.0062006572261452
0.0079869087785482
0.0097383996471762
0.0113840298727154
0.0128706814721226
0.0141687840223312
0.0152700934559106
0.0161820631474256
0.0169225856661796
0.0175174828618764
0.0179982595145702
0.0183976683765649
0.0187453050166368
0.0190673545002937
0.0193909127265214
0.0197411216795444
0.0201212540268898
0.0204908512532711
0.0207620933651924
0.0208144523203372
0.0205169916152954
0.0197515618056058
0.018435712903738
0.016542475670576
0.0141095966100692
0.0112336240708827
0.008053358644247
0.004730150103569
0.0014273868873715
-0.0017061703838407
-0.0045427633449435
-0.0069823986850678
-0.0089696887880563
-0.0105031263083219
-0.0116231460124254
-0.0123893665149807
-0.0128595791757106
-0.0130779817700386
-0.0130760753527283
-0.012880565598607
-0.0125182112678885
-0.0120139084756374
-0.0113873807713389
-0.0106532601639628
-0.0098217297345399
-0.0088954316452145
-0.007864698767662
-0.0067116329446434
-0.0054274061694741
-0.0040265461429953
-0.0025435341522097
-0.0010194387286901
0.0005075586959719
0.0020054075866937
0.0034498879685997
0.0048266248777508
0.0061302855610847
0.0073606502264738
0.0085215019062161
0.0096209775656461
0.0106688775122165
0.0116769233718514
0.0126623157411813
0.0136423669755458
0.0146196708083152
0.0155740566551685
0.0164697468280792
0.0172685477882623
0.0179380103945732
0.0184554494917392
0.0188127029687166
0.0190187022089958
0.0190972220152616
0.0190809555351734
0.0190032217651605
0.0188918318599462
0.0187672935426235
0.0186450015753507
0.0185418799519538
0.0184772592037916
0.0184602886438369
0.0184797924011945
0.0185093730688095
0.0185183063149452
0.0184784717857837
0.0183673538267612
0.0181668233126401
0.0178590528666973
0.0174249969422817
0.0168441720306873
0.0160880796611309
0.0151071045547723
0.0138230985030531
0.0121407806873321
0.0099737085402011
0.0072641428560018
0.0039864340797066
0.0001471973955631
-0.0042074890807271
-0.0089888898655772
-0.0140747390687465
-0.019324667751789
-0.0245957300066947
-0.0297547616064548
-0.0346867516636848
-0.039298839867115
-0.043518416583538
-0.0472887493669986
-0.0505639985203743
-0.0533012561500072
-0.0554551593959331
-0.0569855868816375
-0.0578764975070953
-0.0581485256552696
-0.0578562654554843
-0.057078581303358
-0.0559069998562336
-0.0544315166771411
-0.0527281090617179
-0.0508526898920536
-0.0488395579159259
-0.0467009060084819
-0.0444300435483455
-0.0420094914734363
-0.0394165739417076
-0.0366212464869022
-0.0335843227803707
-0.0302710905671119
-0.0266749877482652
-0.0228269919753074
-0.0187853276729583
-0.0146204102784395
-0.010404547676444
-0.0062045808881521
-0.0020727701485157
0.0019582994282245
0.0058708563446998
0.0096545610576868
0.0133025366812944
0.0168086178600788
0.0201650001108646
0.0233644358813762
0.0264089945703744
0.0293118525296449
0.0320811383426189
0.0347033739089965
0.0371448807418346
0.0393651537597179
0.0413299165666103
0.0430198870599269
0.0444368422031402
0.0456060841679573
0.0465740375220775
0.0474026501178741
0.0481581129133701
0.0488964729011058
0.0496572330594062
0.0504660606384277
0.0513381287455558
0.0522734597325325
0.0532437115907669
0.054184652864933
0.0550038106739521
0.0555934011936187
0.0558330565690994
0.0555833131074905
0.0546868368983268
0.0529854781925678
0.0503470115363597
0.0466937199234962
0.0420231781899929
0.0364152751863002
0.0300264991819858
0.0230738595128059
0.0158119872212409
0.0085006421431899
0.0013667226303368
-0.0054174689576029
-0.0117325987666845
-0.0174999646842479
-0.0226669311523437
-0.027195518836379
-0.0310581028461456
-0.0342391170561313
-0.0367396734654903
-0.0385802462697029
-0.0397985726594924
-0.0404460318386554
-0.0405846983194351
-0.0402809306979179
-0.0395956300199031
-0.0385825186967849
-0.0372967943549156
-0.0358002111315727
-0.0341555215418338
-0.0324157997965812
-0.0306160524487495
-0.0287711340934038
-0.0268785208463668
-0.0249239932745695
-0.0228907484561204
-0.0207685902714729
-0.0185584034770727
-0.0162727069109678
-0.0139344036579132
-0.0115691125392913
-0.009190160781145
-0.0067933988757431
-0.0043699387460947
-0.0019184406846761
0.0005544470623135
0.0030388648156076
0.0055255135521292
0.0080059384927153
0.0104690231382846
0.0128977447748184
0.0152711234986782
0.0175716001540422
0.0197914652526378
0.0219331420958042
0.0240066610276699
0.0260277520865201
0.0280109122395515
0.0299484189599752
0.0317838601768016
0.0334057733416557
0.0346694216132164
0.0354311987757682
0.0355790480971336
0.0350490286946296
0.0338264815509319
0.0319394953548908
0.0294512249529361
0.0264504272490739
0.0230424590408802
0.0193476527929306
0.0155082354322075
0.0116998795419931
0.0081394668668508
0.0050681289285421
0.0027015693485736
0.0011742003262043
0.0005047563463449
0.0005878694355487
0.0012043938040733
0.0020454581826925
0.00275319814682
0.0029802937060594
0.0024582520127296
0.0010531079024076
-0.0012102238833904
-0.0041596237570047
-0.0075146444141864
-0.0109349098056554
-0.0140695497393608
-0.0166152119636535
-0.0183735247701406
-0.0192792322486639
-0.0193942580372095
-0.0188852213323116
-0.0179918594658374
-0.0169880464673042
-0.0161429531872272
-0.0156886521726846
-0.0157952774316072
-0.0165546983480453
-0.0179747454822063
-0.0199844520539045
-0.0224490910768508
-0.0251907221972942
-0.0280083939433097
-0.0307000167667865
-0.0330891162157058
-0.0350448638200759
-0.0364863611757755
-0.0373775698244571
-0.03771847859025
-0.037535548210144
-0.0368778519332408
-0.0358247198164463
-0.0344994850456714
-0.0330744795501232
-0.0317614376544952
-0.0307913664728403
-0.0303832739591598
-0.0306996330618858
-0.0318019092082977
-0.0336341634392738
-0.0360458716750144
-0.038829643279314
-0.0417481064796447
-0.044555302709341
-0.0470239147543907
-0.0489699989557266
-0.0502638891339302
