bvp
0.0237229578197002
0.0207790341228246
0.0181178264319896
0.0156749486923217
0.0133889187127351
0.0112087009474635
0.0090873567387461
0.0069780703634023
0.0048432182520627
0.0026668226346373
0.0004626857116818
-0.0017249751836061
-0.0038308473303914
-0.0057848249562084
-0.0075287609361112
-0.0090272184461355
-0.0102703236043453
-0.0112718334421515
-0.012064529582858
-0.0126908496022224
-0.0131891695782542
-0.0135877123102545
-0.0139136128127574
-0.0142029067501425
-0.0144977523013949
-0.0148357935249805
-0.0152414664626121
-0.015724278986454
-0.0162827242165803
-0.0169073101133108
-0.0175802800804376
-0.0182769708335399
-0.0189724285155534
-0.0196489077061414
-0.0202971994876861
-0.0209093652665615
-0.0214686524122953
-0.021951388567686
-0.0223454087972641
-0.0226647071540355
-0.0229432806372642
-0.0232167448848485
-0.0235073678195476
-0.0238180421292781
-0.0241344273090362
-0.0244324579834938
-0.0246877651661634
-0.024885918945074
-0.0250346660614013
-0.0251797512173652
-0.0254169721156358
-0.0258837603032588
-0.0267257317900657
-0.0280579570680856
-0.0299420431256294
-0.0323770381510257
-0.0352958552539348
-0.0385706685483455
-0.0420292466878891
-0.0454774685204029
-0.0487249791622161
-0.0516101457178592
-0.0540169030427932
-0.0558788925409317
-0.0571728572249412
-0.0579067692160606
-0.0581066943705081
-0.0578038394451141
-0.0570250302553176
-0.0557954870164394
-0.0541534200310707
-0.0521591827273368
-0.0498890802264213
-0.0474214032292366
-0.0448228865861892
-0.0421406924724578
-0.0394031405448913
-0.0366237387061119
-0.0338021479547023
-0.0309251472353935
-0.02797132730484
-0.0249195843935012
-0.0217573344707489
-0.0184821300208568
-0.0150989303365349
-0.01162632368505
-0.0081119174137711
-0.0046356762759387
-0.0012935888953506
0.0018255003960803
0.0046600643545389
0.0071859895251691
0.0094127394258975
0.0113716768100857
0.013105341233313
0.0146601386368274
0.0160800535231828
0.0174023807048797
0.0186570826917886
0.0198669098317623
0.0210480168461799
0.0222079269587993
0.0233372598886489
0.0244075171649456
0.0253822784870862
0.0262295417487621
0.026928449049592
0.0274726953357458
0.027871236205101
0.028147654607892
0.028336577117443
0.0284753981977701
0.0285965204238891
0.0287223942577838
0.0288609154522418
0.0290026497095823
0.0291188433766365
0.0291523039340972
0.0290034227073192
0.0285317078232765
0.027585195377469
0.0260453484952449
0.0238636173307895
0.0210734196007251
0.0177801847457885
0.0141403628513216
0.010334956459701
0.0065435096621513
0.002924857661128
-0.0003960120957344
-0.0033361881505697
-0.0058540776371955
-0.0079376529902219
-0.0095924399793148
-0.010839695110917
-0.0117158126085996
-0.0122641380876302
-0.0125268585979938
-0.0125434463843703
-0.0123515995219349
-0.0119868302717804
-0.0114815738052129
-0.0108622480183839
-0.0101443277671933
-0.0093324426561594
-0.0084263728931546
-0.0074257375672459
-0.0063300342299044
-0.0051333713345229
-0.003822929225862
-0.0023939502425491
-0.0008669658564031
0.0007149488665163
0.0023024193942546
0.0038525466807186
0.005333786830306
0.0067261597141623
0.0080201253294944
0.0092156380414962
0.0103210676461458
0.0113498587161302
0.0123145803809165
0.013223735615611
0.0140866097062826
0.0149208884686231
0.0157485473901033
0.0165791325271129
0.0173993557691574
0.0181783121079206
0.0188801884651184
0.0194759499281644
0.0199492536485195
0.0202944222837686
0.0205107573419809
0.0206016991287469
0.0205786302685737
0.0204606782644987
0.0202688220888376
0.0200203545391559
0.0197291187942028
0.019410204142332
0.0190775338560342
0.0187308024615049
0.0183445364236831
0.0178658235818147
0.0172167755663394
0.0163000635802745
0.0150116859003901
0.0132650742307305
0.0110165141522884
0.0082774702459573
0.005114933475852
0.0016428027302026
-0.001996474340558
-0.0056511387228965
-0.0091726267710328
-0.0124251386150717
-0.015299716964364
-0.0177333168685436
-0.0197175666689872
-0.0212861876934766
-0.0224925000220537
-0.0233909580856561
-0.0240256432443857
-0.0244272518903017
-0.0246193408966064
-0.024626363068819
-0.0244742408394813
-0.0241820607334375
-0.0237530320882797
-0.0231766626238822
-0.0224411562085151
-0.0215434785932302
-0.0204969681799411
-0.0193415954709053
-0.0181455630809068
-0.01699024066329
-0.0159501805901527
-0.0150791443884372
-0.0144016584381461
-0.0139084551483392
-0.0135580450296401
-0.0132865533232688
-0.013021083548665
-0.0126898055896162
-0.0122293531894683
-0.0115908253937959
-0.010740335099399
-0.009654302150011
-0.0083202999085187
-0.0067478879354894
-0.0049758297391235
-0.003067254088819
-0.0010995054617524
0.0008468441665172
0.0026992009952664
0.0044023180380463
0.0059242360293865
0.0072567760944366
0.0084101976826787
0.0094046024605631
0.0102607896551489
0.0109945489093661
0.0116179380565881
0.0121437376365065
0.0125832827761769
0.0129369115456938
0.0131896836683154
0.0133190630003809
0.0133076449856162
0.0131504470482468
0.0128512941300868
0.0124131636694073
0.0118287429213523
0.0110737420618534
0.0101088695228099
0.0088929459452629
0.0074006076902151
0.0056378589943051
0.0036522271111607
0.0015337746590375
-0.0006014201790094
-0.0026446003466844
-0.0045222090557217
-0.0062020039185881
-0.0076840808615088
-0.0089865010231733
-0.0101309204474091
-0.0111334174871444
-0.0120018441230058
-0.0127356285229325
-0.0133254155516624
-0.0137562444433569
-0.0140151511877775
-0.0140961278229951
-0.013997508212924
-0.0137160206213593
-0.0132484314963221
-0.0126035781577229
-0.0118115451186895
-0.0109194358810782
-0.0099782450124621
-0.0090300859883427
-0.0081016039475798
-0.0072047570720314
-0.0063416520133614
-0.0055079832673072
-0.0046938918530941
-0.0038880435749888
-0.0030854176729917
-0.0022894884459674
-0.0015043620951473
-0.0007243794389069
6.443168967962265e-05
0.0008679865859448
0.0016712816432118
0.0024435990490019
0.0031544207595288
0.0037846690975129
0.0043273805640637
0.0047841919586062
0.0051625529304146
0.0054715857841074
0.0057197301648557
0.0059170396998524
0.0060747298412024
0.0062020244076848
0.0063101281411945
0.0064184605143964
0.0065468507818877
0.0066978018730878
0.0068512693978846
0.0069768633693456
0.0070486706681549
0.007052460219711
0.0069847530685365
0.0068485355004668
0.0066501419059932
0.0063953795470297
0.0060807922855019
0.0056844539940357
0.0051671615801751
0.0044863708317279
0.0036151623353362
0.002558943349868
0.0013600094243884
8.258596062660217e-05
-0.0012092473916709
-0.0024618457537144
-0.0036298569757491
-0.004674082621932
-0.0055649569258093
-0.0062866345979273
-0.006836830638349
-0.0072222515009343
-0.0074526574462652
-0.0075367651879787
-0.0074822744354605
-0.0072995284572243
-0.0070008528418838
-0.0065930318087339
-0.0060767880640923
-0.0054600574076175
-0.0047702179290354
-0.0040515419095754
-0.0033517819829285
-0.0027087926864624
-0.0021432230714708
-0.0016587239224463
-0.0012471753871068
-0.0008932653581723
-0.0005756606115028
-0.0002677970333024
5.78017788939178e-05
0.0004226583696436
0.0008396061602979
0.001317711547017
0.001863015233539
0.0024653247091919
0.0030871080234646
0.0036706137470901
0.0041556470096111
0.00449536787346
0.0046648625284433
0.0046625165268778
0.0045079048722982
0.0042379274964332
0.0039004383143037
0.0035466116387397
0.0032243016175925
0.0029730480164289
0.0028221937827765
0.0027925265021622
0.0028935628943145
0.0031143762171268
0.0034215003252029
0.0037686224095523
0.0041093546897172
0.004408286884427
0.0046469769440591
0.0048213098198175
0.0049325511790812
0.0049776202067732
0.0049429484643042
0.0048040337860584
0.0045302347280085
0.0040950705297291
0.0034909909591078
0.002740204334259
0.0018908160272985
0.0009989051613956
0.0001125652343034
-0.0007321304874494
-0.001509862137027
-0.0022048710379749
-0.0028105559758841
-0.0033295371104031
-0.0037705642171204
-0.004142009653151
-0.0044462098740041
-0.0046775783412158
-0.0048254886642098
-0.0048802271485328
-0.0048363683745265
-0.0046916082501411
-0.0044491551816463
-0.0041267620399594
-0.0037608144339174
-0.0033973713871091
-0.0030753035098314
-0.0028121455106884
-0.0026011718437075
-0.0024192170239984
-0.0022373688407242
-0.0020277951844036
-0.0017661196179687
-0.0014334768056869
-0.0010196422226727
-0.0005242428742349
4.727393388748169e-05
0.0006927754729986
0.001415723003447
0.0022109737619757
0.0030507743358612
0.0038893693126738
0.0046779727563261
0.0053761433809995
0.0059581995010375
0.006416336633265
0.0067592747509479
0.0070067197084426
0.0071830162778496
0.0073132719844579
0.0074218367226421
0.0075310566462576
0.0076619498431682
0.0078367264941334
0.0080720400437712
0.0083619868382811
0.0086723370477557
0.0089545305818319
0.0091621438041329
0.0092575568705797
0.0092142568901181
0.00902218837291
0.0086936578154563
0.0082614747807383
0.0077678067609667
0.0072523276321589
0.006745702587068
0.0062655741348862
0.0058136261068284
0.0053778616711497
0.0049349069595336
0.0044448114931583
0.0038527443539351
0.0031077682506293
0.0021806354634463
0.0010687918402254
-0.0002027328591793
-0.0015813405625522
-0.0029941918328404
-0.0043619996868073
-0.0056110401637852
-0.0066806366667151
-0.0075293974950909
-0.0081386305391788
-0.0085057448595762
-0.0086322277784347
-0.0085249859839677
-0.0082124229520559
-0.0077520697377622
-0.0072185429744422
-0.0066835721954703
-0.0062017757445573
-0.0058056656271219
-0.0055058766156435
-0.0052941078320145
-0.0051480173133313
-0.0050368877127766
-0.0049278349615633
-0.004791279323399
-0.004605543334037
-0.0043587940745055
-0.0040436391718685
-0.0036536867264658
-0.0031927898526191
-0.0026835857424885
-0.0021626520901918
-0.0016678518150001
-0.0012267230777069
-0.0008518351241946
-0.0005426602438092
-0.0002895924262702
-7.80210830271244e-05
0.0001082196831703
0.0002833877224475
0.0004572081379592
0.0006350462790578
0.0008202313911169
0.0010174629278481
0.0012315697968006
0.0014575105160474
0.0016746178735047
0.0018552294932305
0.0019759961869567
0.0020224063191562
0.0019903560169041
0.0018855372909456
0.0017193735111504
0.0015048044733703
0.0012541012838482
0.0009787543676793
0.0006924169138073
0.0004150196909904
0.0001745210029184
5.563721060752869e-06
-6.035366095602512e-05
-1.531047746539116e-05
0.0001098066568374
0.0002482493873685
0.0003125381190329
0.000212762504816
-0.0001247026957571
-0.0007409511599689
-0.0016368159558624
-0.002773365471512
-0.004075018223375
-0.0054407799616456
-0.0067677795886993
-0.0079718800261616
-0.0089917257428169
-0.0097839133813977
-0.0103250630199909
-0.0106205455958843
-0.010704350657761
-0.0106235994026064
-0.010419325903058
-0.0101173557341098
-0.0097303418442606
-0.0092641236260533
-0.0087244901806116
-0.0081215212121605
-0.0074680871330201
-0.0067758113145828
-0.006054782308638
-0.0053155114874243
-0.0045668105594813
-0.0038081132806837
-0.0030274644959717
-0.0022142629604786
-0.0013726036995649
-0.0005208263173699
0.0003173728473484
0.0011217868886888
0.001880403375253
0.0025889340322464
0.0032473704777657
0.003856988158077
0.0044196778908371
0.0049378192052245
0.0054132700897753
0.0058469977229833
0.0062422109767794
0.0066088265739381
0.0069599286653101
0.0072990939952433
0.0076129450462758
0.0078789256513118
0.0080790715292096
0.0082059074193239
0.0082616042345762
0.0082591362297534
0.0082233753055334
0.0081848530098795
0.0081689963117241
0.008189951069653
0.0082512367516756
0.008348417468369
0.0084736328572034
0.0086226025596261
0.0087936241179704
0.0089752133935689
0.0091388225555419
0.0092459376901388
0.009261006489396
0.0091616585850715
0.0089428620412945
0.0086132287979125
0.0081841694191098
0.0076563307084143
0.007010999135673
0.0062134638428688
0.005227755755186
0.0040336390957236
0.0026388021651655
0.0010851086117327
-0.0005564764142036
-0.0022054559085518
-0.0037936614826321
-0.005276293028146
-0.006631214171648
-0.0078512839972972
-0.0089359050616621
-0.0098865609616041
-0.010704468935728
-0.0113860331475734
-0.0119200386106967
-0.0122928731143474
-0.0124972788617014
-0.0125364186242222
-0.0124206701293587
-0.0121603645384311
-0.0117654576897621
-0.0112563893198966
-0.0106708435341715
-0.0100552877411246
-0.0094499364495277
-0.0088793933391571
-0.0083517283201217
-0.007861316204071
-0.0073910988867282
-0.0069152247160673
-0.0064059342257678
-0.0058426219038665
-0.0052161156199872
-0.0045279231853783
-0.0037856865674257
-0.0029946551658213
-0.0021566590294241
-0.0012819678522646
-0.0003966586664319
0.0004644463770091
0.0012691235169768
0.0019957139156758
0.0026389672420918
0.0032117362134158
0.0037375767715275
0.0042387372814118
0.0047303307801485
0.0052224155515432
0.0057215858250856
0.0062277116812765
0.0067341518588364
0.0072375149466097
0.0077424691990017
0.0082501014694571
0.0087471874430775
0.0092107150703668
0.0096167093142867
0.0099447621032595
0.0101814288645982
0.0103230020031332
0.0103769917041063
0.0103636914864182
0.0103133367374539
0.0102544324472546
0.0102013777941465
0.0101487413048744
0.0100689688697457
0.0099118333309888
0.0096060391515493
0.0090648438781499
0.0082013979554176
0.0069521246477961
0.0052982429042458
0.003277744166553
0.0009830058552324
-0.0014565661549568
-0.0038994634523987
-0.0062159053049981
-0.0083065629005432
-0.0101126544177532
-0.0116149568930268
-0.0128239439800381
-0.0137637965381145
-0.0144551694393157
-0.0149102332070469
-0.0151441916823387
-0.0151854660362005
-0.0150731522589921
-0.0148478625342249
-0.0145431421697139
-0.0141814975067973
-0.0137744508683681
-0.0133233275264501
-0.0128201739862561
-0.0122496634721755
-0.0115931080654263
-0.0108342925086617
-0.0099636744707822
-0.0089762900024652
-0.0078645991161465
-0.0066200103610754
-0.0052473116666078
-0.0037745609879493
-0.0022489558905363
-0.0007251482456922
0.0007474990561604
0.0021339477971196
0.0034150201827287
0.0045833894982934
0.0056402739137411
0.0065946308895945
0.0074627455323934
0.0082681160420179
0.0090402932837605
0.0098111787810921
0.0106112686917185
0.0114628244191408
0.0123672913759946
0.0132996048778295
0.0142174763604998
0.0150754358619451
0.0158347152173519
0.016469283029437
0.016968760639429
0.0173378493636846
0.0175925735384225
0.0177539810538291
0.0178421046584844
0.0178735852241516
0.0178618747740983
0.0178191103041172
0.0177619010210037
0.0177122205495834
0.0176834352314472
0.0176628157496452
0.0176030751317739
0.0174221843481063
0.0170116517692804
0.0162535812705755
0.0150422025471925
0.0133066670969128
0.0110310176387429
0.0082635954022407
0.0051121194846928
0.0017270640237256
-0.0017231772653758
-0.0050772097893059
-0.0081964964047074
-0.0109782358631491
-0.0133710317313671
-0.0153802186250686
-0.0170532520860433
-0.018452825024724
-0.0196310468018054
-0.0206155441701412
-0.0214094165712595
-0.0219990573823452
-0.0223651081323623
-0.0224915891885757
-0.0223708730190992
-0.0220080390572547
-0.0214233379811048
-0.0206457413733005
-0.0196982733905315
-0.0185907762497663
-0.0173314325511455
-0.0159424152225255
-0.0144609212875366
-0.0129283936694264
-0.011380260810256
-0.0098417876288294
-0.0083288541063666
-0.006850148551166
-0.0054071946069598
-0.0039937701076269
-0.0025992924347519
-0.0012150537222623
0.0001613339409232
0.0015278216451406
0.0028858389705419
0.0042423070408403
0.0055992603302001
0.0069440784864127
0.0082523692399263
0.0094980141147971
0.0106593966484069
0.0117205055430531
0.0126715917140245
0.0135097298771142
0.0142378527671098
0.0148643320426344
0.0154045354574918
0.0158798545598983
0.0163102485239505
0.0167082622647285
0.0170824639499187
0.0174396596848964
0.0177775863558053
0.0180799551308155
0.0183197148144245
0.0184656754136085
0.0184925403445959
0.0183877404779195
0.0181461665779352
0.0177594404667615
0.0172068495303392
0.0164460241794586
0.0154090598225593
0.0140134301036596
0.0121839791536331
0.0098783504217863
0.0071109551936388
0.0039602699689567
0.0005488572642207
-0.0029863365925848
-0.0065129869617521
-0.0099131781607866
-0.0130902174860239
-0.0159730426967144
-0.0185181442648172
-0.0207067281007766
-0.0225357897579669
-0.0240073222666978
-0.0251202285289764
-0.0258682556450366
-0.0262459237128496
-0.026256114244461
-0.0259130671620368
-0.0252455063164234
-0.0243017822504043
-0.023148650303483
-0.0218591038137674
-0.0204972941428422
-0.0191103406250476
-0.0177257061004638
-0.0163503251969814
-0.0149732716381549
-0.0135715892538428
-0.0121177406981587
-0.0105892466381192
-0.0089769475162029
-0.0072868135757744
-0.0055342018604278
-0.0037336503155529
-0.0018968065269291
-4.453584551811218e-05
0.0017851912416517
0.0035466514527797
0.0052017890848219
0.0067282356321811
0.0081184394657611
0.0093757603317499
0.0105112101882696
0.0115404743701219
0.0124810375273227
0.0133504252880811
0.0141659937798976
0.0149424728006124
0.0156871490180492
0.0164027400314807
0.0170929171144962
0.0177542027086019
0.0183651596307754
0.0188903287053108
0.0192929618060588
0.0195461641997098
0.0196383204311132
0.0195722691714763
0.019362173974514
0.0190323572605848
0.0186181832104921
0.0181632488965988
0.0177083536982536
0.0172745194286108
0.0168474894016981
0.0163726676255464
0.0157582573592662
0.0148802669718861
0.0135988788679242
0.0117928832769393
0.0093978084623813
0.0064287045970559
0.0029787560924887
-0.0008010752499103
-0.0047281165607273
-0.0086130667477846
-0.0122840721160173
-0.015606477856636
-0.0184952449053525
-0.0209167748689651
-0.0228734090924263
-0.0243775080889463
-0.0254396982491016
-0.0260793287307024
-0.0263350903987884
-0.0262614618986845
-0.0259191542863845
-0.0253665596246719
-0.0246517714112997
-0.0238066148012876
-0.0228468514978885
-0.0217781718820333
-0.0206016339361667
-0.0193155799061059
-0.0179174449294805
-0.0164074599742889
-0.014790297485888
-0.0130722308531403
-0.0112617332488298
-0.0093772718682885
-0.0074510304257273
-0.0055247754789888
-0.0036446545273065
-0.0018542892066761
-0.0001857243478298
0.0013466116506606
0.0027467613108456
0.0040334924124181
0.0052323816344141
0.0063677723519504
0.0074613448232412
0.0085350731387734
0.009611134417355
0.0107074081897735
0.0118290493264794
0.0129600428044795
0.0140637252479791
0.0150933973491191
0.0160048231482505
0.0167654789984226
0.0173599366098642
0.0177903063595294
0.0180719513446092
0.018227357417345
0.0182808320969343
0.0182561744004488
0.0181773249059915
0.0180661380290985
0.0179375987499952
0.01780217140913
0.0176691878587007
0.0175395291298627
0.0173981301486492
0.0172146372497081
0.0169428195804357
0.0165156852453947
0.015844065696001
0.0148251643404364
0.0133616831153631
0.0113869728520512
0.0088880537077784
0.0059172688052058
0.002586992457509
-0.0009495308622717
-0.0045207003131508
-0.0079557076096534
-0.0111058577895164
-0.0138702243566513
-0.0162103809416294
-0.0181414689868688
-0.0197058245539665
-0.0209467075765132
-0.0218957420438528
-0.022572373971343
-0.0229875594377517
-0.0231487341225147
-0.0230648219585418
-0.0227499566972255
-0.0222245790064334
-0.0215145908296108
-0.0206475891172885
-0.0196439288556575
-0.018514160066843
-0.0172710344195365
-0.0159391164779663
-0.0145496483892202
-0.0131297521293163
-0.0116977635771036
-0.0102663040161132
-0.0088445898145437
-0.0074359900318086
-0.0060373609885573
-0.0046430109068751
-0.0032492894679307
-0.0018570844549685
-0.0004709392087534
0.0009061123710125
0.0022770538926124
0.0036456598900258
0.005003991536796
0.0063267247751355
0.0075777852907776
0.0087223285809159
0.0097352843731641
0.01060361135751
0.0113265309482812
0.0119156073778867
0.0123912338167428
0.0127772809937596
0.0130985975265502
0.0133781572803854
0.0136320069432258
0.0138693554326891
0.0140985297039151
0.0143260052427649
0.0145454742014408
0.0147332306951284
0.0148577857762575
0.0148926442489027
0.014822456985712
0.0146438870579004
0.0143638839945197
0.013991329818964
0.0135226277634501
0.0129309203475713
0.0121647100895643
0.0111558958888053
0.0098368572071194
0.0081647960469126
0.0061421496793627
0.0038171345368027
0.0012681102380156
-0.0014113411307334
-0.0041220290586352
-0.0067672403529286
-0.0092614870518445
-0.011538965627551
-0.0135586084797978
-0.0153029477223753
-0.0167698711156845
-0.0179621614515781
-0.0188819579780101
-0.0195309165865182
-0.0199126172810792
-0.0200334079563617
-0.0198997426778078
-0.0195197351276874
-0.0189140141010284
-0.018122348934412
-0.0171972159296274
-0.0161931701004505
-0.0151577591896057
-0.0141227561980485
-0.013098806142807
-0.0120775364339351
-0.0110392197966575
-0.0099623370915651
-0.0088315801694989
-0.0076422626152634
-0.0064016534015536
-0.0051245633512735
-0.003823741339147
-0.0025083515793085
-0.0011958028189837
8.162000449374318e-05
0.0012871645158156
0.0023933942429721
0.0033878360409289
0.0042738555930554
0.0050687319599092
0.0057974401861429
0.0064848181791603
0.0071507385000586
0.0078090205788612
0.008466781117022
0.0091231735423207
0.0097724115476012
0.0104116974398493
0.0110412305220961
0.0116522749885916
0.0122212106361985
0.0127180507406592
0.0131164528429508
0.0133965443819761
0.0135445091873407
0.0135505152866244
0.0134014105424284
0.0130707956850528
0.0125156734138727
0.0116853415966033
0.0105396267026662
0.0090672159567475
0.0072967107407748
0.0052987486124038
0.0031755689997226
0.0010367308277636
-0.001026019686833
-0.0029503691475838
-0.0047024502418935
-0.0062707383185625
-0.0076568191871047
-0.0088648200035095
-0.009894959628582
-0.0107424836605787
-0.0113990018144249
-0.0118554458022117
-0.0121066933497786
-0.0121557544916868
-0.0120130758732557
-0.0116899730637669
-0.011196844279766
-0.0105514600872993
-0.0097837457433342
-0.0089308116585016
-0.0080303084105253
-0.0071143950335681
-0.0062045822851359
-0.00531133916229
-0.0044369576498866
-0.0035777459852397
-0.0027270482387393
-0.0018790438771247
-0.0010300672147423
-0.0001789468806236
0.000673420028761
0.0015295860357582
0.0023994734510779
0.003291750093922
0.0042015654034912
0.0051089166663587
0.0059853196144104
0.0068007372319698
0.0075288033112883
0.0081518478691577
0.0086638759821653
0.0090687051415443
0.0093768704682588
0.0096051888540387
0.009776753373444
0.0099172471091151
0.0100504290312528
0.0101980827748775
0.0103765185922384
0.0105854114517569
0.0108037870377302
0.0109989242628216
0.0111371651291847
0.0111896907910704
0.0111344018951058
0.0109543027356266
0.0106305908411741
0.0101337414234876
0.0094208633527159
0.0084449788555502
0.0071736355312168
0.0056071397848427
0.0037883084733039
0.0018005433958023
-0.0002492126077413
-0.0022575464099645
-0.0041439775377511
-0.0058565773069858
-0.0073703657835721
-0.0086796497926115
-0.009787168353796
-0.0106964465230703
-0.0114081539213657
-0.0119202462956309
-0.012231983244419
-0.0123471124097704
-0.0122743733227252
-0.0120295351371169
-0.011636110022664
-0.0111193303018808
-0.0105015635490417
-0.0098059587180614
-0.0090595334768295
-0.008289597928524
-0.0075183953158557
-0.0067605809308588
-0.0060230852104723
-0.0053046727553009
-0.0045961318537592
-0.0038835871964693
-0.0031522177159786
-0.0023894803598523
-0.0015906170010566
-0.0007621827535331
8.361239451915026e-05
0.0009384867735207
0.0017966522136703
0.0026432024314999
0.0034500639885663
0.0041842409409582
0.0048194215632975
0.0053438562899827
0.0057602003216743
0.0060814749449491
0.0063286977820098
0.0065269162878394
0.0067001357674598
0.0068695666268467
0.0070521868765354
0.0072567863389849
0.0074833207763731
0.0077286446467041
0.0079891663044691
0.0082556633278727
0.0085100373253226
0.0087276939302682
0.0088790683075785
0.0089300097897648
0.0088463351130485
0.0086022112518548
0.0081876348704099
0.0076127969659864
0.0069084889255464
0.0061213416047394
0.0053020622581243
0.0044875228777527
0.0036884443834424
0.0028918404132127
0.002066443208605
0.0011645811609923
0.0001339176669716
-0.0010613701306283
-0.0024256033357232
-0.0039276210591197
-0.0055066500790417
-0.0070854327641427
-0.0085829515010118
-0.0099250469356775
-0.0110558904707431
-0.0119449086487293
-0.0125835109502077
-0.0129778552800416
-0.0131424581632018
-0.0130909476429224
-0.0128319496288895
-0.0123800784349441
-0.0117682693526148
-0.0110458694398403
-0.0102670462802052
-0.0094792759045958
-0.0087154870852828
-0.0079917926341295
-0.0073114428669214
-0.0066695208661258
-0.0060537438839674
-0.0054443888366222
-0.004817608743906
-0.0041514788754284
-0.0034286098089069
-0.0026334086433053
-0.0017543198773637
-0.000795712810941
0.000214937957935
0.0012337337248027
0.0022110361605882
0.003099845489487
0.0038649225607514
0.0044903783127665
0.0049814376980066
0.0053601209074258
0.0056575145572423
0.0059075001627206
0.0061439592391252
0.0063991006463766
0.0067002288997173
0.0070658568292856
0.0075012445449829
0.007991848513484
0.0085017886012792
0.0089835580438375
0.0093903327360749
0.0096828462556004
0.0098339784890413
0.0098324520513415
0.0096847517415881
0.0094163389876484
0.0090676732361316
0.0086835278198122
0.0083037801086902
0.0079595260322093
0.007673499174416
0.0074634831398725
0.0073396596126258
0.0072932243347167
0.0072926441207528
0.0072957519441843
0.0072631086222827
0.007160275708884
0.0069518419913947
0.0065945256501436
0.006035269703716
0.0052187130786478
0.0041029229760169
0.002675948664546
0.0009664013050496
-0.0009559812024235
-0.0029897205531597
-0.0050155241042375
-0.0069163492880761
-0.008604122325778
-0.0100353462621569
-0.0112054413184523
-0.0121353417634963
-0.0128598622977733
-0.0134149082005023
-0.0138270016759634
-0.0141113214194774
-0.0142734553664922
-0.0143101941794157
-0.0142126251012086
-0.0139725673943758
-0.013588530011475
-0.0130655979737639
-0.0124094486236572
-0.0116274179890751
-0.010742025449872
-0.0097985509783029
-0.0088534615933895
-0.0079542994499206
-0.0071266810409724
-0.0063750217668712
-0.00568956322968
-0.0050500761717557
-0.0044308556243777
-0.0038092320319265
-0.0031686662696301
-0.0024958925787359
-0.0017801290377974
-0.0010158114600926
-0.000202637980692
0.0006559117464348
0.0015478470595553
0.002447695704177
0.0033207051455974
0.0041312603279948
0.0048495563678443
0.0054569020867347
0.0059485165402293
0.0063333404250442
0.0066312830895185
0.0068664611317217
0.0070604421198368
0.0072310231626033
0.0073924046009778
0.0075549432076513
0.0077295419760048
0.007927531376481
0.008148219436407
0.0083707077428698
0.0085607850924134
0.0086842300370335
0.0087180407717823
0.0086559224873781
0.0085071055218577
0.008289529941976
0.0080205183476209
0.0077083557844161
0.007344352081418
0.0068970150314271
0.0063156504184007
0.0055477786809206
0.0045625907368958
0.0033621697220951
0.0019733209628611
0.0004363425541669
-0.0011973259970545
-0.0028663307894021
-0.0045042634010314
-0.0060463296249508
-0.007438376545906
-0.0086436299607157
-0.009641564451158
-0.0104223880916833
-0.0109832929447293
-0.011327251791954
-0.011461729183793
-0.0113964909687638
-0.0111417965963482
-0.010711845010519
-0.0101342732086777
-0.009453129954636
-0.008718978613615
-0.0079759191721677
-0.0072537879459559
-0.0065665319561958
-0.0059145935811102
-0.0052896859124302
-0.0046798433177173
-0.0040697460062801
-0.0034389446955174
-0.0027666792739182
-0.0020392457954585
-0.0012502563185989
-0.0003973143175244
0.0005154460668563
0.0014701134059578
0.0024325060658156
0.0033573629334568
0.0041981991380453
0.0049198581837117
0.0055083539336919
0.0059708235785365
0.0063280379399657
0.0066083148121833
0.0068436213769018
0.0070647387765347
0.0072962064296007
0.007551223039627
0.0078320745378732
0.0081395218148827
0.0084749720990657
0.008828598074615
0.0091739231720566
0.0094769485294818
0.0097064767032861
0.009840328246355
0.0098690250888466
0.0097949774935841
0.0096284076571464
0.0093844812363386
0.0090824346989393
0.0087447613477706
0.0083965249359607
0.0080629345029592
0.0077623897232115
0.0074978354386985
0.0072457497008144
0.0069461716338992
0.006508745253086
0.0058347815647721
0.0048425472341477
0.0034908312372863
0.0017947549931704
-0.0001749568618834
-0.0023078508675098
-0.0044756811112165
-0.0065551954321563
-0.0084487590938806
-0.0100952889770269
-0.0114670591428875
-0.0125572364777326
-0.0133678698912262
-0.0139080006629228
-0.0142008075490593
-0.0142869008705019
-0.0142173366621136
-0.0140418000519275
-0.0137993125244975
-0.0135151268914341
-0.0132014118134975
-0.0128583572804927
-0.0124772489070892
-0.0120439501479268
-0.0115399556234478
-0.0109467152506113
-0.010253807529807
-0.0094584785401821
-0.0085558900609612
-0.0075414725579321
-0.0064298366196453
-0.0052633574232459
-0.00409712549299
-0.0029786834493279
-0.0019398909062147
-0.0009969752281904
-0.0001513757742941
0.0006068558432161
0.0012943865731358
0.0019330573268234
0.0025492957793176
0.0031702241394668
0.0038178323302417
0.0045068119652569
0.0052479561418294
0.0060477727092802
0.0068966560065746
0.0077590169385075
0.008581206202507
0.0093119088560342
0.0099180545657873
0.0103870267048478
0.0107206599786877
0.0109311528503894
0.0110412649810314
0.011083542369306
0.0110937245190143
0.0111011639237403
0.0111237745732069
0.0111700575798749
0.0112453754991292
0.0113541539758443
0.011492671445012
0.0116440067067742
0.0117837190628051
0.011886179447174
0.0119227524846792
0.0118542313575744
0.0116244675591588
0.0111635206267237
0.0104022566229105
0.0092893354594707
0.0078038009814918
0.00596425216645
0.0038327975198626
0.0015123335178941
-0.0008629957446828
-0.0031519336625933
-0.0052415458485484
-0.0070698242634534
-0.0086241848766803
-0.0099276285618543
-0.0110226683318614
-0.011955295689404
-0.0127596724778413
-0.0134463589638471
-0.0140011189505457
-0.014396266080439
-0.0146070029586553
-0.014624111354351
-0.0144579214975237
-0.0141315730288624
-0.0136673869565129
-0.0130793368443846
-0.0123795196413993
-0.0115883704274892
-0.0107358610257506
-0.0098538724705576
-0.0089674862101674
-0.0080895256251096
-0.0072194822132587
-0.0063475640490651
-0.0054622050374746
-0.0045569324865937
-0.0036317354533821
-0.0026908577419817
-0.0017434773035347
-0.0008029136806726
0.000121674966067
0.0010289687197655
0.0019157498609274
0.00277014169842
0.0035776305012404
0.0043280990794301
0.0050174654461443
0.0056465580128133
0.0062183504924178
0.0067371390759944
0.0072124423459172
0.0076604457572102
0.0080970330163836
0.0085302190855145
0.0089588854461908
0.0093759279698133
0.0097745135426521
0.0101502388715744
0.0104930382221937
0.0107815070077776
0.0109906904399394
0.0111053511500358
0.0111268293112516
0.0110703269019722
0.010957583785057
0.0108095360919833
0.0106381829828023
0.0104371914640069
0.010173444636166
0.0097833098843693
0.0091822845861315
0.0082923751324415
0.007073092740029
0.0055326120927929
0.0037147533148527
0.0016816644929349
-0.0004940186627209
-0.0027315125335007
-0.0049462495371699
-0.0070586586371064
-0.0090029258280992
-0.0107325874269008
-0.0122221708297729
-0.0134620023891329
-0.0144495861604809
-0.015184455551207
-0.0156681239604949
-0.0159056484699249
-0.0159040875732898
-0.0156744439154863
-0.015242563560605
-0.0146551374346017
-0.0139717319980263
-0.0132508799433708
-0.0125378910452127
-0.0118578486144542
-0.0112149827182292
-0.0105957332998514
-0.0099733276292681
-0.0093144755810499
-0.0085866665467619
-0.007763588335365
-0.0068302014842629
-0.0057849679142236
-0.0046343826688826
-0.0033896318636834
-0.0020732269622385
-0.0007235752418637
0.0006098342128098
0.001876481808722
0.0030373681802302
0.0040733031928539
0.0049829399213194
0.005776141770184
0.0064693400636315
0.0070815654471516
0.0076297372579574
0.0081271259114146
0.0085859280079603
0.0090202316641807
0.0094490284100174
0.0098950061947107
0.0103736110031604
0.010881358757615
0.011395463719964
0.0118838092312216
0.0123162195086479
0.0126711102202534
0.0129373623058199
0.0131136225536465
0.0132082216441631
0.0132392160594463
0.0132301477715373
0.0132007729262113
0.01315757073462
0.0130888726562261
0.0129634523764252
0.0127261606976389
0.0122927175834774
0.0115575557574629
0.0104192309081554
0.0088125858455896
0.0067338477820158
0.0042476146481931
0.0014728321693837
-0.0014445392880588
-0.0043591493740677
-0.007144097238779
-0.0096996501088142
-0.0119593841955065
-0.0138932624831795
-0.0154993506148457
-0.0167827568948268
-0.0177415255457162
-0.018376363441348
-0.0187064558267593
-0.0187690630555152
-0.0186082702130079
-0.0182659141719341
-0.0177782215178012
-0.0171741265803575
-0.0164714641869068
-0.0156755298376083
-0.0147847663611173
-0.0137986429035663
-0.0127199040725827
-0.0115525051951408
-0.0103003550320863
-0.0089663043618202
-0.0075546437874436
-0.006080187857151
-0.0045729684643447
-0.003069547470659
-0.0016012424603104
-0.0001909704878926
0.0011451859027147
0.0023988080210983
0.0035725240595638
0.004680598154664
0.0057429000735282
0.0067778448574244
0.0077996999025344
0.0088173830881714
0.0098342411220073
0.0108524141833186
0.0118746738880872
0.0128961708396673
0.0139003545045852
0.0148718897253274
0.0158167015761137
0.0167769938707351
0.017835209146142
0.0191023368388414
0.0206947792321443
0.0227107387036085
0.0252098180353641
0.0281917601823806
0.0315760374069213
0.035194706171751
0.0388090498745441
0.0421456135809421
0.0449336990714073
0.0469327047467231
0.047955185174942
0.0478873401880264
0.0466971211135387
0.0444256961345672
0.0411684587597847
0.0370551161468029
0.0322353094816207
0.0268737878650426
0.0211534891277551
0.0152758359909057
0.0094477050006389
0.0038563106209039
-0.0013508237898349
-0.0060694552958011
-0.0102387070655822
-0.0138480030000209
-0.0169374793767929
-0.0195801258087158
-0.0218565035611391
-0.0238349810242652
-0.0255576949566602
-0.0270327348262071
-0.0282369628548622
-0.0291303694248199
-0.0296760089695453
-0.0298576559871435
-0.0296933874487876
-0.0292441863566637
-0.0286096706986427
-0.0279096104204654
-0.027267437428236
-0.0268059037625789
-0.0266443584114313
-0.0268865749239921
-0.0275979824364185
-0.0287801828235387
-0.0303568392992019
-0.0321804694831371
-0.0340590439736843
-0.035791166126728
-0.0371960029006004
-0.0381325595080852
-0.0385103970766067
-0.0382905304431915
-0.0374741554260253
-0.0360875986516475
-0.0341765992343425
-0.0318106077611446
-0.0290848165750503
-0.0261112265288829
-0.0230016335844993
-0.0198518149554729
-0.0167338848114013
-0.0136966034770011
-0.0107707772403955
-0.00797682069242
-0.0053308801725506
-0.0028486223891377
-0.0005476805381476
0.0015512993559241
0.0034281485714018
0.0050728688947856
0.0064904605969786
0.0076927151530981
0.0086918286979198
0.0095066968351602
0.0101705025881528
0.0107292076572775
0.0112317809835076
0.0117156179621815
0.0121914288029074
0.0126347094774246
0.0129891987890005
0.0131822619587183
0.0131476195529103
0.0128453709185123
0.0122735677286982
0.0114734349772334
0.010520770214498
0.0094997128471732
0.0084802191704511
0.007513110525906
0.0066310963593423
0.0058488887734711
0.0051681669428944
0.0045883110724389
0.0041158613748848
0.0037664729170501
0.003559642471373
0.0035124595742672
0.0036361548118293
0.003932733554393
0.0043951049447059
0.0050157718360424
0.0057897455990314
0.0067036775872111
0.0077311587519943
0.0088421115651726
0.0100135030224919
0.0112348785623908
0.0125061608850955
0.0138257863000035
0.0151739818975329
0.0165015030652284
0.017732810229063
0.0187827255576849
0.0195769909769296
0.0200689528137445
0.020252238959074
0.0201700646430253
0.0199097171425819
0.01957618445158
0.0192640274763107
0.0190417654812335
0.0189447961747646
0.0189758390188217
0.0191119946539402
0.0193130299448966
0.0195283703505992
0.0197016596794128
0.0197727419435977
0.0196812003850936
0.0193751603364944
0.0188212171196937
0.0180120840668678
0.0169759131968021
0.0157792866230011
0.0145087577402591
0.0132424570620059
0.0120352823287248
0.0109186451882123
0.0099034029990434
0.0089789777994155
0.0081062372773885
0.0072103273123502
0.0061849914491176
0.0049119032919406
0.0032859779894351
0.0012349225580692
-0.0012690350413322
-0.0042015593498945
-0.0074865240603685
-0.0110127087682485
-0.0146617367863655
-0.0183282066136598
-0.0219229832291603
-0.0253678541630506
-0.0285903215408325
-0.0315210670232772
-0.0340970307588577
-0.036268975585699
-0.0380048230290412
-0.0392886064946651
-0.0401229299604892
-0.0405336171388626
-0.0405680350959301
-0.0402824357151985
-0.0397259481251239
-0.0389381051063537
-0.0379616916179657
-0.0368519350886344
-0.0356716588139534
-0.0344796292483806
-0.0333205163478851
-0.0322190634906291
-0.0311776306480169
-0.0301787089556455
-0.029194202274084
-0.0281968712806701
-0.0271677784621715
-0.0260991360992193
-0.0249936338514089
-0.0238579325377941
-0.0226917974650859
-0.0214851833879947
-0.0202294401824474
-0.0189292673021554
-0.0176037177443504
-0.0162798631936311
-0.0149834165349602
-0.0137292519211769
-0.0125180259346961
-0.0113385748118162
-0.0101694874465465
-0.0089782504364848
-0.0077238297089934
-0.0063683334738016
-0.0048930784687399
-0.0033035371452569
-0.0016181590035557
0.0001383433118462
0.0019249115139245
0.0036770915612578
0.0053178379312157
0.0067765293642878
0.0080035096034407
0.0089765349403023
0.0097023015841841
0.0102115115150809
0.0105425668880343
0.0107225403189659
0.010759450495243
0.0106464615091681
0.0103713367134332
0.0099310986697673
0.0093500819057226
0.0086845941841602
0.0080064069479703
0.0073845591396093
0.0068803057074546
0.0065464824438095
0.0064215548336505
0.006522374227643
0.006842928007245
0.0073601342737674
0.0080429445952177
0.0088596418499946
0.0097824484109878
0.0107913166284561
0.0118740666657686
0.0130215678364038
0.0142240710556507
0.0154699403792619
0.0167415980249643
0.0180111080408096
0.0192412734031677
0.0203931592404842
0.0214369930326938
0.0223590359091758
0.0231597945094108
0.0238481648266315
0.0244374964386224
0.0249441247433424
