bvp
0.0023101503029465
0.0016216989606618
0.0007832953706383
-8.449330925941467e-05
-0.000866474583745
-0.0014693811535835
-0.0018250551074743
-0.001886622980237
-0.0016319286078214
-0.0010723229497671
-0.0002498794347047
0.0007779877632856
0.00195187702775
0.0032172743231058
0.0045280959457159
0.0058464240282773
0.0071392431855201
0.0083765778690576
0.0095340339466929
0.0105969589203596
0.0115614468231797
0.012432430870831
0.013223486021161
0.0139601649716496
0.0146766146644949
0.0153973931446671
0.0161185301840305
0.0168061815202236
0.0174143034964799
0.0179053656756877
0.0182590652257204
0.0184720642864704
0.0185556355863809
0.0185311436653137
0.0184241477400064
0.0182595439255237
0.0180591903626918
0.0178427547216415
0.0176323056221008
0.0174576081335544
0.0173524767160415
0.0173388477414846
0.0174146257340908
0.0175592433661222
0.0177485886961221
0.0179667044430971
0.0182101000100374
0.0184848736971616
0.0188005063682794
0.0191655158996582
0.0195879824459552
0.020076785236597
0.0206377021968364
0.0212666504085063
0.0219461116939783
0.022647438570857
0.0233331564813852
0.0239540226757526
0.0244486704468727
0.0247525982558727
0.0248124226927757
0.0245972238481044
0.0240992102771997
0.0233240518718957
0.0222781877964735
0.0209582149982452
0.0193464886397123
0.0174179784953594
0.0151568474248051
0.0125727653503417
0.0097111202776432
0.0066549447365105
0.0035111047327518
0.0003835037350654
-0.0026479233056306
-0.0055337804369628
-0.0082535035908222
-0.0108087230473756
-0.0132120568305253
-0.0154756801202893
-0.0176043454557657
-0.0195926818996667
-0.0214259177446365
-0.0230849422514438
-0.0245531424880027
-0.0258204378187656
-0.0268818605691194
-0.027733638882637
-0.0283773019909858
-0.0288302414119243
-0.0291267670691013
-0.0293081048876047
-0.0294102691113948
-0.029453981667757
-0.0294423792511224
-0.0293676927685737
-0.0292182732373476
-0.0289801321923732
-0.0286365002393722
-0.0281704328954219
-0.0275695919990539
-0.0268298648297786
-0.0259540937840938
-0.0249465368688106
-0.0238150022923946
-0.0225813090801239
-0.0212817788124084
-0.0199560225009918
-0.0186384133994579
-0.0173543151468038
-0.0161170586943626
-0.0149257518351078
-0.0137651972472667
-0.0126097006723284
-0.0114300772547721
-0.0102010332047939
-0.0089065246284008
-0.0075405202805995
-0.0061016138643026
-0.0045845312997698
-0.0029799784533679
-0.0012874621897935
0.0004732483066618
0.0022641133982688
0.0040398957207798
0.0057583255693316
0.0073858168907463
0.008900586515665
0.0102937836199998
0.0115700205788016
0.0127482451498508
0.0138595812022686
0.0149403186514973
0.0160231925547122
0.0171304680407047
0.0182683877646923
0.0194173287600278
0.0205200128257274
0.0214836634695529
0.0222015287727117
0.0225832574069499
0.0225817877799272
0.0222062263637781
0.0215175915509462
0.0206120572984218
0.0195974353700876
0.0185688715428113
0.017591506242752
0.0166961438953876
0.0158858839422464
0.0151490541175007
0.0144766997545957
0.013872000388801
0.0133404163643717
0.0128767136484384
0.01246536988765
0.0120864696800708
0.0117191262543201
0.0113449739292263
0.0109506957232952
0.0105265118181705
0.010065458714962
0.0095676761120557
0.0090442169457674
0.0085152201354503
0.0080032031983137
0.0075270319357514
0.007102127186954
0.0067392336204648
0.0064341006800532
0.0061598559841513
0.0058725122362375
0.0055251279845833
0.005083218216896
0.004534663632512
0.0038897590711712
0.0031737592071294
0.002418240532279
0.0016553401947021
0.0009136497974395
0.0002151448279619
-0.0004247445613145
-0.0009936317801475
-0.0014788452535867
-0.0018727220594882
-0.0021850857883691
-0.0024478528648614
-0.0027075894176959
-0.0030133184045553
-0.0034056175500154
-0.0039111655205488
-0.0045432783663272
-0.0053053926676511
-0.0061931628733873
-0.0071960985660552
-0.0083010215312242
-0.0094931125640869
-0.0107537629082798
-0.012057289481163
-0.0133661283180117
-0.0146352369338274
-0.0158342737704515
-0.0169696919620037
-0.0180876683443784
-0.0192601233720779
-0.0205631256103515
-0.0220553409308195
-0.0237625204026699
-0.0256702657788991
-0.0277248993515968
-0.0298412777483463
-0.0319141037762165
-0.0338314846158027
-0.0354908518493175
-0.0368110686540603
-0.0377356261014938
-0.0382348969578743
-0.038313053548336
-0.0380086824297905
-0.0373842716217041
-0.0365119576454162
-0.0354591980576515
-0.0342770405113697
-0.0329954773187637
-0.0316249281167984
-0.0301585551351308
-0.0285745225846767
-0.0268412511795759
-0.0249245837330818
-0.0227927509695291
-0.020417183637619
-0.0177723299711942
-0.0148440692573785
-0.0116479294374585
-0.0082399025559425
-0.0047088814899325
-0.0011598849669098
0.0023029400035738
0.0055912937968969
0.008641205728054
0.0114135462790727
0.013891851529479
0.0160806141793727
0.0180019568651914
0.0196887403726577
0.0211752653121948
0.0224939826875925
0.0236829258501529
0.0247866101562976
0.0258393995463848
0.0268513392657041
0.0278115533292293
0.0286995805799961
0.0294933877885341
0.0301728285849094
0.0307215489447116
0.0311302226036787
0.0313995443284511
0.0315382704138755
0.0315574035048484
0.0314658321440219
0.0312694273889064
0.0309750456362962
0.030598446726799
0.0301639661192893
0.0296899229288101
0.0291773471981287
0.0286137163639068
0.0279817003756761
0.027264829725027
0.0264502018690109
0.0255265925079584
0.024477157741785
0.0232720226049423
0.0218668393790721
0.0202094353735446
0.0182545483112335
0.0159811936318874
0.0134062003344297
0.0105918711051344
0.0076381042599678
0.0046556061133742
0.0017406987026333
-0.0010345862247049
-0.0036228746175765
-0.0059970021247863
-0.0081450818106532
-0.0100680803880095
-0.011774118989706
-0.0132687846198678
-0.0145493140444159
-0.0156055549159646
-0.016426658257842
-0.0170088186860084
-0.017354791983962
-0.0174669306725263
-0.0173495132476091
-0.0170222762972116
-0.0165266823023557
-0.015917420387268
-0.015248242765665
-0.0145605159923434
-0.0138772949576377
-0.0132023273035883
-0.0125239863991737
-0.0118233514949679
-0.0110832909122109
-0.0102947000414133
-0.0094572929665446
-0.0085765607655048
-0.0076582138426601
-0.0067012854851782
-0.0056990683078765
-0.0046524466015398
-0.0035808659158647
-0.0025172920431941
-0.0014950798358768
-0.0005393391475081
0.0003365975571796
0.001131601864472
0.0018535493873059
0.002514011459425
0.0031235888600349
0.0036902900319546
0.0042199976742267
0.0047155255451798
0.0051782932132482
0.0056152599863708
0.0060373088344931
0.0064454916864633
0.0068260142579674
0.0071605993434786
0.0074364729225635
0.0076488610357046
0.0077993697486817
0.0078927101567387
0.0079354727640748
0.007938165217638
0.0079153040423989
0.0078806299716234
0.0078393649309873
0.0077792857773602
0.0076671023853123
0.0074543841183185
0.0070830965414643
0.006486402824521
0.0055961739271879
0.0043610180728137
0.0027660732157528
0.0008456832729279
-0.0013179583474993
-0.0036102579906582
-0.0059049553237855
-0.0080839516595005
-0.0100533552467823
-0.0117507828399539
-0.0131448432803154
-0.0142313465476036
-0.0150233730673789
-0.0155344642698764
-0.0157704930752515
-0.0157416798174381
-0.0154764950275421
-0.0150181828066706
-0.0144132087007164
-0.0137046184390783
-0.0129284784197807
-0.0121110640466213
-0.0112694920971989
-0.0104156741872429
-0.0095586953684687
-0.0087029663845896
-0.0078473789617419
-0.006989745888859
-0.0061289593577384
-0.0052592260763049
-0.0043692733161151
-0.0034555557649582
-0.0025340667925775
-0.001635925611481
-0.0007927184924483
-2.512335777282715e-05
0.0006586010567843
0.0012581194750964
0.0017777201719582
0.0022235638462007
0.0025983434170484
0.0028971652500331
0.0031075314618647
0.003212887328118
0.0032018488273024
0.0030791403260082
0.0028644131962209
0.0025777481496334
0.0022309906780719
0.0018341443501412
0.0014048120938241
0.0009706648997962
0.0005645039491355
0.0002163355238735
-5.080830305814743e-05
-0.000221487134695
-0.0002884268760681
-0.0002519795671105
-0.000118046067655
0.0001039374619722
0.0004018181934952
0.0007570632733404
0.0011314381845295
0.0014518308453261
0.0016150758601725
0.0015165507793426
0.0010816468857228
0.0002846224233508
-0.0008468423038721
-0.0022391825914382
-0.0037880251184105
-0.0053760204464197
-0.0068902447819709
-0.0082354396581649
-0.0093405554071068
-0.0101590836420655
-0.0106647675856947
-0.0108461994677782
-0.0107063697651028
-0.0102682104334235
-0.0095776570960879
-0.0086977435275912
-0.0076966499909758
-0.0066363215446472
-0.0055663436651229
-0.0045207105576992
-0.0035154186189174
-0.0025517754256725
-0.0016241464763879
-0.0007229037582874
0.0001694057136774
0.0010808538645505
0.0020493566989898
0.0031220391392707
0.0043479297310113
0.0057589812204241
0.0073553966358304
0.0091080125421285
0.0109685910865664
0.012877800501883
0.014771731570363
0.0165880862623453
0.018271604552865
0.0197799876332283
0.0210881326347589
0.0221873130649328
0.0230809580534696
0.0237822886556386
0.0243183374404907
0.0247357357293367
0.0250919759273529
0.0254284720867872
0.0257485024631023
0.0260186567902565
0.0261873975396156
0.0262055173516273
0.0260397922247648
0.0256778746843338
0.0251254849135875
0.024399371817708
0.0235195681452751
0.0225040838122367
0.0213693976402282
0.0201338306069374
0.0188207309693098
0.0174630302935838
0.0161008462309837
0.0147668709978461
0.013475751504302
0.0122285364195704
0.0110223451629281
0.0098533490672707
0.0087103890255093
0.0075646415352821
0.0063659935258328
0.0050520729273557
0.0035657277330756
0.0018735043704509
-2.255477011203766e-05
-0.002083271741867
-0.0042352513410151
-0.0063754292204976
-0.008388390764594
-0.0101789869368076
-0.0116966841742396
-0.0129362009465694
-0.0139255467802286
-0.0147123616188764
-0.015348320826888
-0.015873497352004
-0.0163070391863584
-0.0166455842554569
-0.0168676897883415
-0.0169438142329454
-0.0168490763753652
-0.0165729615837335
-0.0161197856068611
-0.0155011657625436
-0.0147352330386638
-0.0138588892295956
-0.0129355927929282
-0.0120471129193902
-0.0112767657265067
-0.0106923896819353
-0.0103329196572303
-0.0102019812911748
-0.010271567851305
-0.010493098758161
-0.0108077507466077
-0.0111531298607587
-0.0114671904593706
-0.0116898603737354
-0.0117643764242529
-0.0116415796801447
-0.0112919583916664
-0.0107198096811771
-0.00996277295053
-0.0090764313936233
-0.0081189014017581
-0.0071419193409383
-0.0061843618750572
-0.0052634570747613
-0.0043691536411643
-0.003470791503787
-0.0025320220738649
-0.0015229899436235
-0.000425330363214
0.0007678158581256
0.0020545301958918
0.0034309113398194
0.0048955092206597
0.0064406571909785
0.0080403797328472
0.0096505479887127
0.0112165845930576
0.0126781724393367
0.0139701943844556
0.0150253400206565
0.015780409798026
0.0161784291267395
0.0161614194512367
0.0156621318310499
0.0146028902381658
0.0129042919725179
0.010507870465517
0.007405100390315
0.0036517791450023
-0.0006394237279891
-0.0053158551454544
-0.0101998159661889
-0.015101121738553
-0.0198331251740455
-0.0242334324866533
-0.0281789768487215
-0.0315873958170414
-0.034413207322359
-0.0366445556282997
-0.0382925309240818
-0.0393760949373245
-0.0399159640073776
-0.039936251938343
-0.0394650362432003
-0.0385384708642959
-0.0372124761343002
-0.0355676934123039
-0.0336994044482708
-0.0317008346319198
-0.029647072777152
-0.0275847949087619
-0.0255300980061292
-0.023472212255001
-0.0213828776031732
-0.0192302260547876
-0.016991626471281
-0.0146609935909509
-0.0122501216828823
-0.0097833015024662
-0.0072878692299127
-0.0047937557101249
-0.0023438548669219
4.4461339712142944e-06
0.0021941335871815
0.0041841249912977
0.0059546842239797
0.0075065675191581
0.0088582355529069
0.0100401500239968
0.011085532605648
0.0120217520743608
0.0128677505999803
0.0136368423700332
0.0143391350284218
0.0149838980287313
0.0155853256583213
0.0161617845296859
0.0167221073061227
0.0172551441937685
0.0177340172231197
0.0181260611861944
0.0183979608118534
0.0185162592679262
0.0184485986828804
0.0181671604514122
0.0176525022834539
0.0168988686054945
0.0159220434725284
0.0147637724876403
0.0134870558977127
0.0121694728732109
0.010899955406785
0.0097670005634427
0.0088347718119621
0.0081272134557366
0.0076344478875398
0.0073316376656293
0.0071946382522583
0.0072089042514562
0.0073715476319193
0.0076843462884426
0.0081439325585961
0.0087380157783627
0.0094475364312529
0.0102508375421166
0.0111249880865216
0.0120397647842764
0.0129466373473405
0.0137673821300268
0.0143918544054031
0.0146993622183799
0.0146023193374276
0.0140923410654068
0.0132671687752008
0.0123266307637095
0.0115415416657924
0.0112073495984077
0.0115914903581142
0.0128841083496809
0.0151641815900802
0.0183884240686893
0.022402461618185
0.0269714631140232
0.0318248644471168
0.0366994366049766
0.0413684621453285
0.0456616766750812
0.0494817495346069
0.052810713648796
0.0556904822587966
0.0581710822880268
0.0602497458457946
0.0618395283818244
0.0627898126840591
0.0629500597715377
0.0622371025383472
0.0606676489114761
0.058356299996376
0.0555011145770549
0.0523695275187492
0.0492865443229675
0.0466188564896583
0.0447376035153865
0.0439485609531402
0.0444092974066734
0.0460663586854934
0.0486296787858009
0.0515868440270423
0.0542596504092216
0.0559065677225589
0.0558508709073066
0.0535881370306015
0.0488440990447998
0.0415914803743362
0.0320415496826171
0.0205991193652153
0.0077571496367454
-0.0060562938451766
-0.0206184536218643
-0.0359718538820743
-0.0523687563836574
-0.0701153725385665
-0.0893758907914161
-0.1100111156702041
-0.1315035670995712
-0.152980089187622
-0.1733100116252899
-0.191244825720787
-0.2055677771568298
-0.2152353227138519
-0.2195019721984863
-0.2180144488811493
-0.2108594179153442
-0.1985563933849334
-0.1819899231195449
-0.1622875183820724
-0.140668511390686
-0.1183015406131744
-0.0962049216032028
-0.07519993185997
-0.055899653583765
-0.0387119203805923
-0.0238502696156501
-0.0113585982471704
-0.0011501125991344
0.0069513702765107
0.0131814237684011
0.0178146883845329
0.0211359430104494
0.0233980752527713
0.0247904472053051
0.0254346188157796
0.0254014264792203
0.0247370768338441
0.0234881155192852
0.0217203721404075
0.0195320956408977
0.0170580334961414
0.0144570143893361
0.0118849100545048
0.0094664171338081
0.0072805611416697
0.0053709279745817
0.0037758396938443
0.0025536026805639
0.0017892550677061
0.0015971194952726
0.0021289233118295
0.003573291003704
0.006127618253231
0.0099423546344041
0.0150606120005249
0.0213799364864826
0.02864670753479
0.0364794805645942
0.0444186441600322
0.0519943982362747
0.0587904639542102
0.0644883960485458
0.0688898265361785
0.0719113051891326
0.073557935655117
0.0738987177610397
0.0730557218194007
0.0711994990706443
0.0685415565967559
0.0653226971626281
0.0617963895201683
0.0582055151462554
0.0547570958733558
0.0516035854816436
0.048835314810276
0.046482004225254
0.044517733156681
0.0428707413375377
0.041443895548582
0.040134847164154
0.0388412959873676
0.0374613776803016
0.0359037853777408
0.0341041013598442
0.0320335999131202
0.0296941846609115
0.0271095652133226
0.0243211649358272
0.0213847365230321
0.0183658841997385
0.0153360879048705
0.0123676713556051
0.0095281209796667
0.0068773394450545
0.0044653229415416
0.002323149703443
0.0004507629200816
-0.00118691008538
-0.0026513803750276
-0.0040125511586666
-0.0053294226527214
-0.0066406354308128
-0.0079655656591057
-0.0093080326914787
-0.0106604918837547
-0.0120092285796999
-0.0133373858407139
-0.0146256200969219
-0.0158521644771099
-0.0169897489249706
-0.0180010218173265
-0.018845297396183
-0.0194988138973712
-0.0199694335460662
-0.020292853936553
-0.0205169413238763
-0.0206891447305679
-0.0208564102649688
-0.0210715811699628
-0.0213958956301212
-0.0218957941979169
-0.0226341225206851
-0.023655742406845
-0.024973215535283
-0.026561290025711
-0.0283613465726375
-0.0302871204912662
-0.0322338379919528
-0.0340983755886554
-0.0357976183295249
-0.0372723154723644
-0.038483265787363
-0.0394067764282226
-0.0400288477540016
-0.0403381548821926
-0.0403218455612659
-0.0399674959480762
-0.0392696298658847
-0.0382369048893451
-0.0368955135345459
-0.0352873504161834
-0.0334629192948341
-0.0314681157469749
-0.0293379202485084
-0.0271081496030092
-0.0248268246650695
-0.0225477702915668
-0.0203168038278818
-0.0181659236550331
-0.0161156058311462
-0.0141766481101512
-0.01234882324934
-0.0106197847053408
-0.0089684017002582
-0.0073714233003556
-0.0058076428249478
-0.0042591132223606
-0.0027096597477793
-0.0011411039158701
0.0004629110917448
0.0021041268482804
0.0037633990868926
0.0054066311568021
0.0069942446425557
0.0084898322820663
0.0098680928349494
0.0111193303018808
0.0122485198080539
0.013271352276206
0.0142096662893891
0.0150862345471978
0.0159196648746728
0.0167217496782541
0.017501438036561
0.0182722341269254
0.019048610702157
0.0198296196758747
0.02058538608253
0.021256199106574
0.02176109328866
0.0220085568726062
0.0219068620353937
0.0213772375136613
0.0203705132007598
0.0188838746398687
0.0169708225876092
0.0147374998778104
0.0123263420537114
0.0098941987380385
0.007593547925353
0.0055587943643331
0.0038899909704923
0.0026356652379035
0.0017906725406646
0.0013138800859451
0.0011513922363519
0.0012516360729932
0.0015706662088632
0.0020721834152936
0.0027253609150648
0.0035012196749448
0.0043694637715816
0.0052986517548561
0.0062593910843133
0.0072274450212717
0.0081866066902875
0.0091321989893913
0.0100667001679539
0.0109853418543934
0.0118683548644185
0.0126871531829237
0.0134138083085417
0.0140281813219189
0.0145248863846063
0.0149169508367776
0.0152320824563503
0.0155059564858675
0.0157739371061325
0.0160608384758234
0.0163767412304878
0.0167195107787847
0.0170784443616867
0.0174395553767681
0.0177865792065858
0.0180929582566022
0.0183190535753965
0.0184236727654933
0.018377773463726
0.0181704387068748
0.0178080555051565
0.0173113457858562
0.0167138632386922
0.0160584263503551
0.0153883770108222
0.0147375110536813
0.0141230039298534
0.0135416518896818
0.0129679813981056
0.0123549457639455
0.0116331316530704
0.0107076745480299
0.0094694783911108
0.0078258933499455
0.0057304333895444
0.0031973980367183
0.0003022601595148
-0.0028303754515945
-0.0060474104247987
-0.0091881630942225
-0.0121009424328804
-0.0146581316366791
-0.016770277172327
-0.0183917991816997
-0.0195131339132785
-0.0201471019536256
-0.0203245300799608
-0.0201001353561878
-0.0195537693798542
-0.0187797080725431
-0.0178711060434579
-0.0169072188436985
-0.0159453507512807
-0.0150193283334374
-0.014144878834486
-0.0133258011192083
-0.0125550478696823
-0.011813779361546
-0.0110751846805214
-0.0103123560547828
-0.009504122659564
-0.0086367912590503
-0.0077074063010513
-0.0067302472889423
-0.0057370183058083
-0.004768218845129
-0.0038627162575721
-0.0030474988743662
-0.0023311600089073
-0.0017068558372557
-0.0011601117439568
-0.0006724143167957
-0.0002212429535575
0.0002173132379539
0.0006624400848522
0.0011227750219404
0.0015986887738108
0.0020941533148288
0.0026192066725343
0.0031732346396893
0.0037323511205613
0.0042562643066048
0.0047027645632624
0.0050391932018101
0.0052491133101284
0.0053329030051827
0.0053008059039711
0.0051590697839856
0.0048948409967124
0.0044688624329864
0.00382009614259
0.0028813299722969
0.0016049740370362
-1.061195507645607e-05
-0.0019138939678668
-0.0040169339627027
-0.0062163164839148
-0.008403331041336
-0.0104715498164296
-0.0123297134414315
-0.0139123350381851
-0.015180142596364
-0.0161140859127044
-0.0167084708809852
-0.0169646814465522
-0.0168889425694942
-0.0164956115186214
-0.0158113855868577
-0.0148751968517899
-0.0137321921065449
-0.0124297915026545
-0.0110222911462187
-0.0095726810395717
-0.0081437863409519
-0.0067881043069064
-0.0055399225093424
-0.0044079804793
-0.0033763549290597
-0.0024157674051821
-0.0014954768121242
-0.0005912263877689
0.0003109364770352
0.0012173647992312
0.0021311300806701
0.0030539464205503
0.0039901686832308
0.0049451822414994
0.0059108948335051
0.0068564307875931
0.0077367192134261
0.0085085108876228
0.0091425497084856
0.0096284002065658
0.0099749229848384
0.0102079734206199
0.0103626325726509
0.0104737961664795
0.0105701051652431
0.0106703797355294
0.0107833864167332
0.0109138265252113
0.0110701750963926
0.0112617947161197
0.0114848418161273
0.0117140971124172
0.0119089921936392
0.0120263807475566
0.012032083235681
0.0119056571274995
0.0116345956921577
0.0112000219523906
0.0105632301419973
0.0096655255183577
0.0084452535957098
0.0068602613173425
0.004903663881123
0.0026147614698857
8.571450598537922e-05
-0.0025496429298073
-0.0051481486298143
-0.0075863590463995
-0.0097681712359189
-0.0116231841966509
-0.0131102250888943
-0.0142205413430929
-0.0149703547358512
-0.0153861083090305
-0.0154945123940706
-0.0153237907215952
-0.0149089060723781
-0.014289878308773
-0.0135055417194962
-0.0125878825783729
-0.0115568665787577
-0.0104239098727703
-0.0092070782557129
-0.007940636947751
-0.0066681471653282
-0.0054297694005072
-0.0042542852461338
-0.0031564589589834
-0.0021383250132203
-0.0011927969753742
-0.0003084479831159
0.0005251625552773
0.0013158079236745
0.0020726453512907
0.0028088875114917
0.00353988353163
0.0042834696359932
0.0050582396797835
0.0058702435344457
0.0067012356594204
0.0075133498758077
0.0082632414996624
0.0089147593826055
0.0094459932297468
0.0098505774512887
0.0101355537772178
0.0103181926533579
0.0104238511994481
0.0104840025305747
0.0105305556207895
0.0105871725827455
0.0106661040335893
0.0107753109186887
0.0109227271750569
0.0111056035384535
0.0112987365573644
0.0114555936306715
0.0115131549537181
0.0113916406407952
0.0109971212223172
0.0102349845692515
0.0090296100825071
0.0073423529975116
0.0051852222532033
0.0026279862504452
-0.0002073430805467
-0.0031653598416596
-0.00607749260962
-0.0087772207334637
-0.0111224520951509
-0.0130247306078672
-0.0144611084833741
-0.015460655093193
-0.0160813331604003
-0.0163891967386007
-0.0164444912225008
-0.0162962414324283
-0.0159811358898878
-0.015522476285696
-0.0149319833144545
-0.0142180975526571
-0.013395357877016
-0.0124862724915146
-0.0115139633417129
-0.0104913162067532
-0.0094185769557952
-0.0082934200763702
-0.0071213110350072
-0.0059174923226237
-0.004703220911324
-0.0034999754279851
-0.0023259166628122
-0.0011963085271418
-0.0001227697357535
0.0008885073475539
0.0018358253873884
0.0027222530916333
0.0035569763276726
0.0043523600324988
0.0051210531964898
0.0058803651481866
0.0066525833681225
0.0074499091133475
0.008262425661087
0.0090625006705522
0.009815577417612
0.0104906195774674
0.0110658342018723
0.0115292314440011
0.0118793100118637
0.0121238930150866
0.0122771169990301
0.0123583059757947
0.0123890191316604
0.0123890163376927
0.0123784244060516
0.0123822959139943
0.0124250194057822
0.012514628469944
0.0126323848962783
0.0127368737012147
0.0127790793776512
0.0127196600660681
0.0125364745035767
0.0122180171310901
0.0117507325485348
0.0111065125092864
0.010234604589641
0.009065986610949
0.007531295530498
0.0055833673104643
0.0032172938808798
0.0004835478030145
-0.0025152263697236
-0.0056470585986971
-0.0087798712775111
-0.0118020568042993
-0.0146295316517353
-0.0172031037509441
-0.0194831248372793
-0.0214442331343889
-0.0230696070939302
-0.0243443921208381
-0.0252506975084543
-0.0257705077528953
-0.0258968323469162
-0.0256413780152797
-0.0250298976898193
-0.024092623963952
-0.0228671599179506
-0.0214127656072378
-0.0198122095316648
-0.0181540846824646
-0.0165117736905813
-0.0149313099682331
-0.013430643826723
-0.012006408534944
-0.0106418998911976
-0.0093132369220256
-0.0079932082444429
-0.0066546909511089
-0.0052756844088435
-0.003843511454761
-0.002353286370635
-0.0008011404424905
0.0008151289075613
0.002482256386429
0.0041633737273514
0.0058071860112249
0.0073619559407234
0.0087846666574478
0.0100469384342432
0.011139434762299
0.0120722474530339
0.0128687042742967
0.0135572869330644
0.0141674429178237
0.0147278467193245
0.0152640007436275
0.0157958604395389
0.0163385290652513
0.0169012397527694
0.0174778252840042
0.0180406961590051
0.0185494571924209
0.0189633499830961
0.0192494057118892
0.0193891804665327
0.0193826965987682
0.0192451439797878
0.0189942382276058
0.0186314657330513
0.0181275457143783
0.0174198783934116
0.0164204575121402
0.0150339761748909
0.0131879094988107
0.0108584389090538
0.0080728372558951
0.0048992177471518
0.00144043948967
-0.0021731846500188
-0.0057987100444734
-0.0092992046847939
-0.01256023067981
-0.0154952956363558
-0.0180391613394022
-0.0201432257890701
-0.0217798762023448
-0.0229453928768634
-0.0236534904688596
-0.0239232778549194
-0.0237721744924783
-0.0232243444770574
-0.0223273001611232
-0.0211544800549745
-0.0197906792163848
-0.0183163322508335
-0.0167985875159502
-0.0152861149981617
-0.0138054341077804
-0.0123611316084861
-0.0109412390738725
-0.0095246015116572
-0.0080865900963544
-0.0066025871783494
-0.0050529008731245
-0.0034285206347703
-0.0017295032739639
3.749877214431763e-05
0.0018498515710234
0.0036603822372853
0.0054047987796366
0.0070188301615417
0.0084546878933906
0.0096912924200296
0.0107353143393993
0.0116146290674805
0.0123688587918877
0.0130411135032773
0.0136715667322278
0.0142910405993461
0.0149167897179722
0.0155565934255719
0.0162177868187427
0.016905054450035
0.0176049321889877
0.0182790383696556
0.0188758447766304
0.0193468034267425
0.0196564644575119
0.0197876747697591
0.019743226468563
0.0195431038737297
0.0192164499312639
0.018786534667015
0.0182516388595104
0.0175717920064926
0.0166689492762088
0.0154452053830027
0.0138170784339308
0.011742821894586
0.0092229954898357
0.0062918532639741
0.0030189689714461
-0.0004900523927062
-0.0041042985394597
-0.0076849656179547
-0.0111025478690862
-0.0142480600625276
-0.0170359276235103
-0.0194019321352243
-0.0213010236620903
-0.0227055661380291
-0.0236061681061983
-0.0240136422216892
-0.0239543356001377
-0.0234687160700559
-0.0226212739944458
-0.0215015895664691
-0.0202081315219402
-0.0188315883278846
-0.0174449272453784
-0.0160954482853412
-0.0148010225966572
-0.0135550908744335
-0.0123354587703943
-0.011112161912024
-0.0098559446632862
-0.0085449125617742
-0.0071657048538327
-0.0057094879448413
-0.0041671521030366
-0.002535009291023
-0.0008303737267851
0.0009032201487571
0.0026073399931192
0.004223202355206
0.0057025956921279
0.0070157824084162
0.0081546828150749
0.0091297701001167
0.0099643226712942
0.0106904990971088
0.0113452840596437
0.0119628850370645
0.0125673860311508
0.0131735270842909
0.0137944370508193
0.014441542327404
0.0151114370673894
0.0157773476094007
0.016396977007389
0.0169268567115068
0.0173319019377231
0.0175901819020509
0.0176954846829175
0.0176554024219512
0.0174854286015033
0.0172038469463586
0.01682666875422
0.0163584873080253
0.01577939838171
0.0150357261300086
0.0140465572476387
0.0127225769683718
0.0109808519482612
0.0087546026334166
0.0060082804411649
0.0027570119127631
-0.0009223036468029
-0.00489844661206
-0.0090070134028792
-0.0130724515765905
-0.0169268622994422
-0.0204260200262069
-0.0234589986503124
-0.0259509943425655
-0.0278615411370992
-0.0291763097047805
-0.0298960767686367
-0.0300371833145618
-0.0296459291130304
-0.0288055222481489
-0.0276229754090309
-0.0262097492814064
-0.0246675461530685
-0.0230767391622066
-0.0214883461594581
-0.0199236199259758
-0.0183798912912607
-0.0168390590697526
-0.0152746476233005
-0.0136581836268305
-0.0119676794856786
-0.010190924629569
-0.0083204573020339
-0.0063554672524333
-0.0043161609210073
-0.0022515880409628
-0.0002284937072545
0.0016893418505787
0.0034561860375106
0.0050479616038501
0.0064589930698275
0.0076979715377092
0.0087848510593175
0.0097475778311491
0.0106169627979397
0.0114205088466405
0.0121786724776029
0.0129054170101881
0.0136133981868624
0.0143150994554162
0.0150107983499765
0.0156779550015926
0.0162777323275804
0.0167704243212938
0.017126927152276
0.0173339135944843
0.0173963084816932
0.0173367299139499
0.0171875469386577
0.0169783327728509
0.0167247932404279
0.0164168179035186
0.0160052236169576
0.0154005084186792
0.014492536894977
0.0131771080195903
0.0113732833415269
0.0090359663590788
0.0061709340661764
0.0028456060681492
-0.0008165447507053
-0.0046591060236096
-0.0085173677653074
-0.0122337192296981
-0.0156705025583505
-0.0187230110168457
-0.0213239006698131
-0.0234358683228492
-0.0250410437583923
-0.0261322688311338
-0.0267050266265869
-0.0267586633563041
-0.0263129491358995
-0.0254237297922372
-0.0241801850497722
-0.0226860269904136
-0.0210389997810125
-0.0193174593150615
-0.0175728816539049
-0.0158281177282333
-0.014082352630794
-0.0123200379312038
-0.0105195930227637
-0.0086595797911286
-0.0067237103357911
-0.0047040050849318
-0.0025988742709159
-0.0004136292263865
0.0018292739987373
0.0040838681161403
0.0062897102907299
0.0083870533853769
0.0103284437209367
0.0120862070471048
0.013655724003911
0.015052287839353
0.01630250364542
0.0174343585968017
0.0184703897684812
0.0194270554929971
0.0203166492283344
0.0211484432220459
0.0219321735203266
0.022677943110466
0.0233853440731763
0.0240345895290374
0.0245907045900821
0.0250125620514154
0.0252612177282571
0.0253108330070972
0.0251583643257617
0.0248242560774087
0.0243450608104467
0.0237626712769269
0.0231155157089233
0.0224363338202238
0.0217519253492355
0.0210811682045459
0.0204335264861583
0.0198011994361877
0.0191411450505256
0.0183627866208553
0.0173352006822824
0.0159119963645935
0.013966386206448
0.0114248525351285
0.008286097086966
0.0046215094625949
0.0005627758800983
-0.0037189056165516
-0.0080390460789203
-0.012226790189743
-0.016145272180438
-0.0196957178413867
-0.0228068642318248
-0.0254283137619495
-0.0275373831391334
-0.0291443429887294
-0.0302825719118118
-0.0309926606714725
-0.0313143134117126
-0.0312858596444129
-0.0309447962790727
-0.0303287245333194
-0.0294767897576093
-0.0284288190305233
-0.0272225607186555
-0.0258895494043827
-0.024451307952404
-0.0229184832423925
-0.0212903842329978
-0.0195582509040832
-0.0177184864878654
-0.015786251053214
-0.0137961544096469
-0.0117922769859433
-0.0098184999078512
-0.0079133985564112
-0.0061058555729687
-0.0044112363830208
-0.0028316029347479
-0.0013586025452241
2.304813824594021e-05
0.0013301890576258
0.0025763236917555
0.0037732045166194
0.0049367323517799
0.0060850763693451
0.007226594723761
0.0083520328626036
0.0094391787424683
0.0104630813002586
0.0114047629758715
0.0122557282447814
0.0130170099437236
0.0136953964829444
0.0143003147095441
0.0148412510752677
0.0153257371857762
0.0157585609704256
0.0161420926451683
0.0164802782237529
0.0167857967317104
0.0170786194503307
0.0173687003552913
0.0176340099424123
0.0178082529455423
0.0177833549678325
0.0174252241849899
0.0165970753878355
0.0151845049113035
0.0131185539066791
0.01039295271039
0.0070719136856496
0.0032855249010026
-0.0007888954132795
-0.0049542603082954
-0.0090176025405526
-0.0128058660775423
-0.0161822009831666
-0.0190635751932859
-0.0214240159839391
-0.0232775993645191
-0.0246555171906948
-0.0255906898528337
-0.0261121224611997
-0.0262445583939552
-0.0260106995701789
-0.0254365354776382
-0.0245571825653314
-0.0234179589897394
-0.0220687258988618
-0.0205557942390441
-0.0189144946634769
-0.0171625707298517
-0.0153038734570145
-0.0133458822965621
-0.0113118961453437
-0.0092359595000743
-0.0071520558558404
-0.0050878492183983
-0.0030629178509116
-0.0010903682559728
0.0008223326876759
0.0026764064095914
0.0044821170158684
0.00625218776986
0.0079943276941776
0.0097087798640131
0.0113920057192444
0.0130424564704298
0.014657873660326
0.0162243507802486
0.0177133157849311
0.0190892219543457
0.0203161351382732
0.0213631838560104
0.0222144313156604
0.0228748507797718
0.0233634188771247
0.0237020067870616
0.0239123664796352
0.0240196790546178
0.0240524355322122
0.024034921079874
0.0239820964634418
0.0239044744521379
0.0238106660544872
0.0236977562308311
0.0235443953424692
0.0233180094510316
0.0229860916733741
0.022521823644638
0.0219058096408844
0.02112921141088
0.0201958380639553
0.0191147793084383
0.0178836900740861
0.0164724849164485
0.0148167936131358
0.012825452722609
0.0104016456753015
0.0074721192941069
0.0040094144642353
3.564637154340744e-05
-0.0043828338384628
-0.0091390619054436
-0.0140922851860523
-0.0190818142145872
-0.0239420942962169
-0.0285171791911125
-0.0326758995652198
-0.0363211408257484
-0.0393891111016273
-0.0418433845043182
-0.0436673238873481
-0.0448580309748649
-0.0454231426119804
-0.0453786179423332
-0.0447537004947662
-0.0436053425073623
-0.0420252233743667
-0.0401281826198101
-0.0380315743386745
-0.0358377695083618
-0.0336259081959724
-0.031450405716896
-0.0293432436883449
-0.0273306928575038
-0.0254659876227378
-0.0238522943109273
-0.0226349495351314
-0.0219722520560026
-0.0220007300376892
-0.0227955505251884
-0.0243310201913118
-0.0264536831527948
-0.0288683325052261
-0.0311387367546558
-0.0327222496271133
-0.0330482646822929
-0.0316156782209873
-0.0280724577605724
-0.0222628246992826
-0.0142453704029321
-0.0042852275073528
0.0071767996996641
0.0195726379752159
0.0322663262486457
0.0446202084422111
0.0560640841722488
0.0661486834287643
0.0745657607913017
0.0811469107866287
0.0858572125434875
0.0887808054685592
0.0900969728827476
0.090049609541893
0.0889078825712204
0.0869262889027595
0.0843212902545929
0.0812674909830093
0.077902153134346
0.0743270218372345
0.0706044360995292
0.0667551532387733
0.0627622902393341
0.0585724785923957
0.0540902651846408
0.0491816066205501
0.0436992906033992
0.0375223457813262
0.0305934399366378
0.022941330447793
0.0146828033030033
0.0060084834694862
-0.0028411764651536
-0.0116068497300148
-0.0200434252619743
-0.0279478970915079
-0.0351761989295482
-0.0416445545852184
-0.0473154596984386
-0.0521818287670612
-0.0562628954648971
-0.0596041530370712
-0.0622694790363311
-0.0643272995948791
-0.0658376514911651
-0.0668466389179229
-0.0673884227871894
-0.0674878135323524
-0.0671599805355072
-0.0664070919156074
-0.0652145221829414
-0.0635523721575737
-0.0613832585513591
-0.0586703494191169
-0.0553843639791011
-0.0515186823904514
-0.0471117831766605
-0.0422572456300258
-0.0370916575193405
-0.0317719839513301
-0.0264545455574989
-0.0212790854275226
-0.0163570009171962
-0.0117601361125707
-0.0075078215450048
-0.0035589379258453
0.0001804418861865
0.0038342769257724
0.0075275190174579
0.0113639030605554
0.0154180331155657
0.0197230614721775
0.0242423973977565
0.0288542322814464
0.0333707705140113
0.0375735610723495
0.0412397757172584
0.0441593527793884
0.0461546368896961
0.0471012070775032
0.0469409860670566
0.0456853136420249
0.0434114076197147
0.0402569398283958
0.0364149324595928
0.0321247912943363
0.0276491343975067
0.0232287067919969
0.0190271437168121
0.0150970611721277
0.01138586550951
0.0077710174955427
0.0041043539531528
0.0002500102855265
-0.0038916657213121
-0.0083739776164293
-0.0132035566493868
-0.0183444377034902
-0.0237194560468196
-0.0292076896876096
-0.0346458777785301
-0.0398357510566711
-0.0445516034960746
-0.0485580116510391
-0.0516475401818752
-0.0536784380674362
-0.0545924827456474
-0.0544144846498966
-0.053238108754158
-0.0512041747570037
-0.0484795272350311
-0.0452378094196319
-0.0416394583880901
-0.0378136336803436
-0.0338503941893577
-0.0298033040016889
-0.0256949756294488
-0.0215218756347894
-0.017260942608118
-0.0128860883414745
-0.0083920154720544
-0.0038059633225202
0.0008185431361198
0.0054136123508214
0.0099075157195329
0.0142340715974569
0.0183409750461578
0.0221951361745595
0.0257818065583705
0.0290992502123117
0.0321527384221553
0.0349488295614719
0.0374923795461654
0.0397900640964508
0.0418556705117225
0.0437040813267231
0.045335616916418
0.0467302873730659
0.0478590801358222
0.0486998185515403
0.049246571958065
0.0495109371840953
0.0495167225599288
0.0492928139865398
0.0488701537251472
0.0482818111777305
0.0475620254874229
0.046744056046009
0.0458560213446617
0.0449137091636657
0.043910801410675
0.0427988320589065
0.0414617769420146
0.0397168025374412
0.0373539105057716
0.0341909863054752
0.0301185101270675
0.0251235365867614
0.0192941110581159
0.012807092629373
0.0059027704410254
-0.0011467792792245
-0.0080703636631369
-0.0146269807592034
-0.0206264499574899
-0.0259353462606668
-0.03046665340662
-0.0341695919632911
-0.0370335206389427
-0.0390930883586406
-0.0404206030070781
-0.0411094948649406
-0.0412576757371425
-0.0409562103450298
-0.0402844548225402
-0.0393088646233081
-0.0380825102329254
-0.0366450324654579
-0.0350231602787971
-0.0332306250929832
-0.0312676094472408
-0.0291213355958461
-0.0267695263028144
-0.0241946056485176
-0.0214066039770841
-0.0184517670422792
-0.0153993219137191
-0.0123227899894118
-0.0092862220481038
-0.00633813906461
-0.0035119643434882
-0.0008271876722574
0.0017085503786802
0.0040958016179502
0.0063417088240385
0.0084594273939728
0.0104654235765337
0.0123764351010322
0.0142119824886322
0.0159972049295902
0.0177529007196426
0.0194810219109058
0.0211614705622196
0.0227582808583974
0.024228973314166
0.0255343541502952
0.0266442000865936
0.0275373701006174
0.0282016862183809
0.0286359749734401
0.0288508962839841
0.0288679413497447
0.0287184230983257
0.0284429751336574
0.0280890837311744
0.0276987552642822
0.0272858459502458
0.0268171764910221
0.0262062940746545
0.0253160372376441
0.0239680036902427
0.021965442225337
0.019133485853672
0.0153640871867537
0.0106472047045826
0.0050804214552044
-0.001144016161561
-0.0077694505453109
-0.0145096220076084
-0.0210797768086195
-0.0272240824997425
-0.0327417328953743
-0.0375075936317443
-0.0414746813476085
-0.0446545407176017
-0.0470881834626197
-0.0488227605819702
-0.0499007701873779
-0.0503598116338253
