bvp
0.0114602874964475
0.0079698599874973
0.0041670291684567
0.0001167126465588
-0.0041047139093279
-0.0084031643345952
-0.0126568730920553
-0.0167153719812631
-0.0204137749969959
-0.0235883984714746
-0.0260860845446586
-0.0277772545814514
-0.0285766422748565
-0.0284625515341758
-0.0274842716753482
-0.0257552750408649
-0.0234392285346984
-0.0207355301827192
-0.0178656131029129
-0.0150618683546781
-0.012558851391077
-0.0105781992897391
-0.0093024633824825
-0.0088505716994404
-0.0092675862833857
-0.0105213178321719
-0.0124984784051775
-0.015009612776339
-0.0178085342049598
-0.0206186305731534
-0.0231583751738071
-0.0251645259559154
-0.0264137275516986
-0.026739876717329
-0.0260374378412961
-0.024234527722001
-0.0212338119745254
-0.0168570317327976
-0.0108463894575834
-0.0029449556022882
0.0069801770150661
0.0188403986394405
0.0322923325002193
0.0467645823955535
0.0615295991301536
0.0758050382137298
0.0888601467013359
0.1000948920845985
0.1090757697820663
0.1155393123626709
0.1193771213293075
0.1206086799502372
0.1193512305617332
0.1157991737127304
0.1102174594998359
0.1029358208179473
0.0943296626210212
0.0847948938608169
0.0747282803058624
0.0645105689764022
0.0544908158481121
0.0449783466756343
0.0362401641905307
0.0284913666546344
0.0218732841312885
0.0164284259080886
0.0120864622294902
0.0086712390184402
0.0059359520673751
0.0036245137453079
0.0015351846814155
-0.0004485100507736
-0.0023684427142143
-0.0042176768183708
-0.005960538983345
-0.0075510330498218
-0.0089577734470367
-0.0101928524672985
-0.0113317221403121
-0.0125133767724037
-0.0139183364808559
-0.0157281756401062
-0.0180835053324699
-0.0210614241659641
-0.0246793292462825
-0.0289166904985904
-0.0337362065911293
-0.0390937849879264
-0.0449376963078975
-0.0511928498744964
-0.057737935334444
-0.0643980205059051
-0.0709574669599533
-0.0771824046969413
-0.0828479528427124
-0.0877662152051925
-0.0918076038360595
-0.0949141979217529
-0.0971114113926887
-0.098519816994667
-0.0993572920560836
-0.0999177545309066
-0.100525215268135
-0.1014807671308517
-0.1030176728963851
-0.1052606254816055
-0.1081903874874115
-0.111631765961647
-0.1152773201465606
-0.1187414675951004
-0.1216291785240173
-0.1236018538475036
-0.1244236528873443
-0.1239785030484199
-0.1222617626190185
-0.119357980787754
-0.1154139637947082
-0.1106077060103416
-0.1051136702299118
-0.0990817099809646
-0.0926397889852523
-0.0859004408121109
-0.0789536610245704
-0.0718546509742736
-0.0646183937788009
-0.0572237223386764
-0.0496257878839969
-0.0417745411396026
-0.0336341299116611
-0.0251980684697628
-0.0164977982640266
-0.0076032653450965
0.0013833716511726
0.0103400871157646
0.0191430002450943
0.0276793390512466
0.0358474217355251
0.0435551144182682
0.050725907087326
0.0573071017861366
0.0632749572396278
0.0686352252960205
0.0734161734580993
0.0776564925909042
0.0813985764980316
0.0846890807151794
0.0875762775540351
0.0901004523038864
0.092286579310894
0.0941495299339294
0.0957087501883506
0.0969921350479126
0.098020926117897
0.0987980961799621
0.0993164554238319
0.0995740666985511
0.0995819419622421
0.0993632823228836
0.0989522710442543
0.0983943939208984
0.0977413728833198
0.0970400497317314
0.0963218510150909
0.0955956354737281
0.0948450565338134
0.0940340459346771
0.0931180715560913
0.0920490622520446
0.0907718613743782
0.089225448668003
0.0873539075255394
0.0851187258958816
0.0825034976005554
0.0795071572065353
0.0761308893561363
0.0723665133118629
0.0681909620761871
0.063570387661457
0.0584742054343223
0.052895039319992
0.0468674302101135
0.0404776707291603
0.033862218260765
0.0271894615143537
0.0206258073449134
0.0143081992864608
0.0083377137780189
0.0027840174734592
-0.002308702096343
-0.0069129914045333
-0.011009419336915
-0.0145845171064138
-0.0176333487033844
-0.0201616138219833
-0.0221871752291917
-0.0237412303686141
-0.0248672030866146
-0.0256147403270006
-0.0260317008942365
-0.0261649750173091
-0.0260690692812204
-0.0258064363151788
-0.025436095893383
-0.0250028818845748
-0.0245358124375343
-0.0240516923367977
-0.0235558096319437
-0.0230408255010843
-0.0224896017462015
-0.0218811966478824
-0.0211972277611494
-0.0204273853451013
-0.0195719003677368
-0.0186374392360448
-0.0176285579800605
-0.0165483225136995
-0.0154120568186044
-0.0142554268240928
-0.0131266843527555
-0.0120730036869645
-0.0111294779926538
-0.0103129316121339
-0.0096202865242958
-0.0090308375656604
-0.0085130482912063
-0.0080330353230237
-0.0075594647787511
-0.0070657888427376
-0.0065347338095307
-0.0059615056961774
-0.0053497469052672
-0.0047091683372855
-0.0040611969307065
-0.003440523520112
-0.0028863921761512
-0.0024301037192344
-0.0020856317132711
-0.0018487367779016
-0.0017041470855474
-0.0016370695084333
-0.0016479287296533
-0.0017676651477813
-0.0020677596330642
-0.0026602409780025
-0.0036828368902206
-0.0052653942257165
-0.0074875522404909
-0.0103533416986465
-0.0137955248355865
-0.0176933482289314
-0.0218870788812637
-0.0261920541524887
-0.0304174851626157
-0.0343865044414997
-0.0379514209926128
-0.0410005487501621
-0.0434570014476776
-0.0452728345990181
-0.0464240759611129
-0.046910710632801
-0.0467567294836044
-0.0460040047764778
-0.0447059236466884
-0.0429314449429512
-0.0407742783427238
-0.0383491367101669
-0.0357722528278827
-0.0331399925053119
-0.0305152386426925
-0.0279236230999231
-0.0253598950803279
-0.0228019692003726
-0.0202254205942153
-0.0176118537783622
-0.0149514451622962
-0.0122429113835096
-0.009492595680058
-0.0067125344648957
-0.0039161858148872
-0.0011179842986166
0.001657293876633
0.0043682721443474
0.0069658812135457
0.0094079012051224
0.011666321195662
0.0137265380471944
0.0155843030661344
0.0172446500509977
0.0187206491827964
0.0200304519385099
0.0211959760636091
0.0222416464239358
0.0231909807771444
0.024066686630249
0.0248935502022504
0.0256922412663698
0.0264640767127275
0.0271849501878023
0.0278166569769382
0.0283213295042514
0.0286662764847278
0.0288246199488639
0.0287809520959854
0.028539702296257
0.0281271040439605
0.0275830030441284
0.0269462782889604
0.0262378044426441
0.0254426579922437
0.0245001167058944
0.0233122445642948
0.0217636637389659
0.0197399221360683
0.0171482507139444
0.0139430947601795
0.010145241394639
0.0058458056300878
0.0011964105069637
-0.0036108940839767
-0.0083715077489614
-0.0128967380151152
-0.0170345827937126
-0.0206776447594165
-0.0237576775252819
-0.0262366756796836
-0.0281006209552288
-0.0293529722839593
-0.0300152786076068
-0.0301394946873188
-0.0298147983849048
-0.0291551984846591
-0.0282778106629848
-0.0272860862314701
-0.026258323341608
-0.0252383183687925
-0.0242325272411108
-0.0232176706194877
-0.0221553649753332
-0.02100545540452
-0.0197328850626945
-0.018312269821763
-0.0167309567332267
-0.0149859739467501
-0.013084340840578
-0.0110528245568275
-0.0089422361925244
-0.0068187415599823
-0.0047506061382591
-0.0027969887014478
-0.0010000704787671
0.0006206119433045
0.0020702690817415
0.003373990766704
0.0045682131312787
0.005693825893104
0.0067881648428738
0.0078767659142613
0.0089749712496995
0.0100963311269879
0.0112504437565803
0.0124296452850103
0.0136033026501536
0.0147267207503318
0.0157543923705816
0.0166507232934236
0.01739745400846
0.0179942157119512
0.0184526070952415
0.0187886711210012
0.0190109200775623
0.0191020723432302
0.0190047621726989
0.0186232663691043
0.0178456027060747
0.0165787860751152
0.0147753236815333
0.0124371424317359
0.0096113821491599
0.0063908360898494
0.0029094899073243
-0.000674420967698
-0.0042005269788205
-0.0075242952443659
-0.01052862778306
-0.0131285367533564
-0.015267789363861
-0.0169133618474006
-0.0180553495883941
-0.0187095664441585
-0.0189121589064598
-0.0187057144939899
-0.0181342680007219
-0.0172525737434625
-0.0161311905831098
-0.0148492800071835
-0.0134837143123149
-0.0120996106415987
-0.0107428366318345
-0.009434818290174
-0.008171584457159
-0.0069304443895816
-0.005682285875082
-0.0044024121016263
-0.0030751856975257
-0.0016938517801463
-0.0002580110158305
0.0012309498852118
0.0027694983873516
0.0043431809172034
0.0059220907278358
0.0074671399779617
0.0089393872767686
0.0103067411109805
0.0115470262244343
0.0126484753564
0.0136095872148871
0.0144378012046217
0.0151478461921215
0.0157618839293718
0.0163069069385528
0.0168067160993814
0.0172780714929103
0.0177362039685249
0.0181957352906465
0.0186568181961774
0.0190930347889661
0.0194586776196956
0.0197070278227329
0.0198031365871429
0.0197286792099475
0.0194837730377912
0.0190857797861099
0.018564248457551
0.0179552249610424
0.0172947533428668
0.0166086107492446
0.0159008838236331
0.0151465218514204
0.0142905972898006
0.0132514657452702
0.0119264852255582
0.0102103585377335
0.0080261006951332
0.0053500700742006
0.0022218618541955
-0.0012580156326293
-0.0049416050314903
-0.0086563630029559
-0.0122322849929332
-0.0155254853889346
-0.0184322074055671
-0.0208927355706691
-0.0228863209486007
-0.0244171842932701
-0.0254977028816938
-0.0261450167745351
-0.0263942908495664
-0.0263067539781332
-0.0259589925408363
-0.0254255607724189
-0.0247685052454471
-0.0240346323698759
-0.0232548508793115
-0.0224423147737979
-0.0215924456715583
-0.0206875912845134
-0.0197023507207632
-0.0186070874333381
-0.0173730254173278
-0.0159768741577863
-0.0144018586724996
-0.0126438606530427
-0.0107233515009284
-0.0086882766336202
-0.0066056321375072
-0.0045493836514651
-0.002586883958429
-0.0007677851244807
0.0008815927430987
0.0023583630099892
0.0036768368445336
0.0048597287386655
0.0059320027939975
0.0069174794480204
0.0078365709632635
0.0087068816646933
0.0095454892143607
0.0103643210604786
0.0111592868342995
0.0119066443294286
0.0125714121386408
0.0131198689341545
0.0135289933532476
0.0137918926775455
0.0139207411557435
0.0139448381960392
0.013900720514357
0.0138203287497162
0.013725284487009
0.0136262793093919
0.013524318113923
0.0134157044813036
0.0133004672825336
0.0131818605586886
0.0130504053086042
0.0128693953156471
0.0125737218186259
0.012074964120984
0.0112714553251862
0.0100682638585567
0.008402076549828
0.0062609231099486
0.003693432547152
0.0008061872795224
-0.0022522248327732
-0.0053169215098023
-0.0082299206405878
-0.0108533836901187
-0.0130786001682281
-0.014838988892734
-0.0161224883049726
-0.0169683210551738
-0.017448354512453
-0.0176473893225193
-0.0176465045660734
-0.0175103917717933
-0.0172844119369983
-0.0169983692467212
-0.0166685450822114
-0.0162977557629346
-0.0158770866692066
-0.0153904845938086
-0.0148223945870995
-0.0141622778028249
-0.0133998822420835
-0.0125234462320804
-0.0115316808223724
-0.0104433950036764
-0.0092915967106819
-0.0081134643405675
-0.0069455495104193
-0.0058192918077111
-0.004755281843245
-0.0037630633451044
-0.0028442298062145
-0.0019914326258003
-0.0011882586404681
-0.0004145946586504
0.000347877270542
0.0011149271158501
0.0019025104120373
0.0027231385465711
0.003572980640456
0.0044259247370064
0.0052439305000007
0.0059924740344285
0.0066489707678556
0.0072031803429126
0.0076548825018107
0.0080127455294132
0.0082933232188224
0.0085162324830889
0.0086977817118167
0.0088505689054727
0.0089868959039449
0.0091195683926343
0.0092630246654152
0.0094319535419344
0.0096296807751059
0.0098391147330403
0.010031372308731
0.0101803187280893
0.0102633982896804
0.0102481059730052
0.0100791985169053
0.0096790380775928
0.0089619224891066
0.0078580360859632
0.0063397567719221
0.004437225870788
0.0022365648765116
-0.0001310505904257
-0.0025041797198355
-0.0047188866883516
-0.0066470596939325
-0.0082191778346896
-0.0094195799902081
-0.0102685708552598
-0.0108046745881438
-0.0110721718519926
-0.011115064844489
-0.0109742209315299
-0.0106852939352393
-0.0102773625403642
-0.009772390127182
-0.009187402203679
-0.008538550697267
-0.0078402338549494
-0.0070979357697069
-0.0063075670041143
-0.00546745210886
-0.0045879380777478
-0.003689395263791
-0.0027946466580033
-0.0019211429171264
-0.0010772412642836
-0.0002633305266499
0.0005256878212094
0.0012973085977137
0.0020582135766744
0.0028118160553276
0.0035555935464799
0.0042793857865035
0.0049709444865584
0.0056289145722985
0.0062651839107275
0.006888264324516
0.0074907732196152
0.0080553395673632
0.0085648484528064
0.0090064518153667
0.0093734171241521
0.0096674691885709
0.0098983459174633
0.0100794117897748
0.0102219767868518
0.0103320535272359
0.0104111693799495
0.0104584945365786
0.0104754427447915
0.0104736648499965
0.010473221540451
0.010486651211977
0.0105064325034618
0.0105063114315271
0.0104530286043882
0.0103183127939701
0.0100809298455715
0.0097210872918367
0.0092136254534125
0.0085220588371157
0.0075991991907358
0.0063998820260167
0.0048994231037795
0.00310684973374
0.0010733122471719
-0.0011041255202144
-0.0032980113755911
-0.0053853117860853
-0.0072744144126772
-0.0089102480560541
-0.0102673647925257
-0.0113414833322167
-0.0121420798823237
-0.0126860858872532
-0.0129942717030644
-0.0130893466994166
-0.0129947178065776
-0.0127347381785511
-0.0123342694714665
-0.0118167251348495
-0.0112005406990647
-0.0104956664144992
-0.0097098220139741
-0.0088623501360416
-0.0079856142401695
-0.0071119265630841
-0.0062637832015752
-0.005452835932374
-0.004680935293436
-0.0039404067210853
-0.0032174517400562
-0.0024994662962853
-0.0017786277458071
-0.0010508531704545
-0.000315741635859
0.0004243371076881
0.0011683483608067
0.0019203326664865
0.0026855822652578
0.003459091996774
0.0042192498221993
0.004932936746627
0.005565479863435
0.0060903136618435
0.0064956443384289
0.0067858807742595
0.0069781201891601
0.0070963576436042
0.007166544906795
0.0072133936919271
0.0072581050917506
0.0073171826079487
0.007405798882246
0.0075440425425767
0.0077508687973022
0.0080244895070791
0.0083341235294938
0.0086331497877836
0.0088775008916854
0.0090355481952428
0.0090882666409015
0.0090272324159741
0.0088569410145282
0.0085955001413822
0.0082640349864959
0.0078705381602048
0.0074005145579576
0.0068154488690197
0.0060615264810621
0.0050903060473501
0.0038740958552807
0.002406767103821
0.000704844831489
-0.0011868134606629
-0.0031963447108864
-0.0052351732738316
-0.007212302647531
-0.0090489611029624
-0.0106857270002365
-0.0120799522846937
-0.0132024670019745
-0.0140366405248641
-0.0145764630287885
-0.0148263722658157
-0.0148013373836874
-0.0145210390910506
-0.0140097392722964
-0.0133110359311103
-0.012496406212449
-0.0116505874320864
-0.0108462106436491
-0.010126101784408
-0.0095002455636858
-0.0089526604861021
-0.0084499232470989
-0.0079505238682031
-0.0074159991927444
-0.0068191280588507
-0.006145208608359
-0.0053889602422714
-0.0045509240590035
-0.0036328239366412
-0.0026382920332252
-0.0015843482688069
-0.0005081142298877
0.0005427179858088
0.0015251226723194
0.0024099284783005
0.0031831935048103
0.0038443212397396
0.0044038775376975
0.0048788869753479
0.0052858917042613
0.0056365067139267
0.0059384675696492
0.0061999256722629
0.0064325863495469
0.006653964985162
0.0068849078379571
0.0071351854130625
0.0073897875845432
0.0076151825487613
0.0077798240818083
0.0078677833080291
0.0078786769881844
0.0078240046277642
0.0077242660336196
0.0076047764159739
0.0074931271374225
0.0074165351688861
0.0073952260427176
0.007437665015459
0.0075418846681714
0.0076955421827733
0.007864287123084
0.007974948734045
0.0079171964898705
0.0075712366960942
0.0068438276648521
0.0056940987706184
0.0041430876590311
0.0022697921376675
0.0001966259442269
-0.0019327765330672
-0.0039765420369803
-0.0058115627616643
-0.0073430128395557
-0.008509412407875
-0.0092806220054626
-0.009646694175899
-0.0096131265163421
-0.0092120124027132
-0.0085110664367675
-0.0076060150749981
-0.0066031608730554
-0.0056034256704151
-0.0046919779852032
-0.0039293514564633
-0.0033437740057706
-0.0029313187114894
-0.0026609217748045
-0.0024755853228271
-0.0022939075715839
-0.0020234687253832
-0.0015831114724278
-0.0009194929152727
-1.73826701939106e-05
0.0010936253238469
0.0023481261450797
0.0036700675264
0.0049961227923631
0.0062857586890459
0.0075193606317043
0.0086905416101217
0.0097984485328197
0.0108451787382364
0.0118380989879369
0.0127902831882238
0.0137157421559095
0.0146226994693279
0.0155093679204583
0.0163640957325696
0.0171642955392599
0.0178733542561531
0.018450740724802
0.0188779979944229
0.0191776938736438
0.01940911822021
0.0196478050202131
0.0199635419994592
0.0204021949321031
0.0209713168442249
0.0216323286294937
0.0223000794649124
0.0228479728102684
0.023119494318962
0.0229497216641902
0.0221966821700334
0.0207688473165035
0.0186352040618658
0.0158253107219934
0.0124283488839864
0.0085847228765487
0.004465339705348
0.0002436954528093
-0.0039295200258493
-0.0079386821016669
-0.0116989165544509
-0.0151434363797307
-0.018212504684925
-0.0208476707339286
-0.022992804646492
-0.0246014036238193
-0.0256436988711357
-0.0261116940528154
-0.0260267350822687
-0.0254442282021045
-0.0244440287351608
-0.0231078956276178
-0.0215006694197654
-0.0196642521768808
-0.0176140498369932
-0.0153358662500977
-0.0127977132797241
-0.0099758272990584
-0.006874157115817
-0.003526272252202
1.2811273336410522e-05
0.0036754719913005
0.0073823984712362
0.0110285319387912
0.0144689995795488
0.0175301078706979
0.0200401358306407
0.0218550227582454
0.0228709485381841
0.0230304282158613
0.0223257914185524
0.0207988023757934
0.0185338966548442
0.0156455375254154
0.0122641995549201
0.0085230804979801
0.004545222967863
0.0004369653761386
-0.0037058889865875
-0.0077904146164655
-0.0117301102727651
-0.0154456924647092
-0.0188489574939012
-0.0218243896961212
-0.0242278929799795
-0.0259064100682735
-0.0267339013516902
-0.0266526956111192
-0.0257032513618469
-0.0240297652781009
-0.0218592062592506
-0.0194599628448486
-0.0170897115021944
-0.0149413365870714
-0.0131012070924043
-0.0115434825420379
-0.0101688392460346
-0.0088625960052013
-0.0075395368039608
-0.0061635430902242
-0.0047467555850744
-0.0033346265554428
-0.0019852668046951
-0.0007543414831161
0.0003104843199253
0.0011699683964252
0.0017943978309631
0.0021667070686817
0.0022843964397907
0.0021609812974929
0.0018263235688209
0.0013148300349712
0.0006424635648727
-0.0002027414739131
-0.0012455582618713
-0.0025029405951499
-0.0039762314409017
-0.0056540220975875
-0.0075173527002334
-0.0095453839749097
-0.011721396818757
-0.0140377301722764
-0.0164976567029953
-0.0191124286502599
-0.021893385797739
-0.0248386710882186
-0.0279188863933086
-0.0310758668929338
-0.0342389829456806
-0.0373406894505023
-0.0403162837028503
-0.0430942624807357
-0.0455884560942649
-0.0476958006620407
-0.0493006259202957
-0.0502855964004993
-0.0505484528839588
-0.0500206276774406
-0.0486829876899719
-0.0465736910700798
-0.0437843985855579
-0.0404454693198204
-0.0367028936743736
-0.0326994061470031
-0.0285752639174461
-0.0244787409901618
-0.020567225292325
-0.0169978886842727
-0.0139100421220064
-0.0114027541130781
-0.0095203947275877
-0.0082528926432132
-0.007545381784439
-0.0073107499629259
-0.0074411612004041
-0.007816782221198
-0.0083155129104852
-0.0088223274797201
-0.0092316251248121
-0.0094518773257732
-0.0094186700880527
-0.0090988762676715
-0.0084796398878097
-0.0075561702251434
-0.0063264034688472
-0.0047920458018779
-0.0029639638960361
-0.0008676685392856
0.0014562979340553
0.0039596185088157
0.0065960027277469
0.0093243494629859
0.0121060423552989
0.0149079263210296
0.0177129358053207
0.020520519465208
0.0233294144272804
0.0261224135756492
0.0288654118776321
0.0315158143639564
0.0340350940823555
0.0363964140415191
0.0385815203189849
0.0405763946473598
0.0423741415143013
0.0439805388450622
0.0454138666391372
0.0466961972415447
0.0478432103991508
0.0488642901182174
0.0497735850512981
0.0505931973457336
0.0513368919491767
0.0519943088293075
0.0525358952581882
0.0529288202524185
0.0531477145850658
0.0531792566180229
0.0530233159661293
0.0526906698942184
0.0522005558013916
0.0515764467418193
0.050835195928812
0.0499731600284576
0.0489562600851058
0.0477236062288284
0.0462091080844402
0.0443625710904598
0.042154137045145
0.0395763106644153
0.0366563163697719
0.0334649160504341
0.0301097743213176
0.0267191771417856
0.0234230235219001
0.0203353092074394
0.0175431687384843
0.0151013620197772
0.0130305914208292
0.011322783306241
0.0099488580599427
0.0088640302419662
0.0080151660367846
0.0073454650118947
0.0067902989685535
0.0062761474400758
0.0057313293218612
0.0051012388430535
0.0043581183999776
0.0035028937272727
0.0025612344034016
0.0015742168761789
0.0005880654789507
-0.0003521731123328
-0.0012078289873898
-0.001952082500793
-0.0025731457863003
-0.003071972168982
-0.003454168094322
-0.003728431649506
-0.0039183055050671
-0.0040695373900234
-0.0042404639534652
-0.0044840602204203
-0.0048318500630557
-0.0052876882255077
-0.0058353845961391
-0.0064511410892009
-0.0071102334186434
-0.0077883638441562
-0.0084631191566586
-0.0091157462447881
-0.0097308838739991
-0.0102940360084176
-0.0107871033251285
-0.0111926794052124
-0.0115125635638833
-0.0117778982967138
-0.0120369950309395
-0.0123362550511956
-0.012707888148725
-0.0131638385355472
-0.0136949820443987
-0.0142779732123017
-0.0148866521194577
-0.0155054107308387
-0.0161444619297981
-0.0168484561145305
-0.0176888704299926
-0.0187408700585365
-0.020053744316101
-0.0216317139565944
-0.0234359260648489
-0.0253958851099014
-0.0274181254208087
-0.0293964613229036
-0.0312257353216409
-0.032813586294651
-0.0340882018208503
-0.0350040569901466
-0.0355448946356773
-0.0357201546430587
-0.0355568192899227
-0.0350926220417022
-0.0343703925609588
-0.0334307216107845
-0.032307244837284
-0.0310319028794765
-0.0296451672911643
-0.0281967036426067
-0.0267356932163238
-0.0253008473664522
-0.0239148288965225
-0.0225834436714649
-0.0212966799736022
-0.0200300216674804
-0.018749825656414
-0.0174234565347433
-0.0160301607102155
-0.0145668350160121
-0.0130442231893539
-0.0114768128842115
-0.0098726050928235
-0.0082316044718027
-0.006557258311659
-0.0048671243712306
-0.0031932410784065
-0.0015768934972584
-5.920379771851003e-05
0.0013293423689901
0.0025739525444805
0.0036761076189577
0.0046529783867299
0.0055340109393
0.0063534998334944
0.0071425163187086
0.0079231094568967
0.0087079182267189
0.0095066633075475
0.0103284744545817
0.0111714042723178
0.01201325468719
0.0128184258937835
0.0135524254292249
0.0141904167830944
0.0147188305854797
0.0151334013789892
0.0154357571154832
0.0156311504542827
0.0157277267426252
0.0157318972051143
0.0156349148601293
0.0153990546241402
0.0149609418585896
0.0142552517354488
0.0132382092997431
0.0118955709040164
0.0102439736947417
0.0083345863968133
0.0062552378512918
0.0041220947168767
0.0020594398956745
0.0001793107949197
-0.0014316593296825
-0.0027201725170016
-0.0036673638969659
-0.0042801294475793
-0.0045790830627083
-0.0045938133262097
-0.0043618446215987
-0.0039227190427482
-0.0033162306062877
-0.0025900243781507
-0.0018011098727583
-0.0010052416473627
-0.0002458374947309
0.0004506660625338
0.0010740594007074
0.0016273944638669
0.0021245433017611
0.0025860974565148
0.0030336258932948
0.0034867124632
0.0039638821035623
0.0044856430031359
0.0050763646140694
0.0057568778283894
0.0065172854810953
0.0072806365787982
0.0078884083777666
0.008119374513626
0.0077341608703136
0.0065385634079575
0.0044502345845103
0.0015441533178091
-0.0019412375986576
-0.0056370869278907
-0.009101822040975
-0.0118867503479123
-0.0135958343744277
-0.0139327859506011
-0.0127309346571564
-0.0099637135863304
-0.0057483678683638
-0.0003460198640823
0.0058660469949245
0.0124561488628387
0.0190074779093265
0.0251721553504467
0.0307036265730857
0.0354701988399028
0.0394502468407154
0.0427025705575943
0.0453142523765563
0.0473449192941188
0.0487897507846355
0.0495713129639625
0.0495577342808246
0.0486000441014766
0.0465735904872417
0.0434107147157192
0.0391266047954559
0.033837616443634
0.0277621410787105
0.0212012194097042
0.0145040657371282
0.0080244643613696
0.0020770784467458
-0.0030982010066509
-0.0073591247200965
-0.0106661841273307
-0.013071022927761
-0.0146956881508231
-0.0157054886221885
-0.0162778832018375
-0.0165833383798599
-0.0167842525988817
-0.0170302521437406
-0.0174406040459871
-0.0180899519473314
-0.0190050415694713
-0.0201667547225952
-0.0215153470635414
-0.0229599140584468
-0.0243904758244752
-0.0256909746676683
-0.0267521720379591
-0.0274853128939867
-0.0278377849608659
-0.0278025344014167
-0.0274114124476909
-0.0267223082482814
-0.0258136484771966
-0.0247809495776891
-0.023725613951683
-0.0227350667119026
-0.0218622852116823
-0.0211141891777515
-0.0204512979835271
-0.0197996087372303
-0.0190718919038772
-0.0181903466582298
-0.0171047560870647
-0.0158002227544784
-0.0142929004505276
-0.012619724497199
-0.0108274696394801
-0.0089691244065761
-0.0071090562269091
-0.0053200079128146
-0.0036652558483183
-0.0021822871640324
-0.000878294929862
0.0002658255398273
0.0012829815968871
0.0021958369761705
0.002988900989294
0.0035954983904957
0.0039117652922868
0.0038296980783343
0.0032721003517508
0.0022227792069315
0.0007468732073903
-0.001019082032144
-0.0029090293683111
-0.0047673704102635
-0.0064692599698901
-0.0079290717840194
-0.0090998085215687
-0.0099654532968997
-0.0105311945080757
-0.0108144804835319
-0.0108414497226476
-0.0106479041278362
-0.0102780414745211
-0.0097811743617057
-0.0092083979398012
-0.0086040291935205
-0.0079934289678931
-0.0073829009197652
-0.0067759798839688
-0.0061854380182921
-0.0056277369149029
-0.0051128375343978
-0.0046418868005275
-0.0042094187811017
-0.0038063237443566
-0.0034223552793264
-0.0030447510071098
-0.0026563555002212
-0.0022384948097169
-0.0017756535671651
-0.0012592952698469
-0.0006890003569424
-6.567966192960739e-05
0.0006141541525721
0.00134789198637
0.00211470015347
0.0028842305764555
0.0036360034719109
0.0043682819232344
0.0050944336690008
0.0058365957811474
0.0066219069994986
0.0074783768504858
0.0084278304129838
0.0094793699681758
0.0106273284181952
0.0118536287918686
0.0131340296939015
0.0144471582025289
0.0157745089381933
0.0170849207788705
0.0183224007487297
0.0194095242768526
0.0202553309500217
0.0207590442150831
0.0208130627870559
0.020314946770668
0.0191933661699295
0.0174365863204002
0.0151059124618768
0.0123301716521382
0.009287972934544
0.0061816358938813
0.0032076193019747
0.000533664599061
-0.0017172284424304
-0.0034825727343559
-0.0047651035711169
-0.0056158397346735
-0.0061072316020727
-0.0063108289614319
-0.0062833223491907
-0.0060623651370406
-0.0056728273630142
-0.0051362803205847
-0.0044760154560208
-0.0037189060822129
-0.002896461635828
-0.0020432993769645
-0.0011893650516867
-0.0003494657576084
0.0004745433107018
0.0012774839997291
0.0020419834181666
0.0027448944747447
0.0033654728904366
0.0038908026181161
0.0043215150944888
0.00467220088467
0.0049644266255199
0.0052204853855073
0.0054614748805761
0.0057058744132518
0.0059670279733836
0.0062513290904462
0.0065615735948085
0.0069060707464814
0.0072998134419322
0.007752014324069
0.008255255408585
0.0087839420884847
0.0092992857098579
0.0097598703578114
0.0101339034736156
0.0104060471057891
0.0105732101947069
0.0106360567733645
0.0106001840904355
0.0104842446744441
0.01032096426934
0.0101467613130807
0.0099872853606939
0.0098429955542087
0.0096690915524959
0.0093588922172784
0.0087578315287828
0.0077110007405281
0.0061155632138252
0.0039534550160169
0.0012978015001863
-0.0017034226329997
-0.0048562618903815
-0.0079510901123285
-0.0107910092920064
-0.0132177164778113
-0.0151289300993084
-0.0164834279567003
-0.0172942709177732
-0.0176124069839715
-0.017512522637844
-0.0170903205871582
-0.0164605490863323
-0.0157439038157463
-0.0150468721985816
-0.0144440019503235
-0.0139657286927104
-0.0135936504229903
-0.013266758993268
-0.0128967436030507
-0.0123871499672532
-0.0116523541510105
-0.0106320520862936
-0.0092978682368993
-0.0076544708572328
-0.0057405102998018
-0.0036305142566561
-0.0014332230202853
0.0007186974398791
0.0026864490937441
0.0043457178398966
0.0056060114875435
0.006425043568015
0.0068150642327964
0.0068395980633795
0.0066023552790284
0.0062291114591062
0.0058433143422007
0.0055443062447011
0.0053977854549884
0.0054390467703342
0.0056834411807358
0.0061307437717914
0.0067548519000411
0.0074971355497837
0.0082809831947088
0.0090336669236421
0.0096979737281799
0.0102340467274189
0.0106165334582328
0.0108277192339301
0.0108466818928718
0.0106384437531232
0.0101496865972876
0.0093160448595881
0.0080800531432032
0.0064143724739551
0.0043425955809652
0.0019415423739701
-0.0006814876105636
-0.0034148581326007
-0.0061537036672234
-0.0088025471195578
-0.011278630234301
-0.0135133508592844
-0.0154492007568478
-0.0170363076031208
-0.0182293076068162
-0.0189851075410842
-0.019267139956355
-0.019055051729083
-0.0183540899306535
-0.0171993859112262
-0.0156507547944784
-0.0137848444283008
-0.0116928042843937
-0.0094752982258796
-0.007229262497276
-0.0050336373969912
-0.0029405211098492
-0.0009729140438139
0.0008742269128561
0.0026304451748728
0.004340679384768
0.0060524092987179
0.0078032687306404
0.0096130101010203
0.011483484879136
0.0134055763483047
0.0153658464550971
0.0173417925834655
0.0192875768989324
0.0211295131593942
0.0227786507457494
0.0241466220468282
0.0251542869955301
0.0257385559380054
0.0258653443306684
0.0255422536283731
0.0248196367174386
0.0237816534936428
0.0225347690284252
0.021197285503149
0.0198916532099246
0.0187384765595197
0.0178457647562026
0.0172853227704763
0.0170613136142492
0.017090244218707
0.0172042865306139
0.017179436981678
0.0167835541069507
0.0158276557922363
0.0142030604183673
0.0118970554322004
0.0089871259406209
0.0056199496611952
0.0019832551479339
-0.0017244638875126
-0.0053202090784907
-0.0086498530581593
-0.0115871410816907
-0.0140342144295573
-0.0159351117908954
-0.0172847472131252
-0.0181183293461799
-0.0184929333627223
-0.0184730421751737
-0.0181199666112661
-0.0174856856465339
-0.0166132114827632
-0.0155421998351812
-0.0143143674358725
-0.0129725951701402
-0.0115567874163389
-0.0101028382778167
-0.0086413072422146
-0.0071935709565877
-0.0057749710977077
-0.0044091809540987
-0.0031405054032802
-0.0020309090614318
-0.0011446066200733
-0.0005331374704837
-0.0002287589013576
-0.0002425611019134
-0.0005618091672658
-0.0011485312134027
-0.0019438732415437
-0.0028766114264726
-0.003872413188219
-0.0048643909394741
-0.0058003962039947
-0.0066412054002285
-0.0073602572083473
-0.0079532535746693
-0.0084436079487204
-0.0088761504739522
-0.0093096867203712
-0.0098136868327856
-0.0104616060853004
-0.0113109098747372
-0.0123731847852468
-0.0135969817638397
-0.0148826409131288
-0.0161218047142028
-0.0172384977340698
-0.0182147249579429
-0.0190940145403146
-0.0199683774262666
-0.0209653750061988
-0.0222400464117527
-0.0239575300365686
-0.0262593161314725
-0.029222160577774
-0.0328245460987091
-0.0369317084550857
-0.0412994436919689
-0.0455947816371917
-0.0494367368519306
-0.0524560436606407
-0.054362341761589
-0.0550031140446662
-0.054399337619543
-0.0527417063713073
-0.0503446944057941
-0.0475825406610965
-0.0448288582265377
-0.042403258383274
-0.0405325628817081
-0.0393344238400459
-0.0388184450566768
-0.0389009118080139
-0.0394288524985313
-0.0402006059885025
-0.0409748069941997
-0.0414713621139526
-0.0413756109774112
-0.040358018130064
-0.0381091050803661
-0.0343724451959133
-0.0289645008742809
-0.0217950344085693
-0.0128978937864303
-0.0024517998099327
0.0092264078557491
0.0217125974595546
0.0345226004719734
0.0471667200326919
0.0591994374990463
0.0702547803521156
0.0800629258155822
0.088451899588108
0.0953432023525238
0.1007432267069816
0.1047243624925613
0.1073982492089271
0.1088944971561431
0.1093445420265197
0.1088656187057495
0.1075549274682998
0.105497658252716
0.1027778834104538
0.0994839072227478
0.0957069098949432
0.0915371105074882
0.0870627835392952
0.0823716968297958
0.077549859881401
0.0726759433746337
0.0678151920437812
0.0630158632993698
0.0583086758852005
0.0537070743739604
0.0492027215659618
0.0447559244930744
0.0402911268174648
0.0357055775821208
0.0308902915567159
0.025759071111679
0.0202769394963979
0.0144757218658924
0.0084511488676071
0.0023461794480681
-0.0036733215674757
-0.00944359973073
-0.0148205943405628
-0.0196891985833644
-0.0239656455814838
-0.0275941379368305
-0.0305485613644123
-0.0328444689512252
-0.0345447324216365
-0.0357482954859733
-0.0365732535719871
-0.0371426157653331
-0.0375699959695339
-0.0379435122013092
-0.0383112952113151
-0.0386763252317905
-0.0390039682388305
-0.0392352007329463
-0.0393000096082687
-0.039130799472332
-0.0386698879301548
-0.0378675535321235
-0.0366857834160327
-0.0351157821714878
-0.0331905223429203
-0.0309801734983921
-0.028578482568264
-0.0260904543101787
-0.0236251596361398
-0.0212903060019016
-0.0191856287419796
-0.017395369708538
-0.0159799978137016
-0.0149697866290807
-0.014363320544362
-0.0141291376203298
-0.0142061784863471
-0.0145053192973136
-0.0149212246760725
-0.0153520945459604
-0.0157114267349243
-0.0159290824085474
-0.0159527640789747
-0.0157513357698917
-0.015312566421926
-0.0146357621997594
-0.0137284826487302
-0.0126092107966542
-0.0113080833107233
-0.0098624024540185
-0.0083116712048649
-0.0066977143287658
-0.0050679128617048
-0.0034789741039276
-0.0020100232213735
-0.0007807724177837
5.179643630981445e-05
0.0003247093409299
-9.200721979141235e-05
-0.0012633632868528
-0.0031715463846921
-0.0057192537933588
-0.0087501863017678
-0.0120738688856363
-0.0154914874583482
-0.018823267892003
-0.021928621456027
-0.0247108619660139
-0.027106549590826
-0.029069559648633
-0.0305678453296422
-0.0315950587391853
-0.032177448272705
-0.0323656797409057
-0.0322204306721687
-0.0318000093102455
-0.0311498884111642
-0.0302940402179956
-0.0292326938360929
-0.0279476717114448
-0.0264102015644311
-0.0245896615087986
-0.02246312238276
-0.0200233198702335
-0.0172822810709476
-0.0142684485763311
-0.0110274003818631
-0.0076347286812961
-0.0042028967291116
-0.000866362825036
0.0022430047392845
0.0050171636976301
0.0073867905884981
0.0093248486518859
0.0108400881290435
0.0119707128033041
0.012778827920556
0.0133403064683079
0.0137345362454652
0.0140373883768916
0.0143144354224205
0.0146154519170522
0.0149681251496076
0.0153689486905932
0.0157827362418174
0.0161583442240953
0.0164502002298831
0.0166327245533466
0.0167046375572681
0.0166867971420288
0.016614694148302
0.0165237747132778
0.0164319649338722
0.0163274835795164
0.0161648634821176
0.0158699806779623
0.0153580289334058
0.0145630808547139
0.0134598147124052
0.0120628867298364
0.0104174418374896
0.0085938181728124
0.006682701408863
0.004787253215909
0.003012029454112
0.0014495439827442
0.0001696944236755
-0.000784907490015
-0.0013997629284858
-0.0016848500818014
-0.0016684178262948
-0.0013943538069725
-0.0009172204881906
-0.0002900511026382
0.0004387963563203
0.0012147426605224
0.0019743368029594
0.0026590395718812
0.0032308436930179
0.0036816671490669
0.0040370784699916
0.0043522473424673
0.0046991892158985
0.0051509235054254
0.0057670585811138
0.0065833609551191
0.0076097343116998
0.0088336113840341
0.0102227665483951
0.0117321237921714
0.0133138820528984
0.0149181596934795
0.0164878144860267
0.017962846904993
0.0192908570170402
0.0204329751431942
0.0213680062443017
0.0220972131937742
0.0226435884833335
0.0230437461286783
0.0233370475471019
0.0235583260655403
0.0237363819032907
0.0238936115056276
0.0240470822900533
0.0242141708731651
0.0244121309369802
0.0246442407369613
0.0248882137238979
0.0250986404716968
0.0252144541591405
0.0251617170870304
0.0248532332479953
0.0241930708289146
0.0230912081897258
0.0214842073619365
0.0193523541092872
0.0167277827858924
0.0136925354599952
0.0103673450648784
0.0068984772078692
0.0034480241592973
0.000176906120032
-0.0027847685851156
-0.0053602820262312
-0.0075266202911734
-0.0093001555651426
-0.0107189929112792
-0.0118278879672288
-0.0126698585227131
-0.0132843228057026
-0.013706867583096
-0.0139677515253424
-0.0140900425612926
-0.0140891829505562
-0.0139744188636541
-0.013748038560152
-0.0134024526923894
-0.0129268178716301
-0.01232420373708
-0.0116211995482444
-0.0108615597710013
-0.0100921737030148
-0.0093506872653961
-0.0086602782830595
-0.0080299358814954
-0.0074556153267621
-0.0069216508418321
-0.0064033400267362
-0.0058731315657496
-0.0053090630099177
-0.0046992031857371
-0.0040393872186541
-0.003325124271214
-0.0025491043925285
-0.0017141778953373
-0.0008444692939519
2.133892849087715e-05
0.0008424408733844
0.0015818993560969
0.002209922298789
0.0027086157351732
0.003075536340475
0.003322557080537
0.0034703603014349
0.0035434421151876
0.00356977712363
0.0035810945555567
0.0036104060709476
0.0036899615079164
0.0038435738533735
0.0040700482204556
0.0043355505913496
0.0045814830809831
0.0047321217134594
0.0046954369172453
0.0043669808655977
0.0036447793245315
0.0024509988725185
0.0007513221353292
-0.0014353394508361
-0.0040383245795965
-0.0069432221353054
-0.0100044403225183
-0.0130607960745692
-0.0159499756991863
-0.0185267403721809
-0.0206883046776056
-0.0223882067948579
-0.0236254949122667
-0.0244257785379886
-0.0248303934931755
-0.0248914640396833
-0.024666104465723
-0.0242094360291957
-0.0235706530511379
-0.0227923262864351
-0.0219110492616891
-0.0209585260599851
-0.0199592262506485
-0.0189215932041406
-0.0178293921053409
-0.0166500732302665
-0.0153612550348043
-0.0139685459434986
-0.0124996285885572
-0.0109888073056936
-0.0094669079408049
-0.0079577201977372
-0.0064781131222844
-0.0050390674732625
-0.0036449045874178
-0.0022943019866943
-0.0009858221746981
0.0002787322155199
0.0014967506285756
0.0026686708442866
0.0038021984510123
0.004911997821182
0.0060069169849157
0.0070780771784484
0.0081051513552665
0.0090713063254952
0.0099689606577157
0.0107954358682036
0.0115477638319134
0.0122204227373003
