bvp
-0.0093921162188053
-0.0114851435646414
-0.0132392179220914
-0.0146469315513968
-0.0157263837754726
-0.0165096968412399
-0.0170291718095541
-0.017308734357357
-0.0173638015985488
-0.0172059312462806
-0.0168495643883943
-0.0163166336715221
-0.0156358256936073
-0.0148369893431663
-0.0139425294473767
-0.0129650877788662
-0.0119173098355531
-0.0108204372227191
-0.0097008738666772
-0.0085806977003812
-0.0074712536297738
-0.0063749030232429
-0.0052914209663867
-0.0042196926660835
-0.0031553097069263
-0.0020928429439663
-0.0010318796848878
2.0563369616866112e-05
0.0010523298988118
0.0020523802377283
0.0030182506889104
0.0039543560706079
0.0048600556328892
0.0057229660451412
0.0065241730771958
0.0072471783496439
0.0078835971653461
0.0084329219534993
0.0088990479707717
0.0092885624617338
0.009610204026103
0.0098732933402061
0.0100866202265024
0.0102579789236187
0.0103930421173572
0.0104978764429688
0.0105856703594326
0.0106751574203372
0.0107768904417753
0.0108825732022523
0.0109678758308291
0.0110035138204693
0.0109652876853942
0.010838652960956
0.0106167532503604
0.0102912234142422
0.0098403133451938
0.0092235449701547
0.008386637084186
0.0072736293077468
0.0058448808267712
0.0040999352931976
0.0020932387560606
-7.514189928770065e-05
-0.0022901049815118
-0.0044476995244622
-0.0064646331593394
-0.0082797314971685
-0.0098548997193574
-0.0111753270030021
-0.0122463274747133
-0.0130842514336109
-0.0137033825740218
-0.0141088366508483
-0.0143018569797277
-0.0142892422154545
-0.0140867717564105
-0.0137141747400164
-0.0131843360140919
-0.0125014558434486
-0.0116778565570712
-0.0107487849891185
-0.0097647681832313
-0.0087740933522582
-0.0078145563602447
-0.0069114044308662
-0.0060732904821634
-0.0052909962832927
-0.0045440206304192
-0.0038100103847682
-0.0030703195370733
-0.0023116441443562
-0.0015261489897966
-0.0007083364762365
0.0001497457269579
0.0010542043019086
0.0019956761971116
0.0029435663018375
0.0038559599779546
0.0046942513436079
0.005431612022221
0.0060552237555384
0.0065657650120556
0.0069755064323544
0.0073054591193795
0.0075807394459843
0.0078250709921121
0.0080566862598061
0.0082848584279418
0.0085114818066358
0.0087414160370826
0.0089843589812517
0.0092397471889853
0.0094895269721746
0.0097085703164339
0.0098729357123374
0.0099592320621013
0.0099438708275556
0.009801922366023
0.0095007410272955
0.0089951818808913
0.0082334643229842
0.007170105818659
0.0057807834818959
0.0040778862312436
0.0021194356959313
4.078028723597527e-06
-0.0021485555917024
-0.004226102028042
-0.0061448058113455
-0.0078534483909606
-0.0093254391103982
-0.0105483047664165
-0.0115168690681457
-0.0122332302853465
-0.0127084869891405
-0.0129594728350639
-0.0130031025037169
-0.0128554152324795
-0.0125345289707183
-0.0120603023096919
-0.0114502552896738
-0.0107180103659629
-0.0098782293498516
-0.0089554516598582
-0.0079866545274853
-0.0070128124207258
-0.0060686077922582
-0.0051780547946691
-0.0043526515364646
-0.0035884794779121
-0.0028655920177698
-0.0021535791456699
-0.0014217509888112
-0.0006479243747889
0.0001783831976354
0.0010572019964456
0.0019834018312394
0.0029535561334341
0.0039621386677026
0.0049870987422764
0.0059858285821974
0.0069082984700798
0.0077135418541729
0.008379939943552
0.0089070722460746
0.009309752844274
0.0096096117049455
0.0098307775333523
0.0099982488900423
0.0101340394467115
0.0102550415322184
0.0103755481541156
0.0105092860758304
0.0106689762324094
0.0108603471890091
0.0110698752105236
0.0112614054232835
0.011389466933906
0.0114144394174218
0.0113080851733684
0.0110511984676122
0.0106245800852775
0.009997914545238
0.0091292643919587
0.0079796537756919
0.0065322844311594
0.0048043630085885
0.0028478610329329
0.0007445173105224
-0.0014013304607942
-0.0034796930849552
-0.0054010981693863
-0.0071125258691608
-0.0085951276123523
-0.0098545439541339
-0.0109098106622695
-0.0117804687470197
-0.0124742183834314
-0.0129828704521059
-0.0132906679064035
-0.0133849615231156
-0.0132607650011777
-0.0129236141219735
-0.0123944506049156
-0.0117092179134488
-0.0109061850234866
-0.0100160408765077
-0.0090703899040818
-0.0081118643283844
-0.0071875806897878
-0.0063342279754579
-0.0055689122527837
-0.0048895645886659
-0.0042797694914042
-0.0037125216331332
-0.003154318081215
-0.002571910386905
-0.0019392638932913
-0.001241504214704
-0.0004748792853206
0.000358039047569
0.0012550833635032
0.0022116471081972
0.0032071168534457
0.0042007765732705
0.0051467875018715
0.0060108886100351
0.0067732837051153
0.0074244812130928
0.0079641882330179
0.0084000276401638
0.0087439604103565
0.0090110739693045
0.0092194890603423
0.0093877520412206
0.0095316544175148
0.009664312005043
0.0098007228225469
0.0099572474136948
0.0101385042071342
0.0103268548846244
0.0104877678677439
0.0105811636894941
0.0105673391371965
0.0104062799364328
0.0100533459335565
0.0094583006575703
0.0085721090435981
0.0073575722053647
0.0058002374134957
0.003918495029211
0.0017688716761767
-0.0005555180832743
-0.0029338500462472
-0.0052375341765582
-0.0073563461191952
-0.0092149414122104
-0.0107746217399835
-0.0120266200974583
-0.0129810217767953
-0.0136561840772628
-0.014072167687118
-0.0142479939386248
-0.0142038902267813
-0.0139672951772809
-0.0135757531970739
-0.0130718266591429
-0.0124941412359476
-0.011868292465806
-0.0111991101875901
-0.0104757519438862
-0.0096902474761009
-0.0088488887995481
-0.0079684788361191
-0.0070675406605005
-0.0061603812500834
-0.0052545312792062
-0.0043500876054167
-0.0034425647463649
-0.0025279829278588
-0.0016055237501859
-0.0006777534727007
0.0002493185456842
0.0011663250625133
0.0020640948787331
0.0029414920136332
0.0038053125608712
0.0046565006487071
0.0054803118109703
0.0062513425946235
0.0069446652196347
0.0075445715337991
0.008047723211348
0.0084619158878922
0.0088035371154546
0.0090919565409421
0.0093426257371902
0.009566742926836
0.0097762811928987
0.0099840834736824
0.0101992897689342
0.0104284407570958
0.010676059871912
0.0109342848882079
0.0111755337566137
0.0113602234050631
0.0114503344520926
0.0114178173243999
0.0112439272925257
0.0109108304604887
0.0103901922702789
0.0096362819895148
0.0085915680974721
0.0072050523012876
0.0054531684145331
0.0033527798950672
0.0009664888493716
-0.0015986473299562
-0.0042086280882358
-0.0067346077412366
-0.0090768095105886
-0.0111692734062671
-0.0129755968227982
-0.0144833484664559
-0.0156957078725099
-0.0166213642805814
-0.0172697268426418
-0.0176516771316528
-0.0177807714790105
-0.0176757406443357
-0.0173617396503686
-0.0168662574142217
-0.0162134431302547
-0.0154202431440353
-0.0144989117980003
-0.0134681267663836
-0.0123596955090761
-0.0112115070223808
-0.010057233273983
-0.0089225899428129
-0.0078237978741526
-0.0067647746764123
-0.005736936815083
-0.0047222590073943
-0.0036976221017539
-0.0026413667947053
-0.0015409630723297
-0.0003964467905461
0.0007846127264201
0.0019965600222349
0.0032358369790017
0.0044884392991662
0.0057222973555326
0.0068943728692829
0.0079637104645371
0.0089027313515543
0.0097027085721492
0.0103729795664548
0.0109358392655849
0.0114168804138898
0.0118367206305265
0.0122107490897178
0.0125504825264215
0.0128607992082834
0.0131417904049158
0.0133974216878414
0.0136341638863086
0.0138461012393236
0.0140078887343406
0.0140845868736505
0.0140463802963495
0.0138787925243377
0.0135863972827792
0.0131902694702148
0.0127185033634305
0.0121897375211119
0.011596331372857
0.0108975181356072
0.0100265648216009
0.0089090419933199
0.007489220239222
0.0057550445199012
0.0037414147518575
0.0015112798428162
-0.0008607105119153
-0.0032934241462498
-0.0057024275884032
-0.0080042453482747
-0.0101228142157197
-0.0119969174265861
-0.0135817229747772
-0.0148448906838893
-0.0157654620707035
-0.0163366831839084
-0.0165680386126041
-0.016486756503582
-0.0161371398717165
-0.0155712896957993
-0.0148398308083415
-0.0139950318261981
-0.0130946021527051
-0.0121931405737996
-0.0113292764872312
-0.0105199422687292
-0.0097612421959638
-0.0090305441990494
-0.008291807025671
-0.0075062131509184
-0.0066422810778021
-0.005682811141014
-0.0046292571350932
-0.0034970864653587
-0.0022997879423201
-0.0010360241867601
0.0003028069622814
0.0017096460796892
0.0031487999949604
0.0045641902834177
0.0058971322141587
0.0071018980816006
0.0081529449671506
0.0090424725785851
0.0097752157598733
0.0103665012866258
0.0108421128243207
0.0112365605309605
0.011588248424232
0.0119319558143615
0.0122937737032771
0.0126935131847858
0.013145831413567
0.0136504732072353
0.0141820479184389
0.0146922636777162
0.0151235200464725
0.0154256829991936
0.015567485243082
0.0155384866520762
0.0153419580310583
0.0149817429482936
0.014448681846261
0.0137129072099924
0.0127269439399242
0.0114396288990974
0.009817692451179
0.007865922525525
0.0056296857073903
0.0031791203655302
0.0005941553972661
-0.00204244768247
-0.0046524414792656
-0.0071696280501782
-0.0095409043133258
-0.0117213577032089
-0.0136688742786645
-0.0153427449986338
-0.0167068913578987
-0.0177358966320753
-0.0184204895049333
-0.0187686160206794
-0.0188005939126014
-0.0185411628335714
-0.0180196072906255
-0.0172803811728954
-0.0163860507309436
-0.0154054723680019
-0.0144010968506336
-0.0134211219847202
-0.0124913901090621
-0.0116101410239934
-0.0107540050521492
-0.0098919114097952
-0.0089969607070088
-0.0080528911203145
-0.0070548183284699
-0.0060056634247303
-0.0049096876755356
-0.0037655471824109
-0.0025693310890346
-0.0013285704189911
-7.104675751179457e-05
0.0011590995127335
0.0023116962984204
0.0033427712041884
0.0042262766510248
0.0049602859653532
0.0055640786886215
0.0060686655342578
0.0065088141709566
0.0069199176505208
0.0073330900631845
0.0077664894051849
0.0082233818247914
0.0087018711492419
0.0092010358348488
0.0097127826884388
0.0102149341255426
0.0106773246079683
0.0110703622922301
0.0113680083304643
0.0115500735118985
0.0116066979244351
0.0115386778488755
0.0113468552008271
0.0110149038955569
0.0104992864653468
0.0097344070672988
0.0086507787927985
0.0072000678628683
0.0053760888986289
0.0032184566371142
0.0007980200462043
-0.0018000325653702
-0.0044849892146885
-0.0071671428158879
-0.009765506722033
-0.012212561443448
-0.0144544588401913
-0.0164486914873123
-0.0181615334004163
-0.0195657052099704
-0.0206374060362577
-0.0213552489876747
-0.0217051431536674
-0.0216860603541135
-0.0213089436292648
-0.0205971542745828
-0.0195969361811876
-0.018381655216217
-0.0170372072607278
-0.0156424697488546
-0.0142567809671163
-0.0129139274358749
-0.0116224884986877
-0.0103706959635019
-0.0091331107541918
-0.0078785484656691
-0.0065771052613854
-0.0052052708342671
-0.0037489356473088
-0.0022013951092958
-0.0005589518696069
0.0011749407276511
0.0029775332659482
0.004803801421076
0.0065976716578006
0.008304014801979
0.009874764829874
0.0112742595374584
0.0124858226627111
0.0135147059336304
0.0143843479454517
0.0151277305558323
0.0157772339880466
0.0163587555289268
0.0168926548212766
0.0173981506377458
0.0178975090384483
0.0184112526476383
0.0189423710107803
0.0194670669734478
0.0199423413723707
0.0203211456537246
0.0205647572875022
0.0206496119499206
0.020570021122694
0.0203377660363912
0.0199773516505956
0.019514575600624
0.0189595781266689
0.0182931572198867
0.0174647215753793
0.0164035037159919
0.0150410374626517
0.0133305517956614
0.0112495981156826
0.0087993061169981
0.0060129375196993
0.0029617119580507
-0.0002521029673516
-0.0035089773591607
-0.0066860960796475
-0.0096703600138425
-0.0123669803142547
-0.0147014446556568
-0.0166211239993572
-0.0180994104593992
-0.0191352888941764
-0.0197443552315235
-0.019947150722146
-0.0197675339877605
-0.0192448515444993
-0.0184425096958875
-0.0174403190612792
-0.016319653019309
-0.0151511169970035
-0.0139856189489364
-0.0128484824672341
-0.0117396647110581
-0.0106424950063228
-0.0095344763249158
-0.0083932559937238
-0.0072001456283032
-0.0059440890327095
-0.0046214954927563
-0.0032305617351084
-0.0017717126756906
-0.000258173327893
0.0012765785213559
0.0027835709042847
0.0042122965678572
0.0055253459140658
0.0067052133381366
0.0077505842782557
0.0086695170029997
0.0094772037118673
0.0101929642260074
0.0108332354575395
0.0114083290100097
0.01192366797477
0.0123833054676651
0.0127964885905385
0.0131769636645913
0.0135312359780073
0.0138518884778022
0.0141239445656538
0.014334793202579
0.0144779002293944
0.0145507417619228
0.0145522747188806
0.0144783910363912
0.0143127366900444
0.0140190068632364
0.013540418818593
0.0128054982051253
0.0117403445765376
0.0102890767157077
0.0084357894957065
0.0062118861824274
0.0036847479641437
0.0009419312700629
-0.0019202218391001
-0.004803770687431
-0.0076146945357322
-0.0102702267467975
-0.0127051509916782
-0.0148728378117084
-0.0167417265474796
-0.0182904880493879
-0.0195058304816484
-0.0203829947859048
-0.0209256783127784
-0.0211431197822093
-0.0210466720163822
-0.0206551775336265
-0.0200094152241945
-0.019176822155714
-0.0182377509772777
-0.0172683428972959
-0.0163294002413749
-0.0154564809054136
-0.0146521404385566
-0.0138874482363462
-0.0131140183657407
-0.0122804613783955
-0.0113435424864292
-0.0102713555097579
-0.0090466607362031
-0.0076700369827449
-0.006154682021588
-0.0045209657400846
-0.0028019230812788
-0.0010510924039408
0.0006592763820663
0.0022515098098665
0.0036622874904423
0.004859073087573
0.0058465264737606
0.0066635319963097
0.0073739583604037
0.0080532655119895
0.0087740886956453
0.0095955645665526
0.010558646172285
0.0116882482543587
0.0130016384646296
0.0145093267783522
0.0161975976079702
0.0180132128298282
0.0198728032410144
0.0216925628483295
0.0234238784760236
0.0250818748027086
0.0267584789544343
0.0286126490682363
0.030827721580863
0.0335375405848026
0.0367456451058387
0.0402742028236389
0.043767862021923
0.0467526949942112
0.0487310886383056
0.0492789819836616
0.048119131475687
0.0451691225171089
0.0405637361109256
0.0346387587487697
0.0278743598610162
0.0208163931965827
0.0139973387122154
0.0078692641109228
0.0027539748698472
-0.0011834800243377
-0.0039353352040052
-0.0056330747902393
-0.0065202619880437
-0.006920401006937
-0.007193299010396
-0.0076798368245363
-0.0086587704718112
-0.0103240516036748
-0.0127694346010684
-0.0159881431609392
-0.0198956970125436
-0.0243577156215906
-0.0292106196284294
-0.034278504550457
-0.0393848605453968
-0.0443574041128158
-0.0490326024591922
-0.0532657206058502
-0.0569410324096679
-0.0599721893668174
-0.0622919201850891
-0.0638439506292343
-0.0645866766571998
-0.0644985735416412
-0.0635790899395942
-0.0618532001972198
-0.0593792349100112
-0.0562536716461181
-0.0526121146976947
-0.0486216694116592
-0.0444598048925399
-0.0402867794036865
-0.0362231768667697
-0.0323398858308792
-0.0286632012575864
-0.025187874212861
-0.0218879207968711
-0.0187308546155691
-0.0157009307295084
-0.0128159802407026
-0.0101256407797336
-0.0076978974975645
-0.0056028440594673
-0.003898135619238
-0.0026217768900096
-0.0017949895700439
-0.001433812547475
-0.001567464787513
-0.0022509898990392
-0.0035502822138369
-0.0054921600967645
-0.007992104627192
-0.0107907047495245
-0.0134447142481803
-0.0153870033100247
-0.0160179790109395
-0.0147928744554519
-0.0112973116338253
-0.0053014904260635
0.0032241772860288
0.0141256181523203
0.0270874388515949
0.0416525453329086
0.0572529286146163
0.0732568651437759
0.0890135765075683
0.1038763001561164
0.1172149181365966
0.1284402459859848
0.1370329111814499
0.1425628811120987
0.1447139978408813
0.1433218866586685
0.1384027302265167
0.1301467716693878
0.1188722476363182
0.104969248175621
0.0888726264238357
0.0710676461458206
0.0520994812250137
0.0325624868273735
0.01306764036417
-0.0057965889573097
-0.0234982557594776
-0.0395927280187606
-0.0537518262863159
-0.0657820031046867
-0.075622022151947
-0.0833231508731842
-0.0890241041779518
-0.0929308533668518
-0.0952988788485527
-0.09640783816576
-0.0965303182601928
-0.0959034264087677
-0.0947077125310897
-0.0930594801902771
-0.0910185128450393
-0.0886024832725524
-0.0857995748519897
-0.0825784876942634
-0.0789051949977874
-0.074770987033844
-0.0702138990163803
-0.0653178542852401
-0.0601981878280639
-0.0549853146076202
-0.0498086549341678
-0.0447828844189643
-0.0399982929229736
-0.035513699054718
-0.0313516855239868
-0.0274985209107399
-0.0239112507551908
-0.0205292422324419
-0.0172809604555368
-0.0140847507864236
-0.010857006534934
-0.0075336024165153
-0.0040897112339735
-0.0005427058786153
0.003059571608901
0.0066519044339656
0.0101613979786634
0.0135197043418884
0.0166762918233871
0.0196035448461771
0.0222934037446975
0.0247529931366443
0.0270005576312541
0.0290598310530185
0.0309573430567979
0.0327246934175491
0.0343953110277652
0.0359903834760189
0.0375068299472332
0.0389164760708808
0.0401752367615699
0.041240569204092
0.0420863665640354
0.0427040681242942
0.0430977307260036
0.0432825125753879
0.0432821810245513
0.0431240051984787
0.0428369119763374
0.0424523092806339
0.0420029051601886
0.0415209084749221
0.0410342738032341
0.0405562631785869
0.0400771647691726
0.03956925496459
0.0389995537698268
0.0383398383855819
0.0375714115798473
0.0366860888898372
0.0356834009289741
0.0345638133585453
0.0333210825920105
0.0319382920861244
0.0303892493247985
0.0286452192813158
0.0266886204481124
0.024529481306672
0.0222082026302814
0.0197777673602104
0.0172853209078311
0.0147695429623126
0.0122647145763039
0.0098002683371305
0.0073988619260489
0.0050785513594746
0.0028589991852641
0.0007679238915443
-0.0011588195338845
-0.0028853309340775
-0.0043848962523043
-0.0056456075981259
-0.0066700181923806
-0.0074673094786703
-0.0080490168184041
-0.0084357373416423
-0.0086618419736623
-0.0087715126574039
-0.0088136978447437
-0.0088361203670501
-0.0088754864409565
-0.008950000628829
-0.0090580023825168
-0.0091806594282388
-0.0092874076217412
-0.0093431072309613
-0.0093177147209644
-0.0091957775875926
-0.0089772446081042
-0.008668215945363
-0.0082744527608156
-0.0078076575882732
-0.0072936932556331
-0.0067711174488067
-0.0062822783365845
-0.0058607682585716
-0.0055221104994416
-0.0052641415968537
-0.0050731762312352
-0.0049302000552415
-0.0048157460987567
-0.0047130840830504
-0.0046098185703158
-0.0044986456632614
-0.0043747285380959
-0.004229153972119
-0.00405017985031
-0.0038367696106433
-0.0036079981364309
-0.0033994535915553
-0.0032560415565967
-0.0032280865125358
-0.0033698217011988
-0.003735976293683
-0.0043709482997655
-0.0052935960702598
-0.0064877187833189
-0.0079025905579328
-0.0094615677371621
-0.0110745569691061
-0.0126494765281677
-0.0141003020107746
-0.0153564158827066
-0.0163755752146244
-0.0171494968235492
-0.0176962912082672
-0.0180471427738666
-0.0182323083281517
-0.0182717218995094
-0.0181760229170322
-0.0179520677775144
-0.0176043137907981
-0.0171345863491296
-0.0165448058396577
-0.0158404484391212
-0.0150315472856163
-0.0141293257474899
-0.0131409652531147
-0.012072505429387
-0.01093883626163
-0.0097672566771507
-0.0085926605388522
-0.007450133562088
-0.0063666906207799
-0.0053553907200694
-0.0044151959009468
-0.0035348590463399
-0.0026977192610502
-0.001887590624392
-0.0010939870262518
-0.000312429270707
0.000457277870737
0.0012131524272263
0.0019587795250117
0.002707845531404
0.0034732492640614
0.0042531569488346
0.0050291810184717
0.0057732434943318
0.0064555834978818
0.0070524946786463
0.0075530004687607
0.0079595912247896
0.0082814814522862
0.0085273822769522
0.0087031386792659
0.0088097341358661
0.0088358679786324
0.0087533313781023
0.008527205325663
0.0081291031092405
0.0075366925448179
0.0067300703376531
0.0056992364116013
0.0044557540677487
0.0030381428077816
0.0015095332637429
-5.185778718441725e-05
-0.0015661404468119
-0.0029615494422614
-0.0041780169121921
-0.005168180912733
-0.0058988248929381
-0.0063524539582431
-0.0065251127816736
-0.0064212521538138
-0.0060567059554159
-0.0054705967195332
-0.0047286092303693
-0.003909804392606
-0.0030867629684507
-0.0023094608914107
-0.0016003318596631
-0.0009615474846214
-0.0003854180686175
0.0001394364517182
0.000625506567303
0.0010862747440114
0.0015372341731563
0.0019958948250859
0.0024840994738042
0.0030316240154206
0.0036675566807389
0.0043987920507788
0.0051972893998026
0.0060080289840698
0.006767455022782
0.0074189566075801
0.0079222610220313
0.0082592759281396
0.0084343273192644
0.008467337116599
0.0083860522136092
0.0082236835733056
0.0080195451155304
0.0078156562522053
0.0076515218243002
0.0075631542131304
0.0075755282305181
0.0076803117990493
0.0078202951699495
0.0079001449048519
0.007813137024641
0.0074654212221503
0.0067930864170193
0.0057752383872866
0.0044410359114408
0.0028645140118896
0.0011475798673927
-0.0005985810421407
-0.0022666226141154
-0.0037646919954568
-0.0050250296480953
-0.0060028051957488
-0.0066741192713379
-0.0070420294068753
-0.007139241322875
-0.0070192161947488
-0.006744721904397
-0.0063801817595958
-0.0059835938736796
-0.0055975206196308
-0.0052457260899245
-0.0049366350285708
-0.0046676555648446
-0.0044278069399297
-0.0041998885571956
-0.0039634169079363
-0.0036970446817576
-0.0033769863657653
-0.0029792576096951
-0.0024928972125053
-0.0019303914159536
-0.0013249770272523
-0.0007199347019195
-0.0001565921120345
0.0003333394415676
0.0007310193032026
0.0010318383574485
0.0012449556961655
0.0013906580861657
0.0014948260504752
0.0015830383636057
0.0016772442031651
0.0017964316066354
0.0019613502081483
0.0021930141374468
0.0024991957470774
0.0028635661583393
0.0032480696681886
0.0036032816860824
0.0038823729846626
0.0040542855858802
0.0041086850687861
0.0040534329600632
0.0039098975248634
0.0037063993513584
0.0034680534154176
0.003204689361155
0.0029031285084784
0.0025301030836999
0.0020462553948163
0.0014193402603268
0.0006263246759772
-0.0003441204316914
-0.001481398474425
-0.0027488234918564
-0.0040905848145484
-0.0054403194226324
-0.0067263096570968
-0.0078770257532596
-0.0088323708623647
-0.0095567014068365
-0.010042455047369
-0.01030252315104
-0.0103591233491897
-0.0102329775691032
-0.0099361119791865
-0.0094771850854158
-0.0088766552507877
-0.0081746028736233
-0.0074243461713194
-0.0066800098866224
-0.0059859510511159
-0.0053691039793193
-0.0048342300578951
-0.0043657347559928
-0.0039357934147119
-0.0035135019570589
-0.0030723381787538
-0.0025945126544684
-0.002073100535199
-0.0015112729743123
-0.0009148158133029
-0.0002882613916881
0.0003570137778297
0.0009985417127609
0.0016098050400614
0.0021676570177078
0.0026569396723061
0.0030732750892639
0.0034216376952826
0.0037122797220945
0.0039578760042786
0.0041717234998941
0.0043668327853083
0.0045570218935608
0.0047572921030223
0.0049845753237605
0.0052588079124689
0.0055937408469617
0.0059805591590702
0.0063848095014691
0.0067586945369839
0.0070505770854651
0.0072066271677613
0.0071736336685717
0.0069049899466335
0.0063684247434139
0.0055562607012689
0.0044922274537384
0.0032282737083733
0.0018360615940764
0.0003988522512372
-0.000995377311483
-0.0022596165072172
-0.0033193686977028
-0.0041333292610943
-0.0047061056829988
-0.0050767296925187
-0.0052933651022613
-0.0053955041803419
-0.0054084584116935
-0.0053439121693372
-0.0052046091295778
-0.0049921199679374
-0.0047114985063672
-0.0043698973022401
-0.0039759064093232
-0.0035427655093371
-0.0030862735584378
-0.0026136557571589
-0.0021206522360444
-0.001604825258255
-0.0010743299499154
-0.0005433321930468
-2.642720937728882e-05
0.0004641087725758
0.000919462647289
0.0013327904744073
0.0017002517124637
0.002026749541983
0.0023268007207661
0.0026172148063778
0.0029112827032804
0.0032183469738811
0.0035456418991088
0.0039015053771436
0.0042919344268739
0.0047080293297767
0.0051227966323494
0.0055031669326126
0.0058211171999573
0.0060564782470464
0.0061955377459526
0.0062314257957041
0.0061685927212238
0.006026173941791
0.0058357948437333
0.0056335069239139
0.0054489457979798
0.0052998615428805
0.005195737350732
0.0051432256586849
0.0051429960876703
0.0051771639846265
0.0051989462226629
0.0051346365362405
0.0048975190147757
0.0044081304222345
0.0036149835214018
0.0025084903463721
0.0011229157680645
-0.0004693884402513
-0.0021676735486835
-0.0038587567396461
-0.0054337596520781
-0.0067997304722666
-0.007888151332736
-0.0086582237854599
-0.0090983556583523
-0.0092313354834914
-0.0091126412153244
-0.0088169844821095
-0.0084221344441175
-0.007994838990271
-0.0075824125669896
-0.0072113666683435
-0.0068872454576194
-0.006596440449357
-0.0063154958188533
-0.0060216072015464
-0.0056964382529258
-0.0053254729136824
-0.004894136916846
-0.0043827705085277
-0.0037728773895651
-0.0030659036710858
-0.0022924079094082
-0.0015005767345428
-0.0007381227333098
-4.0144193917512894e-05
0.0005746120586991
0.0010996863711625
0.0015348681481555
0.0018851530039682
0.0021631747949868
0.0023889606818556
0.0025867456570267
0.0027825627475976
0.003003675956279
0.0032782980706542
0.0036290085408836
0.0040588267147541
0.0045432923361659
0.0050369235686957
0.0054883183911442
0.0058542247861623
0.0061074821278452
0.0062398896552622
0.0062606278806924
0.0061899730935692
0.006052877753973
0.005876219831407
0.0056857820600271
0.0055020516738295
0.0053413044661283
0.0052201757207512
0.0051495642401278
0.0051135746762156
0.0050550624728202
0.0048865620046854
0.0045165526680648
0.0038749724626541
0.0029321394395083
0.0017064535059034
0.0002593564277049
-0.001317782443948
-0.0029189561028033
-0.0044382940977811
-0.0057855448685586
-0.0068989479914307
-0.007746088784188
-0.0083120493218302
-0.0085931587964296
-0.0086070522665977
-0.0083987209945917
-0.0080285565927624
-0.0075567550957202
-0.0070358160883188
-0.0065081249922513
-0.0060047982260584
-0.0055458834394812
-0.0051404275000095
-0.004784922581166
-0.0044637112878263
-0.0041531762108206
-0.0038264414761215
-0.0034540966153144
-0.0030030813068151
-0.0024471518117934
-0.0017879228107631
-0.0010627512820065
-0.0003302693367004
0.0003527435474097
0.0009487164206802
0.001444571185857
0.0018470934592187
0.0021735425107181
0.0024420884437859
0.0026681704912334
0.0028670825995504
0.0030554574914276
0.0032494287006556
0.0034638764336705
0.0037143165245652
0.0040138214826583
0.0043614469468593
0.0047361557371914
0.0051044705323874
0.0054319510236382
0.0056917131878435
0.0058718025684356
0.0059782718308269
0.006028841715306
0.0060432720929384
0.0060386396944522
0.0060263630002737
0.0060058049857616
0.0059571117162704
0.0058417483232915
0.0056150704622268
0.0052389022894203
0.0046817669644951
0.0039157243445515
0.0029236548580229
0.0017142003634944
0.0003304422134533
-0.0011536560487002
-0.0026450282894074
-0.0040481598116457
-0.0052823293954133
-0.006293021608144
-0.007054345216602
-0.0075644943863153
-0.0078380247578024
-0.0078947190195322
-0.0077487863600254
-0.0074130878783762
-0.0069169988855719
-0.0063138203695416
-0.0056691132485866
-0.0050434675067663
-0.0044820075854659
-0.0040113688446581
-0.0036386889405548
-0.003352181520313
-0.0031247974839061
-0.0029203998856246
-0.0027028219774365
-0.0024432241916656
-0.0021199285984039
-0.0017135264351963
-0.0012045013718307
-0.0005808817222714
0.0001475466415286
0.000944351311773
0.0017556315287947
0.0025250981561839
0.0032064351253211
0.0037695206701755
0.0042046150192618
0.004523801151663
0.0047535747289657
0.0049227406270802
0.005056545138359
0.0051775625906884
0.0053043556399643
0.0054485038854181
0.0056190080940723
0.0058260150253772
0.0060706250369548
0.0063350177370011
0.0065891346894204
0.0068038441240787
0.0069577489048242
0.0070378347299993
0.0070401239208877
0.0069720628671348
0.0068491771817207
0.0066816480830311
0.006459436379373
0.0061482219025492
0.0056991945020854
0.0050686569884419
0.0042370301671326
0.0032110556494444
0.0020113803911954
0.0006655674660578
-0.0007888617692515
-0.0023033677134662
-0.0038246037438511
-0.0053013372235
-0.0066866651177406
-0.0079375430941581
-0.0090153645724058
-0.009889081120491
-0.0105380304157733
-0.0109518580138683
-0.0111318221315741
-0.0110922576859593
-0.0108547257259488
-0.010444089770317
-0.0098961740732193
-0.0092615932226181
-0.0085944989696145
-0.0079383328557014
-0.007320306263864
-0.0067530907690525
-0.0062373029068112
-0.0057615977711975
-0.005303656682372
-0.0048351874575018
-0.0043272292241454
-0.0037547401152551
-0.0031030238606035
-0.0023695668205618
-0.0015565007925033
-0.0006682844832539
0.0002767425030469
0.0012394667137414
0.0021691366564482
0.0030189680401235
0.0037588202394545
0.0043792170472443
0.0048870332539081
0.0052992687560617
0.0056376387365162
0.0059243463911116
0.0061804866418242
0.0064252731390297
0.006674398202449
0.0069414959289133
0.0072430442087352
0.0075949924066662
0.0079969223588705
0.0084221586585044
0.0088260238990187
0.0091607514768838
0.0093856155872344
0.0094739021733403
0.0094201695173978
0.0092415753751993
0.0089644622057676
0.0086036166176199
0.0081506948918104
0.0075758816674351
0.0068379109725356
0.0059009380638599
0.0047549037262797
0.0034234153572469
0.0019495907472446
0.0003779940889216
-0.0012493727263063
-0.0028889719396829
-0.0044958819635212
-0.0060300296172499
-0.0074594994075596
-0.0087560713291168
-0.0098908469080924
-0.0108356922864913
-0.0115682361647486
-0.0120764439925551
-0.0123598044738173
-0.0124269425868988
-0.0122899590060114
-0.0119630936533212
-0.0114728296175599
-0.0108647476881742
-0.0101945418864488
-0.009513578377664
-0.0088591603562235
-0.0082493247464299
-0.0076808962039649
-0.0071329907514154
-0.0065765725448727
-0.0059830229729413
-0.0053276638500392
-0.0045937350951135
-0.0037768185138702
-0.0028802128508687
-0.0019029979594051
-0.000840846914798
0.0002957596443593
0.0014702198095619
0.0026288209483027
0.0037172748707234
0.0046920524910092
0.0055259750224649
0.0062113008461892
0.0067604198120534
0.0072011798620224
0.0075674750842154
0.0078918933868408
0.0082035912200808
0.0085273515433073
0.008882163092494
0.0092808110639452
0.0097263772040605
0.0102051049470901
0.0106859263032674
0.011129087768495
0.0114959646016359
0.0117560289800167
0.0118906162679195
0.0118944542482495
0.0117740463465452
0.0115422746166586
0.0112131666392087
0.0107964724302291
0.010287994518876
0.0096605671569705
0.0088695660233497
0.0078753633424639
0.006660355720669
0.0052252407185733
0.003580501768738
0.0017483092378824
-0.0002311916323378
-0.0022983977105468
-0.0043796505779027
-0.0063978978432714
-0.0082840230315923
-0.0099832853302359
-0.0114555461332201
-0.0126727763563394
-0.0136174140498042
-0.0142834605649113
-0.0146781178191304
-0.0148172779008746
-0.0147211346775293
-0.0144212404265999
-0.0139662353321909
-0.0134131209924817
-0.0128149585798382
-0.0122137200087308
-0.0116338590160012
-0.0110774189233779
-0.0105263777077198
-0.0099499877542257
-0.009315020404756
-0.0085989758372306
-0.0077978228218853
-0.0069215819239616
-0.0059815812855958
-0.0049798442050814
-0.0039140959270298
-0.0027944478206336
-0.001649054698646
-0.0005151466466486
0.0005706930533051
0.0015808916650712
0.0025038749445229
0.0033429192844778
0.0041084834374487
0.0048118815757334
0.0054628760553896
0.0060708615928888
0.0066478378139436
0.0072080790996551
0.0077657364308834
0.0083385854959487
0.0089481472969055
0.0096023082733154
0.0102791432291269
0.0109329465776681
0.0115132573992013
0.0119802448898553
0.0123121384531259
0.0125058442354202
0.0125702396035194
0.0125159826129674
0.0123463496565818
0.0120486933737993
0.0115903904661536
0.0109248561784625
0.0100078750401735
0.0088168419897556
0.0073567740619182
0.0056504635140299
0.0037304393481463
0.0016406350769102
-0.000560040527489
-0.0027984068728983
-0.0049936338327825
-0.0070675946772098
-0.0089528420940041
-0.0105963861569762
-0.0119609236717224
-0.0130224097520113
-0.0137675674632191
-0.0141965476796031
-0.014323391020298
-0.014168320223689
-0.0137555543333292
-0.0131249735131859
-0.0123384343460202
-0.0114673115313053
-0.0105747515335679
-0.0097055044025182
-0.0088833309710025
-0.0081135528162121
-0.0073878299444913
-0.0066883428953588
-0.0059917252510786
-0.0052737542428076
-0.0045136930420994
-0.0036976933479309
-0.0028178212232887
-0.0018637594766914
-0.0008222316391766
0.0003048982471227
0.0014869146980345
0.0026727870572358
0.0038078979123383
0.0048469947651028
0.0057636881247162
0.0065536866895854
0.0072310250252485
0.007822130806744
0.0083598904311656
0.0088774468749761
0.0094016147777438
0.0099472384899854
0.0105184493586421
0.0111169498413801
0.0117418300360441
0.0123764807358384
0.012984924018383
0.0135259302332997
0.0139649342745542
0.0142751727253198
0.0144379436969757
0.0144456094130873
0.0143044618889689
0.0140350759029388
0.0136655075475573
0.0132172750309109
0.0126924589276313
0.0120689012110233
0.0113043840974569
0.0103453267365694
0.0091302525252103
0.0075884824618697
0.005651191342622
0.0032776007428765
0.0004765531048178
-0.0026878109201788
-0.0061030206270515
-0.009625063277781
-0.013101995922625
-0.0163962822407484
-0.0193985756486654
-0.0220323335379362
-0.0242508705705404
-0.0260314662009477
-0.0273713115602731
-0.0282819774001836
-0.0287855695933103
-0.0289206244051456
-0.0287490338087081
-0.0283536687493324
-0.027832044288516
-0.02729257568717
-0.0268487557768821
-0.0266056507825851
-0.0266423858702182
-0.0269936919212341
-0.0276335906237363
-0.0284713432192802
-0.0293629057705402
-0.0301308259367942
-0.030586440116167
-0.0305531583726406
-0.0298943668603897
-0.0285419002175331
-0.0265113431960344
-0.0238988529890775
-0.0208632834255695
-0.0175995342433452
-0.01431106030941
-0.0111878421157598
-0.0083926413208246
-0.0060528330504894
-0.0042503122240304
-0.0030035115778446
-0.0022455174475908
-0.0018141008913516
-0.0014632828533649
-0.0008959285914897
0.0001790113747119
0.0019793286919593
0.0046111419796943
0.0080718602985143
0.01227399520576
0.0170718654990196
0.0222863052040338
0.0277271792292594
0.0332087986171245
0.0385557636618614
0.043607722967863
0.0482298359274864
0.0523249059915542
0.0558414682745933
0.0587794184684753
0.0611923038959503
0.0631730630993843
0.0648220777511596
0.0662201568484306
0.0674184039235115
0.0684366300702095
0.0692632272839546
0.0698540061712265
0.0701334401965141
0.0700034797191619
0.0693583488464355
0.0681030973792076
0.0661735832691192
0.0635509118437767
0.0602659545838832
0.0563990995287895
0.0520798489451408
0.0474744141101837
0.04275618866086
0.0380810126662254
0.0335819944739341
0.0293749570846557
0.0255618393421173
0.0222287252545356
0.0194423664361238
0.0172455869615077
0.0156506355851888
0.0146315973252058
0.0141162648797035
0.0139809437096118
0.0140540301799774
0.0141370259225368
0.0140402913093566
0.0136075243353843
0.0127174742519855
0.0112841613590717
0.009268220514059
0.0066869892179965
0.0036122724413871
0.0001569613814353
-0.0035429149866104
-0.0073461569845676
-0.011122278869152
-0.0147639401257038
-0.0181957222521305
-0.0213764309883117
-0.024293877184391
-0.0269551463425159
-0.029374323785305
-0.0315677784383297
-0.0335637181997299
-0.0354080572724342
-0.0371543802320957
-0.0388501659035682
-0.0405285209417343
-0.0422045104205608
-0.0438745506107807
-0.0455171391367912
-0.0470959283411502
-0.0485677234828472
-0.0498931631445884
-0.0510434135794639
-0.0520007088780403
-0.0527556613087654
-0.0533039420843124
-0.053648367524147
-0.0538067817687988
-0.0538127794861793
-0.0537062808871269
-0.0535242930054664
-0.0532969534397125
-0.053051009774208
-0.0528220534324646
-0.0526709929108619
-0.0526923276484012
-0.0530019775032997
-0.053709227591753
-0.0548882558941841
-0.0565574467182159
-0.0586663223803043
-0.0610914789140224
-0.0636537969112396
-0.066158577799797
-0.0684317424893379
-0.0703338831663131
-0.0717614516615867
-0.072646789252758
-0.072956696152687
-0.0726841688156127
-0.0718351304531097
-0.0704200193285942
-0.0684549883008003
-0.0659669861197471
-0.0629958361387252
-0.0595922395586967
-0.0558112785220146
-0.0517030470073223
-0.0473130159080028
-0.0426963791251182
-0.037926472723484
-0.0330840721726417
-0.0282390564680099
-0.0234395377337932
-0.0187123231589794
-0.0140667650848627
-0.009495124220848
-0.0049758478999137
-0.0004855543375015
0.0039884839206933
0.008444583043456
0.0128694903105497
0.0172448884695768
0.0215576011687517
0.025801220908761
0.0299598891288042
0.0339926108717918
0.0378373190760612
0.0414308011531829
0.0447308383882045
0.0477315485477447
0.0504717156291008
0.0530350990593433
0.0555350072681903
0.0580843016505241
0.0607682131230831
0.0636316388845443
0.0666741877794265
0.0698457136750221
0.07304397970438
0.0761133953928947
0.0788470730185508
0.0810069218277931
0.0823645889759063
0.0827429592609405
0.0820429325103759
0.0802556648850441
0.0774617195129394
0.0738164484500885
0.069526307284832
0.0648238733410835
0.0599432364106178
0.0550948120653629
0.0504421629011631
0.0460831895470619
0.0420374982059001
0.0382430218160152
0.0345684550702571
0.0308490954339504
0.0269375741481781
0.0227478798478841
0.0182820297777652
0.0136367166414856
0.0089831463992595
0.00452521443367
0.0004575066268444
-0.0030636079609394
-0.0059361327439546
-0.00811761431396
-0.0096196252852678
-0.0104888062924146
-0.0107804536819458
-0.0105477254837751
-0.0098521467298269
-0.0087729208171367
-0.0074046906083822
-0.0058493465185165
-0.0042047463357448
-0.0025554876774549
-0.0009690355509519
0.0005064141005277
0.0018441779538989
0.0030388906598091
0.0041019236668944
0.0050552189350128
0.005927950143814
0.0067572416737675
0.007588880136609
0.0084661543369293
0.0094065591692924
0.0103902593255043
0.0113723641261458
0.0123029667884111
0.0131396856158971
0.0138519033789634
0.0144228572025895
0.0148513680323958
0.0151482466608285
0.0153285898268222
0.0154075194150209
0.0153991049155592
0.0153149757534265
0.0151664856821298
0.0149698192253708
0.0147422533482313
