bvp
0.0250005386769771
0.0336139574646949
0.0415218472480773
0.0485463663935661
0.0546462647616863
0.0599202401936054
0.0645886957645416
0.0689545050263404
0.0733338445425033
0.0779749900102615
0.083005890250206
0.0884208679199218
0.0940900444984436
0.0997809469699859
0.105189561843872
0.1099812388420105
0.1138392984867096
0.1165094301104545
0.117826722562313
0.1177254915237426
0.1162404417991638
0.11349568516016
0.1096770837903022
0.1050005257129669
0.0996829271316528
0.0939095392823219
0.0878084525465965
0.0814485028386116
0.0748520269989967
0.0680072531104087
0.0608815215528011
0.05344158411026
0.0456740334630012
0.0375975966453552
0.0292693339288234
0.020784568041563
0.0122682675719261
0.0038614459335803
-0.0042944140732288
-0.012077473104
-0.0194184407591819
-0.0263390764594078
-0.0329625159502029
-0.039477601647377
-0.0460764914751052
-0.052895113825798
-0.0599782988429069
-0.0672748535871505
-0.0746501833200454
-0.081907033920288
-0.0888162702322006
-0.0951528847217559
-0.1007256358861923
-0.105397343635559
-0.1090910732746124
-0.1117773503065109
-0.1134585887193679
-0.1141673699021339
-0.1139689832925796
-0.1129573285579681
-0.1112460047006607
-0.1089550778269767
-0.1061942726373672
-0.1030482426285743
-0.099570021033287
-0.0957852229475975
-0.0917029678821563
-0.0873267725110054
-0.0826615691184997
-0.0777163952589035
-0.072503000497818
-0.0670351535081863
-0.06133683770895
-0.0554554238915443
-0.0494638383388519
-0.043449766933918
-0.0375045575201511
-0.0317165590822696
-0.0261642131954431
-0.0209067054092884
-0.0159781947731971
-0.0113895470276474
-0.0071325334720313
-0.003183394903317
0.000491299200803
0.0039257612079381
0.0071504553779959
0.0101964520290493
0.0130943795666098
0.0158603712916374
0.0184884723275899
0.0209594517946243
0.0232535563409328
0.0253573730587959
0.027262445539236
0.0289603024721145
0.0304407645016908
0.0316933840513229
0.0327102616429328
0.0334884822368621
0.0340291261672973
0.0343321189284324
0.0343902632594108
0.0341858640313148
0.033686239272356
0.0328380987048149
0.0315744280815124
0.0298373829573392
0.0276043452322483
0.0249058008193969
0.0218263156712055
0.0184871591627597
0.0150218931958079
0.0115564623847603
0.0081983283162117
0.0050354935228824
0.0021417438983917
-0.0004190057516098
-0.002591086551547
-0.0043246932327747
-0.0055771134793758
-0.006325202062726
-0.0065796170383691
-0.0063854269683361
-0.005810672417283
-0.0049338042736053
-0.003834843635559
-0.0025895833969116
-0.0012658089399337
8.112937211990356e-05
0.0014148354530334
0.0027221515774726
0.0040110275149345
0.0053046718239784
0.0066388994455337
0.0080596785992383
0.0096093472093343
0.0113070085644721
0.0131403990089893
0.0150713436305522
0.0170461181551218
0.0190066173672676
0.0209024008363485
0.0227007865905761
0.0243891663849353
0.0259694457054138
0.0274517983198165
0.0288523957133293
0.0301920585334301
0.0314912050962448
0.0327663198113441
0.0340347923338413
0.0353155732154846
0.0366133861243724
0.0379032380878925
0.0391340218484401
0.0402450114488601
0.0411806628108024
0.0418996065855026
0.0423804372549057
0.0426227338612079
0.0426376909017562
0.0424280539155006
0.0419661924242973
0.0411816835403442
0.0399666167795658
0.0382034331560134
0.0358069464564323
0.032752975821495
0.029077410697937
0.0248613357543945
0.020220149308443
0.0152962738648056
0.0102473255246877
0.0052272644825279
0.0003678716020658
-0.0042289583943784
-0.0084862411022186
-0.0123427277430891
-0.0157465022057294
-0.0186525303870439
-0.0210246089845895
-0.0228389762341976
-0.0240845065563917
-0.0247659347951412
-0.0249169487506151
-0.0246074441820383
-0.023930687457323
-0.0229807943105697
-0.0218350086361169
-0.0205469951033592
-0.0191519726067781
-0.017675943672657
-0.0161402113735675
-0.0145611567422747
-0.0129498988389968
-0.0113154016435146
-0.0096697844564914
-0.0080290082842111
-0.0064072157256305
-0.0048171961680054
-0.0032818396575748
-0.0018394063226878
-0.0005358848720788
0.0005854303017258
0.0014939475804567
0.0021796151995658
0.0026537161320447
0.0029448559507727
0.0030947402119636
0.0031521553173661
0.003163993358612
0.0031657824292778
0.0031756265088915
0.0031986851245164
0.0032396800816059
0.0033047012984752
0.0033873710781335
0.0034599713981151
0.0034828148782253
0.0034219752997159
0.0032605230808258
0.002998799085617
0.0026497393846511
0.0022363997995853
0.0017887726426124
0.0013319496065378
0.000866999849677
0.0003534015268087
-0.0002974234521389
-0.001206113025546
-0.0024864971637725
-0.0042095277458429
-0.0063931997865438
-0.0090074315667152
-0.0119749084115028
-0.0151718128472566
-0.0184424649924039
-0.0216250084340572
-0.0245730280876159
-0.0271701924502849
-0.0293391235172748
-0.0310380794107913
-0.0322487875819206
-0.0329687967896461
-0.0332117415964603
-0.0330068841576576
-0.0323927849531173
-0.0314135290682315
-0.0301246549934148
-0.0285999570041894
-0.0269272867590188
-0.0251939594745636
-0.0234711375087499
-0.0218028854578733
-0.0202021393924951
-0.0186559725552797
-0.0171368345618248
-0.0156122492626309
-0.0140493875369429
-0.0124179711565375
-0.0106953848153352
-0.0088699143379926
-0.0069391187280416
-0.0049124942161142
-0.0028233947232365
-0.0007344037294387
0.001278756186366
0.0031527811661362
0.0048504257574677
0.0063587743788957
0.0076816007494926
0.0088325375691056
0.0098287714645266
0.0106873884797096
0.0114266816526651
0.012066900730133
0.0126301888376474
0.0131435543298721
0.0136410966515541
0.0141566507518291
0.0147069301456213
0.015281680971384
0.0158497206866741
0.0163708440959453
0.0168053321540355
0.0171217583119869
0.0172995515167713
0.0173183698207139
0.0171408653259277
0.0167053192853927
0.0159337073564529
0.0147500233724713
0.013100542128086
0.0109725855290889
0.0084119541570544
0.0055258022621273
0.0024598529562354
-0.0006339792162179
-0.0036193169653415
-0.0063851010054349
-0.00884953700006
-0.010961347259581
-0.012697335332632
-0.0140538578853011
-0.0150362560525536
-0.0156549271196126
-0.0159292183816432
-0.0158901028335094
-0.0155759435147047
-0.0150254983454942
-0.0142715675756335
-0.0133421160280704
-0.0122744180262088
-0.0111242309212684
-0.0099533628672361
-0.0088097630068659
-0.0077185397967696
-0.0066845193505287
-0.0056986417621374
-0.0047427704557776
-0.003793521085754
-0.002827700227499
-0.0018282023956999
-0.0007876616436988
0.0002919591497629
0.0014056309591978
0.0025527428369969
0.0037336035165935
0.0049361619167029
0.006130420602858
0.0072749680839478
0.0083260163664817
0.0092473737895488
0.0100206742063164
0.0106483865529298
0.011150075122714
0.0115579375997185
0.0119103360921144
0.012243278324604
0.012584731914103
0.0129501121118664
0.0133396591991186
0.0137455947697162
0.0141599550843238
0.0145687498152256
0.0149434776976704
0.0152422441169619
0.0154132237657904
0.0153939016163349
0.0151079036295413
0.014467479661107
0.0133910793811082
0.0118301883339881
0.009787636809051
0.0073217647150158
0.0045428778976202
0.0016016457229852
-0.0013310927897691
-0.0040861112065613
-0.0065193548798561
-0.0085370913147926
-0.0101089151576161
-0.0112600661814212
-0.0120488414540886
-0.0125402342528104
-0.0127886068075895
-0.0128357205539941
-0.0127156479284167
-0.0124553991481661
-0.0120729617774486
-0.0115790413692593
-0.0109817637130618
-0.0102903749793767
-0.0095136612653732
-0.0086537059396505
-0.0077073592692613
-0.0066799232736229
-0.0055939885787665
-0.0044829007238149
-0.0033792303875088
-0.002308533526957
-0.00128855695948
-0.0003303531557321
0.0005614007823169
0.0013891537673771
0.002162103774026
0.0028915861621499
0.0035849558189511
0.0042442898266017
0.0048717493191361
0.0054783234372735
0.0060822698287665
0.0066918157972395
0.0072931433096528
0.0078577324748039
0.0083578024059534
0.0087759941816329
0.0091068530455231
0.0093550011515617
0.0095315240323543
0.0096475966274738
0.0097104329615831
0.0097247306257486
0.0096942838281393
0.0096188420429825
0.0094879232347011
0.0092767998576164
0.0089416773989796
0.0084121963009238
0.0075975712388753
0.0064143240451812
0.004817247390747
0.0028152903541922
0.0004725363105535
-0.0020993510261178
-0.0047563523985445
-0.0073436493985354
-0.0097174998372793
-0.0117612006142735
-0.013393678702414
-0.014573567546904
-0.0152971679344773
-0.0155881233513355
-0.0154883619397878
-0.0150576708838343
-0.0143740316852927
-0.0135273784399032
-0.0126071153208613
-0.011687328107655
-0.0108174588531255
-0.0100214509293437
-0.0093014184385538
-0.0086439698934555
-0.0080271121114492
-0.0074241096153855
-0.0068060853518545
-0.0061460407450795
-0.0054204920306801
-0.0046066297218203
-0.0036834683269262
-0.0026440757792443
-0.0015091546811163
-0.0003275712952017
0.0008359105559065
0.0019171020248904
0.0028665247373282
0.0036573163233697
0.0042876731604337
0.0047781383618712
0.005162542220205
0.005478186532855
0.0057600447908043
0.0060364045202732
0.0063283806666731
0.0066560758277773
0.0070377294905483
0.0074745379388332
0.0079410029575228
0.008393820375204
0.0087872417643666
0.0090837189927697
0.0092597836628556
0.009309047833085
0.0092418156564235
0.0090803615748882
0.008851571008563
0.0085809081792831
0.0082901054993271
0.0079967761412262
0.0077165849506855
0.0074687283486127
0.0072691985405981
0.0071026468649506
0.006899569183588
0.0065450523979961
0.0059101493097841
0.004885428585112
0.0034082643687725
0.0014806999824941
-0.0008267406374216
-0.0033865650184452
-0.0060363630764186
-0.0086045432835817
-0.0109356548637151
-0.0129104880616068
-0.0144518353044986
-0.0155173428356647
-0.0160974450409412
-0.0162239391356706
-0.0159711297601461
-0.015438724309206
-0.0147285833954811
-0.0139310918748378
-0.0131209101527929
-0.0123526332899928
-0.0116559248417615
-0.0110346795991063
-0.0104716066271066
-0.0099381702020764
-0.009402641095221
-0.0088304746896028
-0.0081830769777297
-0.0074186874553561
-0.0065010022372007
-0.0054197655990719
-0.0042029730975627
-0.0029053681064397
-0.0015895597171038
-0.0003139697946608
0.000874931924045
0.0019484055228531
0.0028988057747483
0.0037396249826997
0.0044982000254094
0.0052028289064764
0.0058744149282574
0.006524670869112
0.0071584861725568
0.0077814571559429
0.0084035964682698
0.0090316105633974
0.0096598416566848
0.0102690029889345
0.0108317341655492
0.0113221146166324
0.0117225218564271
0.0120240859687328
0.0122264549136161
0.0123392008244991
0.012379515916109
0.0123656243085861
0.0123109240084886
0.0122175589203834
0.0120677379891276
0.0118207558989524
0.0114157097414135
0.0107725048437714
0.0098020015284419
0.0084341987967491
0.006647550035268
0.004483382217586
0.0020450178999453
-0.0005170283839106
-0.0030311977025121
-0.0053341607563197
-0.0072952858172357
-0.0088317664340138
-0.0099117513746023
-0.0105459168553352
-0.0107720950618386
-0.0106402477249503
-0.0102076129987835
-0.0095456857234239
-0.0087434072047472
-0.0078966822475194
-0.0070927231572568
-0.0063956705853343
-0.0058345817960798
-0.0054005291312932
-0.0050574955530464
-0.0047588674351572
-0.004458550363779
-0.0041168946772813
-0.0037046703509986
-0.0032044402323663
-0.0026093460619449
-0.0019185035489499
-0.0011360556818544
-0.0002816789783537
0.0006011477671563
0.0014527656603604
0.0022154801990836
0.0028516936581581
0.0033521454315632
0.0037303366698324
0.0040109623223543
0.0042227422818541
0.0043959524482488
0.0045589455403387
0.004735569935292
0.0049474630504846
0.0052159992046654
0.0055590290576219
0.0059834965504705
0.0064764926210045
0.0070021012797951
0.007509019691497
0.0079422546550631
0.0082532344385981
0.0084090968593955
0.0083999298512935
0.0082409102469682
0.0079663358628749
0.0076156966388225
0.0072167231701314
0.0067696408368647
0.0062362309545278
0.0055413199588656
0.0045889383181929
0.0032803500071167
0.0015274089528247
-0.0007294187089428
-0.0034980527125298
-0.0067191468551754
-0.0102667296305298
-0.0139650842174887
-0.0176157634705305
-0.0210269447416067
-0.0240365546196699
-0.0265224538743495
-0.0284025575965642
-0.0296346750110387
-0.0302144978195428
-0.0301639772951602
-0.0295190885663032
-0.0283308010548353
-0.0266747400164604
-0.0246533975005149
-0.0223821438848972
-0.0199668854475021
-0.0174877233803272
-0.014991944655776
-0.0124933756887912
-0.0099786110222339
-0.0074188346043229
-0.0047868322581052
-0.0020761918276548
0.0006889663636684
0.0034555150195956
0.006147788837552
0.0086806956678628
0.0109718423336744
0.0129429381340742
0.014522067271173
0.0156552959233522
0.0163168851286172
0.0165093019604682
0.0162578914314508
0.0156079325824975
0.0146253984421491
0.0133989974856376
0.0120400199666619
0.0106775863096117
0.0094480626285076
0.0084793558344244
0.0078759528696537
0.0077085793018341
0.00800122320652
0.0087130004540085
0.0097339367493987
0.0109098870307207
0.0120841292664408
0.0131321679800748
0.0139776160940527
0.0145908761769533
0.0149763748049736
0.0151540115475654
0.0151396747678518
0.0149277755990624
0.0144798681139945
0.0137211810797452
0.0125478580594062
0.0108534768223762
0.0085697565227746
0.0056992573663592
0.0023283576592803
-0.0013760598376393
-0.0051836436614394
-0.0088277012109756
-0.012031216174364
-0.0145214367657899
-0.0160307623445987
-0.0162862986326217
-0.0149981342256069
-0.0118686184287071
-0.0066354945302009
0.0008601546287536
0.0105971936136484
0.0223123636096715
0.0354779660701751
0.0493327416479587
0.0629699528217315
0.0754663348197937
0.0860124453902244
0.0940111503005027
0.0991340428590774
0.1013350784778595
0.1008227244019508
0.0980020761489868
0.0934045985341072
0.0876140892505645
0.081190176308155
0.0745940282940864
0.0681322440505027
0.0619361773133277
0.0559723265469074
0.0500713922083377
0.0439793579280376
0.0374288260936737
0.0302109234035015
0.0222284123301506
0.0135229714214801
0.0042769014835357
-0.005212727934122
-0.0145792923867702
-0.0234307199716568
-0.0313857942819595
-0.0381116345524787
-0.0433631613850593
-0.0470148511230945
-0.0490893721580505
-0.0497791767120361
-0.0494086742401123
-0.0483315028250217
-0.0468508526682853
-0.0452014058828353
-0.0435543768107891
-0.0420255661010742
-0.0406940095126628
-0.0396309457719326
-0.0389206819236278
-0.0386573709547519
-0.0389218777418136
-0.0397558249533176
-0.041157029569149
-0.0431103967130184
-0.0456378236413002
-0.048837911337614
-0.0528892949223518
-0.0579948388040065
-0.0642799064517021
-0.071694478392601
-0.0799570977687835
-0.0885570496320724
-0.0968188866972923
-0.1040140390396118
-0.1094900891184806
-0.1127800047397613
-0.1136559247970581
-0.1121196001768112
-0.1083540022373199
-0.1026656106114387
-0.0954301208257675
-0.08704774081707
-0.0779104977846145
-0.0683716833591461
-0.0587156563997268
-0.0491421297192573
-0.0397714227437973
-0.0306664258241653
-0.0218620225787162
-0.0133862281218171
-0.0052676238119602
0.0024560764431953
0.009719006717205
0.0164104308933019
0.0223790816962718
0.0274669956415891
0.0315615125000476
0.0346314683556556
0.0367255583405494
0.0379514619708061
0.0384556464850902
0.0383991487324237
0.037929106503725
0.037158478051424
0.0361601486802101
0.0349717549979686
0.0336044952273368
0.0320490971207618
0.0302774012088775
0.0282474234700202
0.0259190648794174
0.0232758373022079
0.020339585840702
0.0171658955514431
0.0138250645250082
0.0103916609659791
0.0069473930634558
0.0035816086456179
0.0003851251676678
-0.0025631366297602
-0.0052181128412485
-0.0075877700001001
-0.0097371973097324
-0.0117740146815776
-0.0138162579387426
-0.015952730551362
-0.0182128790766
-0.0205536819994449
-0.0228611584752798
-0.0249720402061939
-0.0267155803740024
-0.0279534272849559
-0.028601624071598
-0.0286377109587192
-0.0280965082347393
-0.0270578749477863
-0.0256287455558776
-0.0239171870052814
-0.0220026038587093
-0.0199134647846221
-0.0176230184733867
-0.0150657258927822
-0.0121643878519535
-0.0088535211980342
-0.0050947107374668
-0.0008934251964092
0.0036807246506214
0.0084910914301872
0.0133578553795814
0.0180924944579601
0.022528413683176
0.0265408530831336
0.0300536230206489
0.0330375246703624
0.0355069078505039
0.0375148653984069
0.0391432531177997
0.0404867455363273
0.0416364111006259
0.0426714345812797
0.0436599738895893
0.044654369354248
0.0456739291548728
0.0466944463551044
0.0476603582501411
0.04850984364748
0.0491939596831798
0.0496832467615604
0.0499667488038539
0.0500468835234642
0.049934446811676
0.0496486946940422
0.0492183603346347
0.0486781671643257
0.0480634458363056
0.0474105589091777
0.04676154255867
0.0461565032601356
0.0456121228635311
0.0451081730425357
0.0445919930934906
0.0439941063523292
0.0432463102042675
0.0422903597354888
0.0410724803805351
0.0395322889089584
0.0375951603055
0.0351758003234863
0.0321974717080593
0.0286187827587127
0.0244549065828323
0.0197896864265203
0.0147778913378715
0.0096261333674192
0.0045509859919548
-0.000258520245552
-0.0046542286872863
-0.0085295997560024
-0.0118197984993457
-0.0144975166767835
-0.0165652073919773
-0.018049007281661
-0.0189932808279991
-0.0194566361606121
-0.0195107012987136
-0.0192372035235166
-0.01872094348073
-0.0180392209440469
-0.0172509346157312
-0.016394056379795
-0.0154944397509098
-0.0145752653479576
-0.0136565472930669
-0.0127465259283781
-0.0118351373821496
-0.0108956024050712
-0.0098902788013219
-0.0087785050272941
-0.0075269294902682
-0.0061180293560028
-0.004553273320198
-0.0028504207730293
-0.001038683578372
0.0008455673232674
0.0027644867077469
0.0046804728917777
0.0065511590801179
0.0083272783085703
0.0099581247195601
0.0114007042720913
0.0126268388703465
0.0136245191097259
0.0143973641097545
0.0149645833298563
0.0153554314747452
0.015598808415234
0.0157165434211492
0.0157222338020801
0.0156239354982972
0.0154309133067727
0.0151594970375299
0.0148281082510948
0.0144437309354543
0.0139960125088691
0.0134646631777286
0.0128322802484035
0.0120951952412724
0.0112640243023633
0.0103476643562316
0.009328719228506
0.0081486515700817
0.006712257862091
0.0049064774066209
0.0026280228048563
-0.0001843031495809
-0.0035217683762311
-0.0072935186326503
-0.0113416723906993
-0.015480775386095
-0.0195342916995286
-0.0233520697802305
-0.026819285005331
-0.029861431568861
-0.0324392355978488
-0.0345370434224605
-0.0361535288393497
-0.0372978076338768
-0.0379886329174041
-0.0382542163133621
-0.0381338596343994
-0.0376784577965736
-0.0369431152939796
-0.0359772369265556
-0.0348261855542659
-0.0335421524941921
-0.0321855768561363
-0.030811533331871
-0.0294541213661432
-0.028120033442974
-0.0267925765365362
-0.0254425667226314
-0.0240381937474012
-0.0225494634360075
-0.0209526196122169
-0.0192340016365051
-0.017388105392456
-0.0154160838574171
-0.0133271813392639
-0.0111358426511287
-0.0088614923879504
-0.0065384861081838
-0.0042211385443806
-0.001974350772798
0.0001396425068378
0.0020717307925224
0.0037924498319625
0.0052920076996088
0.0065761506557464
0.0076617673039436
0.0085721733048558
0.0093322284519672
0.009965150617063
0.0104910898953676
0.010930074378848
0.0113094560801982
0.0116616301238536
0.0120073147118091
0.0123428683727979
0.012641254812479
0.0128586515784263
0.0129398237913846
0.0128183774650096
0.0124125219881534
0.0116260815411806
0.0103642214089632
0.0085616391152143
0.006209148094058
0.0033647045493125
0.0001459959894418
-0.0032856110483407
-0.0067403567954897
-0.010023639537394
-0.0129723660647869
-0.0154813341796398
-0.0175049845129251
-0.0190436840057373
-0.0201251506805419
-0.0207892246544361
-0.021081356331706
-0.0210518427193164
-0.0207538567483425
-0.020237598568201
-0.0195461325347423
-0.0187168084084987
-0.0177842900156974
-0.0167797040194273
-0.0157238747924566
-0.0146233905106782
-0.0134771037846803
-0.0122836790978908
-0.0110431220382452
-0.0097559392452239
-0.0084217842668294
-0.0070375939831137
-0.0055970628745853
-0.0040938858874142
-0.0025262203998863
-0.0008974471129477
0.000784367788583
0.0025052544660866
0.0042451755143702
0.005981074180454
0.0076939822174608
0.009371742606163
0.0109967589378356
0.0125344945117831
0.0139407739043235
0.0151764452457427
0.0162165854126214
0.017053859308362
0.0176959559321403
0.0181611720472574
0.0184759479016065
0.0186709240078926
0.0187742207199335
0.0188067946583032
0.0187824144959449
0.0187119618058204
0.0186114273965358
0.0185024943202734
0.018397532403469
0.018285883590579
0.0181380659341812
0.0179217718541622
0.0176174193620681
0.0172249637544155
0.0167563110589981
0.0162157379090785
0.0155788511037826
0.014781791716814
0.0137281753122806
0.012312619946897
0.0104522351175546
0.0081171756610274
0.0053488723933696
0.0022518094629049
-0.0010368237271904
-0.004376052878797
-0.007636752910912
-0.0107087194919586
-0.0135051440447568
-0.0159653238952159
-0.018052190542221
-0.0197457410395145
-0.0210381262004375
-0.0219332240521907
-0.0224479883909225
-0.0226102415472269
-0.0224537160247564
-0.0220124274492263
-0.0213148482143878
-0.0203869864344596
-0.0192657709121704
-0.01800456084311
-0.0166637413203716
-0.0152984820306301
-0.0139490207657217
-0.0126335714012384
-0.0113481534644961
-0.0100732427090406
-0.0087829269468784
-0.0074537536129355
-0.0060702869668602
-0.0046256338246166
-0.0031196693889796
-0.0015553177800029
6.676634075120091e-05
0.0017437220085412
0.0034542577341198
0.0051501579582691
0.0067647909745574
0.008228788152337
0.0094844372943043
0.0104970000684261
0.011262540705502
0.0118089420720934
0.0121870413422584
0.0124569963663816
0.0126774776726961
0.0128982886672019
0.0131553411483764
0.0134722851216793
0.0138683654367923
0.0143574969843029
0.0149342324584722
0.0155656281858682
0.0161978714168071
0.0167686063796281
0.0172186642885208
0.0175019707530736
0.0175930149853229
0.0174897946417331
0.0172099098563194
0.0167820453643798
0.0162362400442361
0.0155905513092875
0.0148341981694102
0.0139190396293997
0.0127710392698645
0.0113133992999792
0.0094840796664357
0.0072485245764255
0.0046157129108905
0.0016501117497682
-0.0015330482274293
-0.0047866846434772
-0.0079542202875018
-0.0108925271779298
-0.0134910997003316
-0.01567860879004
-0.0174190495163202
-0.0187061801552772
-0.0195581391453742
-0.0200090147554874
-0.0200980305671691
-0.0198663622140884
-0.0193663593381643
-0.0186680294573307
-0.0178494863212108
-0.0169802047312259
-0.0161113534122705
-0.0152752958238124
-0.0144891310483217
-0.0137579413130879
-0.0130765913054347
-0.0124302562326192
-0.0117945419624447
-0.0111385704949498
-0.0104320179671049
-0.0096494108438491
-0.0087675787508487
-0.0077684316784143
-0.0066537577658891
-0.0054524987936019
-0.0042098383419215
-0.0029734936542809
-0.0017864005640149
-0.0006808819016441
0.0003269508597441
0.0012384990695863
0.0020686809439212
0.0028386928606778
0.0035689380019903
0.0042760781943798
0.0049727316945791
0.0056683523580431
0.006373674608767
0.0070995022542774
0.0078440019860863
0.0085857175290584
0.0092905275523662
0.0099200494587421
0.0104375490918755
0.010816752910614
0.0110497642308473
0.0111465007066726
0.0111270546913146
0.0110143581405282
0.0108314538374543
0.0105985756963491
0.0103228958323597
0.0099862478673458
0.009543246589601
0.0089285243302583
0.0080650160089135
0.0068778488785028
0.0053177215158939
0.0033834208734333
0.0011309764813631
-0.0013330555520951
-0.0038691782392561
-0.0063283373601734
-0.0085749514400959
-0.0105037130415439
-0.0120493397116661
-0.0131886694580316
-0.013933022506535
-0.0143113154917955
-0.0143518894910812
-0.0140802673995494
-0.0135356243699789
-0.0127820977941155
-0.0118998317047953
-0.0109674204140901
-0.0100504960864782
-0.0091973319649696
-0.0084348646923899
-0.0077642193064093
-0.0071608959697186
-0.0065815751440823
-0.0059751691296696
-0.0052960044704377
-0.0045144483447074
-0.003617466893047
-0.0026005269028246
-0.0014664139598608
-0.0002365903928875
0.0010439036414027
0.0023173880763351
0.0035282121971249
0.0046331714838743
0.0056060273200273
0.0064370073378086
0.007132145576179
0.0077119474299252
0.0082061141729354
0.0086479187011718
0.0090704457834362
0.0095013622194528
0.0099596800282597
0.01045957300812
0.0110113229602575
0.0116123501211404
0.0122410282492637
0.0128617286682128
0.0134340263903141
0.0139211062341928
0.0142990332096815
0.0145629690960049
0.0147231724113225
0.0147956069558858
0.0147969890385866
0.0147436782717704
0.0146493054926395
0.0145218893885612
0.0143663380295038
0.0141916004940867
0.0140074081718921
0.0138025656342506
0.0135249849408864
0.013085295446217
0.0123795447871088
0.0113161783665418
0.0098380483686923
0.0079362075775861
0.0056549897417426
0.0030873869545757
0.0003622134681791
-0.0023740141186863
-0.004978050943464
-0.0073288148269057
-0.0093383956700563
-0.0109546761959791
-0.0121625456959009
-0.0129863321781158
-0.0134850945323705
-0.0137361492961645
-0.013814459554851
-0.0137796122580766
-0.0136732095852494
-0.0135189518332481
-0.0133225582540035
-0.0130770467221736
-0.0127726672217249
-0.0124034490436315
-0.0119663225486874
-0.0114564457908272
-0.0108642615377902
-0.0101745054125785
-0.0093704089522361
-0.008448276668787
-0.007428825367242
-0.0063501144759356
-0.0052516250871121
-0.0041647213511168
-0.0031118828337639
-0.0021089774090796
-0.0011666207574307
-0.0002919015241786
0.0005108290934003
0.0012427500914782
0.0019135831389576
0.0025413269177079
0.0031513138674199
0.003776212921366
0.0044491309672594
0.005184955894947
0.0059658577665686
0.0067475917749106
0.0074784266762435
0.0081145083531737
0.0086264032870531
0.0089992322027683
0.0092306295409798
0.00932830106467
0.009308198466897
0.0091948006302118
0.0090207150205969
0.0088207842782139
0.0086248777806758
0.0084575768560171
0.0083347652107477
0.0082451738417148
0.0081337271258234
0.0079049207270145
0.0074418783187866
0.0066343317739665
0.0054106768220663
0.0037604770623147
0.0017369668930768
-0.0005551250651478
-0.0029785530641674
-0.0053866333328187
-0.0076459995470941
-0.0096535179764032
-0.0113430926576256
-0.0126818669959902
-0.0136641319841146
-0.0143090523779392
-0.0146568715572357
-0.0147612728178501
-0.0146822640672326
-0.0144790913909673
-0.0142015432938933
-0.0138832721859216
-0.0135402902960777
-0.0131734665483236
-0.0127715161070227
-0.0123135671019554
-0.0117750354111194
-0.011136507615447
-0.0103866728022694
-0.0095164515078067
-0.0085170501843094
-0.0073900232091546
-0.0061575546860694
-0.0048604193143546
-0.003546746680513
-0.0022612905595451
-0.0010401054751127
9.168987162411212e-05
0.0011228764196857
0.0020562154240906
0.0029028409626334
0.0036775371991097
0.0043968027457594
0.0050751324743032
0.0057234200648963
0.0063542174175381
0.0069818524643778
0.0076091727241873
0.0082192290574312
0.008784731850028
0.0092813074588775
0.0096925310790538
0.0100112427026033
0.0102403797209262
0.0103888399899005
0.0104654729366302
0.0104789258912205
0.0104408496990799
0.0103662479668855
0.0102709690108895
0.0101708257570862
0.0100838309153914
0.0100263589993119
0.0099955722689628
0.0099493488669395
0.0098004760220646
0.0094322646036744
0.0087305130437016
0.0076144626364111
0.0060542146675288
0.0040766131132841
0.0017628127243369
-0.0007639927789568
-0.0033598493319004
-0.0058834524825215
-0.008212218992412
-0.0102461390197277
-0.0119066536426544
-0.0131444297730922
-0.0139519041404128
-0.0143624506890773
-0.014437960460782
-0.01425645314157
-0.0138987703248858
-0.0134349390864372
-0.0129171023145318
-0.0123816728591918
-0.0118546262383461
-0.0113506335765123
-0.0108678247779607
-0.0103884199634194
-0.009886716492474
-0.0093342252075672
-0.008697198703885
-0.0079402420669794
-0.0070431493222713
-0.0060125365853309
-0.0048759835772216
-0.0036706374958157
-0.0024369698949158
-0.0012149452231824
-3.9085280150175095e-05
0.0010671294294297
0.0020950324833393
0.0030502064619213
0.0039496272802352
0.0048185032792389
0.0056842253543436
0.0065702083520591
0.0074938982725143
0.0084609584882855
0.0094535620883107
0.0104282423853874
0.0113294348120689
0.0121064083650708
0.0127229690551757
0.0131605453789234
0.0134196132421493
0.0135203320533037
0.0134988324716687
0.0133977122604846
0.0132556110620498
0.0131025295704603
0.0129603669047355
0.0128448801115155
0.0127692660316824
0.0127435103058815
0.0127641577273607
0.0128068244084715
0.012830976396799
0.0127878347411751
0.0126234106719493
0.0122781097888946
0.0116850454360246
0.0107710845768451
0.0094674890860915
0.0077303638681769
0.0055613215081393
0.003016298636794
0.0001971875317394
-0.0027647679671645
-0.0057241185568273
-0.0085406294092535
-0.0111036784946918
-0.0133464932441711
-0.0152432676404714
-0.0167958606034517
-0.0180194973945617
-0.0189347509294748
-0.0195655021816492
-0.0199380386620759
-0.0200789179652929
-0.0200120918452739
-0.0197594948112964
-0.0193457510322332
-0.0187992844730615
-0.0181457158178091
-0.0173980146646499
-0.0165557786822319
-0.0156199187040328
-0.0146048720926046
-0.0135335847735404
-0.0124262077733874
-0.0112945633009076
-0.010143176652491
-0.0089737642556428
-0.0077870683744549
-0.0065817683935165
-0.0053566130809485
-0.0041141845285892
-0.0028611542657017
-0.0016053263098001
-0.0003505377098917
0.0009072432294487
0.0021742549724876
0.0034452062100172
0.004696792922914
0.0058946209028363
0.0070056277327239
0.0080074351280927
0.008890138939023
0.0096544446423649
0.0103122619912028
0.0108872968703508
0.0114121101796627
0.0119217932224273
0.0124439783394336
0.0129909235984086
0.0135629214346408
0.0141595918685197
0.0147826876491308
0.0154240597039461
0.0160543136298656
0.0166247338056564
0.0170789044350385
0.01736830919981
0.0174652300775051
0.0173669438809156
0.0170907620340585
0.0166601724922657
0.0160864554345607
0.0153560768812894
0.0144289880990982
0.0132467849180102
0.0117529099807143
0.0099198324605822
0.0077623859979212
0.0053293495438992
0.0026896202471107
-7.441733032464981e-05
-0.002870010677725
-0.0056019802577793
-0.0081844646483659
-0.0105486828833818
-0.0126433204859495
-0.0144288344308733
-0.0158720407634973
-0.0169482044875621
-0.0176487155258655
-0.0179869998246431
-0.0179957635700702
-0.0177138727158308
-0.0171775072813034
-0.0164286885410547
-0.0155256334692239
-0.0145363882184028
-0.0135216107591986
-0.0125208720564842
-0.0115501312538981
-0.0106088928878307
-0.0096863061189651
-0.0087617523968219
-0.0078100175596773
-0.0068123401142656
-0.0057610534131526
-0.0046555791050195
-0.0034959951881319
-0.0022785121109336
-0.0010025207884609
0.0003115958534181
0.0016170884482562
0.0028564375825226
0.0039798901416361
0.0049550887197256
0.005770138464868
0.006433387286961
0.0069688842631876
0.0074075032025575
0.0077790562063455
0.0081076575443148
0.0084086628630757
0.0086879981681704
0.0089465519413352
0.0091890953481197
0.0094245746731758
0.0096506727859377
0.0098435338586568
0.0099670849740505
0.0099877314642071
0.0098811024799942
0.0096334666013717
0.0092447958886623
0.00873370654881
0.0081369550898671
0.0074997628107666
0.0068621886894106
0.0062445979565382
0.0056315078400075
0.0049639670178294
0.0041529336012899
0.0031023158226162
0.0017246356001123
-4.446657840162516e-05
-0.0022258190438151
-0.0047809621319174
-0.007613300345838
-0.0105864638462662
-0.0135490167886018
-0.0163543540984392
-0.0188737902790308
-0.0210062731057405
-0.0226849801838397
-0.0238794442266225
-0.0245924927294254
-0.0248502157628536
-0.0246881991624832
-0.024146607145667
-0.0232793986797332
-0.0221612565219402
-0.0208775755017995
-0.0195072591304779
-0.0181124154478311
-0.0167339034378528
-0.015389353968203
-0.0140755726024508
-0.0127736097201704
-0.0114539451897144
-0.0100827496498823
-0.0086286021396517
-0.0070688799023628
-0.0053944839164614
-0.0036081131547689
-0.001721697859466
0.0002376791089773
0.0022231508046388
0.0041748713701963
0.006033182144165
0.0077521027997136
0.0093086343258619
0.0107033569365739
0.0119543923065066
0.013091173954308
0.0141495084390044
0.0151651874184608
0.0161657482385635
0.017163835465908
0.0181580632925033
0.0191422048956155
0.020110547542572
0.0210499502718448
0.0219308994710445
0.0227129384875297
0.0233600325882434
0.0238514244556427
0.024182055145502
0.024358332157135
0.0243963412940502
0.024322161450982
0.0241672620177268
0.0239576511085033
0.023708052933216
0.0234275087714195
0.0231277979910373
0.0228263661265373
0.0225383751094341
0.0222555790096521
0.0219264142215251
0.0214534699916839
0.0207081697881221
0.0195568446069955
0.0178910382091999
0.0156509522348642
0.0128368679434061
0.0095119746401906
0.0057967989705502
0.0018527840729802
-0.0021413404028862
-0.006014535203576
-0.0096224509179592
-0.0128527972847223
-0.0156264882534742
-0.0179082751274108
-0.0197121798992156
-0.0210846979171037
-0.0220791716128587
-0.0227407850325107
-0.0231058970093727
-0.0232082828879356
-0.0230853930115699
-0.022785497829318
-0.0223742742091417
-0.0219307038933038
-0.0215290691703557
-0.0212193559855222
-0.0210126917809247
-0.0208679120987653
-0.0206911843270063
-0.0203629098832607
-0.0197746232151985
-0.0188524518162012
-0.0175691172480583
-0.0159495752304792
-0.0140604544430971
-0.0119767393916845
-0.0097386948764324
-0.007324244827032
-0.0046493886038661
-0.0015888391062617
0.0019935774616897
0.0062127877026796
0.0111387353390455
0.0167861022055149
0.0231063328683376
0.0299716684967279
0.037169013172388
0.0444186031818389
0.0514034628868103
0.0578013993799686
0.0633212104439735
0.0677334293723106
0.0708885714411735
0.07272619754076
0.0732755586504936
0.0726444944739341
0.0709965825080871
0.0685241073369979
0.0654259920120239
0.0618891045451164
0.058064229786396
0.0540409013628959
0.0498410500586032
0.0454376973211765
0.0407834537327289
0.0358358509838581
0.0305756963789463
0.0250152759253978
0.0191920027136802
0.0131512880325317
0.0069291815161705
0.0005427189171314
-0.0060080699622631
-0.0127287097275257
-0.0196136571466922
-0.0266264155507087
-0.0336901322007179
-0.0406995043158531
-0.0475408434867858
-0.0541063286364078
-0.0603008866310119
-0.0660459697246551
-0.0712849199771881
-0.0759837329387664
-0.0801238268613815
-0.0836955085396766
-0.0866940319538116
-0.0891152992844581
-0.0909538120031356
-0.092204675078392
-0.0928652584552764
-0.0929340273141861
-0.0924165248870849
-0.0913424044847488
-0.0897739082574844
-0.0877926647663116
-0.0854770839214325
-0.0828891173005104
-0.0800744295120239
-0.0770642161369323
-0.0738738849759101
-0.0705052688717842
-0.0669534355401992
-0.0632123872637748
-0.0592764988541603
-0.0551402121782302
-0.0507991760969162
-0.0462509132921695
-0.0414977259933948
-0.0365581773221492
-0.0314777642488479
-0.0263245720416307
-0.0211734995245933
-0.0160934813320636
-0.0111431274563074
-0.0063690692186355
-0.0018051899969577
0.0025262217968702
0.0066139064729213
0.0104559399187564
0.0140566667541861
0.0174276195466518
0.0205910354852676
0.0235796738415956
0.026428896933794
0.0291645471006631
0.0317980051040649
0.034331377595663
0.0367660708725452
0.039109893143177
0.0413789376616478
0.0435941331088542
0.0457745119929313
0.0479262545704841
0.0500312186777591
0.0520389936864376
0.0538608320057392
0.0553725026547908
0.0564373172819614
0.0569409541785717
0.0568149983882904
0.0560408942401409
0.0546480230987072
0.0527130812406539
0.0503531359136104
0.0477120727300643
0.0449453257024288
0.0422030128538608
0.0396142788231372
0.0372779816389083
0.0352600291371345
0.0335929505527019
0.032276876270771
0.031284887343645
0.0305727459490299
0.0300890877842903
0.0297780707478523
0.0295742731541395
0.029404142871499
0.0291993245482444
0.0289109423756599
0.0285157561302185
0.0280142184346914
0.0274241250008344
0.0267720185220241
0.0260852519422769
0.0253885369747877
0.0247038416564464
0.0240482874214649
0.0234303213655948
0.0228506699204444
0.0223065130412578
0.0217890702188015
0.0212761461734771
0.0207319557666778
0.0201160032302141
0.0193932764232158
0.0185426641255617
0.0175618678331375
0.0164648611098527
0.0152739053592085
0.0140148978680372
0.0127187278121709
0.0114210732281208
0.0101563595235347
0.0089513109996914
0.0078242225572466
0.0067867208272218
0.0058376379311084
0.0049507282674312
0.0040742773562669
0.0031477101147174
0.0021192990243434
0.0009562354534864
-0.0003502462059259
-0.0017880368977785
-0.0033386070281267
-0.0049971770495176
-0.0067896004766225
-0.0087758526206016
-0.0110352486371994
-0.0136408936232328
-0.0166335068643093
-0.019998624920845
-0.0236602257937192
-0.0275017656385898
-0.0313937664031982
-0.0352073349058628
-0.0388229861855506
-0.0421407409012317
-0.0450838319957256
-0.047596875578165
-0.0496438667178154
-0.0512047410011291
-0.052269522100687
-0.0528362281620502
-0.0529153980314731
-0.0525340139865875
-0.0517326183617115
-0.0505584180355072
-0.0490631461143493
-0.0473069101572036
-0.0453570410609245
-0.0432783290743827
-0.0411229506134986
-0.038924191147089
-0.0366929993033409
-0.034419972449541
-0.0320846103131771
-0.0296654067933559
-0.027145879343152
-0.0245194733142852
-0.0217940937727689
-0.0189923290163278
-0.016144897788763
-0.0132793514057993
-0.0104156117886304
-0.0075752320699393
-0.0047897603362798
-0.0020964397117495
0.0004704566672444
0.0028854259289801
0.0051364190876483
0.0072262319736182
0.0091677093878388
0.0109777152538299
0.0126737859100103
0.0142727233469486
0.0157900527119636
0.0172382313758134
0.0186262428760528
0.0199637897312641
0.0212588999420404
0.0225050635635852
0.023678233847022
0.0247490853071212
0.0256930813193321
0.0264943744987249
0.027148425579071
0.0276611223816871
0.0280437767505645
0.0283070392906665
0.0284557417035102
0.0284829959273338
0.0283602345734834
0.0280268806964159
0.0273912549018859
0.0263491701334714
0.024808332324028
0.0227056201547384
0.020021341741085
0.016790147870779
0.0131009742617607
0.0090892277657985
0.0049233539029955
0.0007835659780539
