bvp
0.0214241705834865
0.0214000456035137
0.0213139560073614
0.0211983174085617
0.0210689194500446
0.0209282785654068
0.0207759253680706
0.0206162314862012
0.0204497203230857
0.0202567130327224
0.0199935603886842
0.0195987373590469
0.0189945232123136
0.0180859044194221
0.0167688932269811
0.0149492630735039
0.012563744559884
0.0095995385199785
0.0061097089201211
0.0022182748652994
-0.0018933895044028
-0.0060157990083098
-0.0099409613758325
-0.0134908678010106
-0.0165475308895111
-0.0190663896501064
-0.0210625566542148
-0.0225837174803018
-0.0236846078187227
-0.024411641061306
-0.0248010549694299
-0.0248857177793979
-0.0247025582939386
-0.0242934804409742
-0.0236993599683046
-0.0229557249695062
-0.0220924764871597
-0.021130334585905
-0.0200743526220321
-0.018917666748166
-0.0176575537770986
-0.0163053013384342
-0.0148815009742975
-0.0134071996435523
-0.0118985585868358
-0.0103663252666592
-0.0088187810033559
-0.0072642196901142
-0.0057107908651232
-0.0041659954003989
-0.0026380254421383
-0.0011362475343048
0.000330758979544
0.0017585065215826
0.0031510349363088
0.0045184064656496
0.0058624427765607
0.007167843170464
0.0084110610187053
0.0095731504261493
0.0106430426239967
0.0116137731820344
0.0124789550900459
0.0132340230047702
0.0138810314238071
0.0144312065094709
0.0149017479270696
0.0153101282194256
0.0156709384173154
0.0159981921315193
0.0163110997527837
0.0166305042803287
0.0169624481350183
0.0172878522425889
0.0175672192126512
0.0177483242005109
0.0177672822028398
0.0175445340573787
0.0169846657663583
0.0159878060221672
0.0144694875925779
0.0123807322233915
0.0097253583371639
0.0065702060237526
0.0030416822992265
-0.0006888997741043
-0.0044266236945986
-0.0079819057136774
-0.0112014161422848
-0.013987073674798
-0.0162959359586238
-0.0181258004158735
-0.0194965675473213
-0.0204373337328434
-0.0209838114678859
-0.0211803782731294
-0.0210777539759874
-0.0207263920456171
-0.0201732441782951
-0.019463500007987
-0.0186392348259687
-0.0177301038056612
-0.0167436227202415
-0.0156678277999162
-0.0144880264997482
-0.01320356503129
-0.0118319038301706
-0.0103997075930237
-0.0089309830218553
-0.0074435295537114
-0.005952110979706
-0.0044694687239825
-0.003003834746778
-0.0015569687820971
-0.0001264824531972
0.00128776114434
0.0026789861731231
0.004036336671561
0.0053557278588414
0.0066450778394937
0.0079103969037532
0.0091393198817968
0.0103025855496525
0.0113666672259569
0.0123054953292012
0.0131077282130718
0.0137786567211151
0.0143371243029832
0.0148073099553585
0.015208650380373
0.0155512765049934
0.0158388316631317
0.0160735342651605
0.0162616856396198
0.0164197795093059
0.0165711659938097
0.0167296603322029
0.0168876908719539
0.0170204993337392
0.017097819596529
0.0170886702835559
0.0169545281678438
0.0166390072554349
0.0160627048462629
0.0151280770078301
0.0137349609285593
0.0118010314181447
0.009283298626542
0.006198204588145
0.0026346198283135
-0.0012481389567255
-0.0052478378638625
-0.0091670742258429
-0.0128520801663398
-0.0162037909030914
-0.019167885184288
-0.0217179171741008
-0.0238414630293846
-0.0255322009325027
-0.0267867092043161
-0.0276053939014673
-0.0279968157410621
-0.0279823057353496
-0.027597289532423
-0.0268890559673309
-0.025910809636116
-0.0247115790843963
-0.0233311131596565
-0.0218075048178434
-0.0201852228492498
-0.0185095891356468
-0.0168145317584276
-0.015117498114705
-0.0134226577356457
-0.0117252934724092
-0.0100150052458047
-0.008280117996037
-0.0065134260803461
-0.0047174515202641
-0.0029068393632769
-0.00110340770334
0.0006771031767129
0.0024368902668356
0.0041923848912119
0.0059552923776209
0.0077183432877063
0.0094591798260807
0.0111528141424059
0.0127781182527542
0.0143175525590777
0.0157587528228759
0.0170984305441379
0.0183396264910697
0.0194823518395423
0.0205180775374174
0.0214328132569789
0.0222139619290828
0.0228568911552429
0.023369638249278
0.023768313229084
0.0240626111626625
0.0242462418973445
0.0242995750159025
0.0241971611976623
0.0239146295934915
0.0234356094151735
0.0227580051869153
0.0218958631157875
0.020872838795185
0.0197073519229888
0.0183951575309038
0.0168974921107292
0.0151431281119585
0.0130488397553563
0.0105498917400836
0.0076223034411668
0.0042891991324722
0.0006191502325236
-0.0032786757219582
-0.0072664441540837
-0.011196881532669
-0.0149316284805536
-0.0183530300855636
-0.0213699266314506
-0.0239177569746971
-0.0259566325694322
-0.0274710692465305
-0.028467770665884
-0.028969183564186
-0.029005279764533
-0.0286071561276912
-0.0278114825487136
-0.0266763567924499
-0.0252881553024053
-0.0237482488155365
-0.0221534091979265
-0.0205827094614505
-0.0190909095108509
-0.0177069474011659
-0.0164383817464113
-0.0152769200503826
-0.0141998976469039
-0.0131726404651999
-0.0121550690382719
-0.0111064724624156
-0.0099840741604566
-0.0087408795952796
-0.0073349131271243
-0.0057500768452882
-0.0040093529969453
-0.0021662870422005
-0.000284481793642
0.0015774853527545
0.0033730221912264
0.0050712046213448
0.0066572008654475
0.0081292241811752
0.009493289515376
0.0107588768005371
0.0119377616792917
0.0130432453006505
0.0140923829749226
0.0151152228936553
0.0161559917032718
0.0172548778355121
0.0184299107640981
0.0196759011596441
0.0209730863571167
0.0222949236631393
0.0236133355647325
0.0249019376933574
0.0261349380016326
0.0272806733846664
0.0282921381294727
0.0290996078401803
0.029608080163598
0.0297000855207443
0.0292508732527494
0.0281594563275575
0.0263772383332252
0.023913774639368
0.0208278987556695
0.0172215681523084
0.0132367108017206
0.0090482672676444
0.0048480932600796
0.0008223252370953
-0.0028659484814852
-0.0060849897563457
-0.008738849312067
-0.0107706375420093
-0.0121648963540792
-0.0129468189552426
-0.0131744723767042
-0.0129252448678016
-0.0122881550341844
-0.0113674849271774
-0.0102831898257136
-0.0091579928994178
-0.008098785765469
-0.007180668413639
-0.0064363004639744
-0.00585467973724
-0.005392987281084
-0.0049966359511017
-0.0046166870743036
-0.0042181815952062
-0.0037823622114956
-0.0033071492798626
-0.0028016366995871
-0.0022733979858458
-0.00172318238765
-0.0011552721261978
-0.0005896780639886
-6.274133920669556e-05
0.0003827344626188
0.0007116273045539
0.0009084390476346
0.0009815338999032
0.0009597102180123
0.0008854316547513
0.0008071800693869
0.0007702875882387
0.000809010118246
0.0009441273286938
0.001186097972095
0.0015421193093061
0.0020182495936751
0.0026098722591996
0.0032921247184276
0.0040204217657446
0.0047377869486808
0.0053862128406763
0.0059182997792959
0.0063009820878505
0.0065082423388957
0.0065085291862487
0.0062545016407966
0.0056777503341436
0.0046925228089094
0.0032146275043487
0.0011905562132596
-0.00137909501791
-0.004437506198883
-0.0078872088342905
-0.0116031244397163
-0.0154397254809737
-0.0192434359341859
-0.0228698067367076
-0.0261975117027759
-0.0291349254548549
-0.0316196084022522
-0.0336137562990188
-0.0350981578230857
-0.0360675528645515
-0.0365309827029705
-0.0365162082016468
-0.0360704623162746
-0.0352509915828704
-0.0341159142553806
-0.0327292308211326
-0.0311662405729293
-0.0295013859868049
-0.0277889408171176
-0.0260544791817665
-0.0242988802492618
-0.0225068256258964
-0.0206549353897571
-0.0187191795557737
-0.0166808180510997
-0.0145299211144447
-0.0122675318270921
-0.0099064074456691
-0.0074664358980953
-0.0049657090567052
-0.0024200878106057
0.0001438232138752
0.0026793624274432
0.0051277880556881
0.0074364189058542
0.0095725059509277
0.0115246707573533
0.0132955573499202
0.0148949837312102
0.0163369085639715
0.0176390130072832
0.0188240893185138
0.0199199393391609
0.0209542531520128
0.0219503007829189
0.0229297652840614
0.0239109918475151
0.0248936116695404
0.0258471705019474
0.0267204567790031
0.0274622347205877
0.0280357301235198
0.0284232161939144
0.0286262854933738
0.0286656729876995
0.0285803955048322
0.0284194927662611
0.0282245837152004
0.0280107390135526
0.0277500413358211
0.0273637678474187
0.0267303213477134
0.0257035847753286
0.0241349674761295
0.0219022948294878
0.0189429614692926
0.0152786904945969
0.0110223470255732
0.0063631902448832
0.001532984082587
-0.0032341675832867
-0.0077339909039437
-0.0118090994656085
-0.0153506025671958
-0.0182930398732423
-0.0206091925501823
-0.0223014652729034
-0.0233909580856561
-0.0239158291369676
-0.0239406302571296
-0.023558048531413
-0.022873293608427
-0.0219854861497879
-0.0209784656763076
-0.0199153646826744
-0.0188311580568552
-0.0177295226603746
-0.0165889542549848
-0.0153748411685228
-0.0140506057068705
-0.012585412710905
-0.0109618222340941
-0.0091796722263097
-0.0072504682466387
-0.0051931161433458
-0.0030424436554312
-0.0008578887209296
0.0012850021012127
0.0033142850734293
0.0051754345186054
0.0068350629881024
0.0082823680713772
0.0095294099301099
0.0106043210253119
0.0115428529679775
0.0123856291174888
0.0131748709827661
0.0139472130686044
0.0147301387041807
0.0155439544469118
0.0163992457091808
0.017286954447627
0.0181741826236248
0.0190115235745906
0.0197454020380973
0.0203305594623088
0.020737761631608
0.0209550261497497
0.0209872089326381
0.0208534393459558
0.020578259602189
0.0201824288815259
0.0196787472814321
0.0190634708851575
0.0183032024651765
0.0173342749476432
0.0160728618502616
0.0144237075001001
0.012297099456191
0.0096389856189489
0.0064562670886516
0.0028255768120288
-0.0011125970631837
-0.0051741674542427
-0.0091619351878762
-0.0128935985267162
-0.0162184927612543
-0.0190239381045103
-0.021236702799797
-0.0228229202330112
-0.0237854048609733
-0.0241573695093393
-0.0239994581788778
-0.0234025381505489
-0.0224821418523788
-0.0213603992015123
-0.0201472602784633
-0.0189271531999111
-0.0177520103752613
-0.0166413933038711
-0.0155878458172082
-0.0145638100802898
-0.0135279512032866
-0.0124332439154386
-0.0112381987273693
-0.0099171567708253
-0.0084642618894577
-0.0068899346515536
-0.0052166734822094
-0.0034793205559253
-0.0017259465530514
-1.5579164028167725e-05
0.001589149585925
0.0030353092588484
0.0042921649292111
0.0053538093343377
0.006232745014131
0.0069518769159913
0.0075395293533802
0.0080276224762201
0.0084498301148414
0.0088373506441712
0.0092173218727111
0.0096175614744424
0.0100639499723911
0.0105621805414557
0.0110861957073211
0.0115903429687023
0.0120289865881204
0.0123666636645793
0.0125817786902189
0.0126682482659816
0.0126343201845884
0.0124992914497852
0.0122882928699254
0.0120239369571208
0.0117125120013952
0.0113273942843079
0.010804058983922
0.0100531755015254
0.0089773964136838
0.0074846399948
0.0055073918774724
0.0030272332951426
9.009148925542831e-05
-0.0031967675313353
-0.00668013561517
-0.01017960999161
-0.0135111538693308
-0.0165134817361831
-0.0190658010542392
-0.0210933350026607
-0.0225651338696479
-0.0234871618449687
-0.0238918270915746
-0.0238258354365825
-0.0233446657657623
-0.0225185919553041
-0.0214360803365707
-0.0201923102140426
-0.0188716575503349
-0.0175361931324005
-0.0162214916199445
-0.0149374296888709
-0.0136746950447559
-0.0124161662533879
-0.0111459204927086
-0.009850631467998
-0.0085187926888465
-0.0071435254067182
-0.0057214982807636
-0.0042434749193489
-0.0026946295984089
-0.0010729806963354
0.0005972334183752
0.0022712850477546
0.0038986378349363
0.0054352693259716
0.0068488009274005
0.0081182140856981
0.0092340158298611
0.0101998141035437
0.0110306190326809
0.0117470230907201
0.0123692853376269
0.0129152443259954
0.0134044699370861
0.0138648971915245
0.0143287843093276
0.0148145593702793
0.0153133533895015
0.0157924946397542
0.0162085108458995
0.0165209993720054
0.0167027469724416
0.0167437940835952
0.016650702804327
0.0164421033114194
0.0161401685327291
0.0157619714736938
0.0153175443410873
0.0148113407194614
0.0142395142465829
0.0135837672278285
0.0128010930493474
0.0118133425712585
0.0105139780789613
0.0087973875924944
0.0065962886437773
0.0039095552638173
0.0008100112900137
-0.0025653135962784
-0.0060360040515661
-0.0094076981768012
-0.0125035671517252
-0.0151858888566493
-0.0173643641173839
-0.0189973190426826
-0.0200838223099708
-0.0206446964293718
-0.0207121018320322
-0.0203397274017334
-0.0196116212755441
-0.0186329614371061
-0.0175119154155254
-0.0163429640233516
-0.0151959974318742
-0.0141139151528477
-0.0131162274628877
-0.0122040109708905
-0.0113656017929315
-0.0105812298133969
-0.0098237767815589
-0.0090589029714465
-0.0082472339272499
-0.0073475483804941
-0.0063275261782109
-0.0051836036145687
-0.0039500487037003
-0.0026854940224438
-0.0014509903267025
-0.0002943985164165
0.0007549101719632
0.0016857066657394
0.0025041960179805
0.0032291125971823
0.003883252153173
0.0044889459386467
0.0050682290457189
0.0056433482095599
0.0062355422414839
0.0068650832399725
0.0075482134707272
0.0082839289680123
0.0090437596663832
0.0097787901759147
0.0104374680668115
0.0109815504401922
0.0113920588046312
0.0116661814972758
0.0118127912282943
0.0118489563465118
0.0117953876033425
0.0116717917844653
0.0114914597943425
0.0112496959045529
0.0109113408252596
0.0104127936065196
0.0096750874072313
0.0086158392950892
0.0071677048690617
0.0053039225749671
0.0030524400062859
0.000494692241773
-0.0022421183530241
-0.0049999766051769
-0.0076131517998874
-0.009932929649949
-0.0118476543575525
-0.01329230889678
-0.0142461955547332
-0.0147238783538341
-0.0147615550085902
-0.0144026717171072
-0.0136973708868026
-0.0127169108018279
-0.0115590170025825
-0.0103313159197568
-0.0091261947527527
-0.0080039119347929
-0.0069901226088404
-0.0060839215293526
-0.0052686007693409
-0.004518655128777
-0.0038033809978514
-0.0030920438002794
-0.0023602538276463
-0.001593806548044
-0.0007858192548155
7.148273289203644e-05
0.0009844142477959
0.0019410647219046
0.0029033867176622
0.0038190246559679
0.0046392893418669
0.0053314641118049
0.0058827307075262
0.0062988195568323
0.0066016810014843
0.0068255132064223
0.0070094289258122
0.0071894093416631
0.0073926458135247
0.007634290959686
0.0079190786927938
0.0082495724782347
0.0086288657039403
0.0090505462139844
0.0094926673918962
0.0099252965301275
0.0103206196799874
0.010657949373126
0.0109253237023949
0.0111200613901019
0.0112459864467382
0.0113057792186737
0.0112969186156988
0.0112165911123156
0.0110651459544897
0.0108417319133877
0.0105413347482681
0.0101553723216056
0.0096619231626391
0.0090055484324693
0.0080926585942506
0.0068172137252986
0.0051001426763832
0.0029192916117608
0.000319767743349
-0.0025928870309144
-0.0056688920594751
-0.0087348725646734
-0.0116180963814258
-0.0141707453876733
-0.0162851624190807
-0.0178959984332323
-0.0189751852303743
-0.0195236504077911
-0.0195650272071361
-0.0191478170454502
-0.0183476023375988
-0.01726028136909
-0.0159898530691862
-0.0146348252892494
-0.0132775241509079
-0.0119800586253404
-0.0107835996896028
-0.0097081400454044
-0.0087541192770004
-0.0079057216644287
-0.0071344031020998
-0.0064024310559034
-0.0056662345305085
-0.0048798122443258
-0.0040046041831374
-0.0030266647227108
-0.001966573530808
-0.0008749065455049
0.0001819019671529
0.0011406018165871
0.0019558877684175
0.0026050908491015
0.0030886316671967
0.0034304787404835
0.0036747301928699
0.0038739037699997
0.0040740217082202
0.0043078083544969
0.0046003363095223
0.004979794844985
0.00547556579113
0.0060978308320045
0.0068209222517907
0.0075884936377406
0.0083322841674089
0.0089891590178012
0.0095099490135908
0.0098615884780883
0.0100293103605508
0.0100218579173088
0.0098715592175722
0.0096244839951395
0.0093277674168348
0.0090201934799551
0.0087317023426294
0.0084931347519159
0.0083353016525506
0.0082637695595622
0.0082330927252769
0.008145791478455
0.0078746313229203
0.0072931153699755
0.0063028079457581
0.0048558735288679
0.0029710389208048
0.000734016764909
-0.0017195445252582
-0.0042281858623027
-0.0066300951875746
-0.0087865814566612
-0.0105929048731923
-0.0119765615090727
-0.0128999315202236
-0.0133699849247932
-0.0134366638958454
-0.0131755759939551
-0.0126703977584838
-0.0120043568313121
-0.0112568084150552
-0.0104970689862966
-0.0097751738503575
-0.0091160619631409
-0.0085196187719702
-0.0079655023291707
-0.0074219442903995
-0.0068550193682312
-0.0062323436141014
-0.0055222720839083
-0.0047015841118991
-0.0037727106828242
-0.0027691614814102
-0.001741258893162
-0.0007388251833617
0.0001990576274693
0.0010486538521945
0.0018008600454777
0.0024578019510954
0.0030320431105792
0.0035467690322548
0.0040300479158759
0.0045047006569802
0.0049817995168268
0.005462703295052
0.0059492816217243
0.0064495136030018
0.0069678709842264
0.0074942642822861
0.0080057084560394
0.0084739718586206
0.0088712833821773
0.0091755166649818
0.0093742795288562
0.009463763795793
0.0094449240714311
0.0093254465609788
0.0091261873021721
0.0088816871866583
0.0086338771507143
0.0084262611344456
0.0082992166280746
0.0082782777026295
0.0083544543012976
0.0084710577502846
0.0085266940295696
0.0083918049931526
0.0079348981380462
0.0070513086393475
0.0056863757781684
0.0038505557458847
0.0016207610024139
-0.0008758648764342
-0.0034855701960623
-0.0060494868084788
-0.0084222611039876
-0.0104850875213742
-0.01214977260679
-0.0133621646091341
-0.0141117945313453
-0.0144334947690367
-0.0143923191353678
-0.0140663813799619
-0.0135371452197432
-0.0128829451277852
-0.0121729969978332
-0.0114615252241492
-0.0107833398506045
-0.0101540833711624
-0.009573470801115
-0.0090284720063209
-0.0084960544481873
-0.0079430257901549
-0.0073247044347226
-0.0065930904820561
-0.0057159727439284
-0.0046923272311687
-0.0035534435883164
-0.0023525464348495
-0.001151000149548
-5.101319402456284e-06
0.0010458822362124
0.0019852258265018
0.002813447266817
0.0035379687324166
0.0041677942499518
0.0047142640687525
0.0051917801611125
0.0056184348650276
0.0060192961245775
0.0064232312142848
0.0068464404903352
0.0072797746397554
0.0076947789639234
0.0080587081611156
0.0083467774093151
0.0085500795394182
0.0086781326681375
0.0087557574734091
0.0088169705122709
0.0088964011520147
0.0090193804353475
0.0091964267194271
0.0094253532588481
0.0097007974982261
0.0100268479436635
0.0104174707084894
0.0108783626928925
0.0113890338689088
0.0118998186662793
0.0123385963961482
0.0126168439164757
0.0126298060640692
0.012260815128684
0.0114019466564059
0.0099819973111152
0.0079860463738441
0.0054636434651911
0.0025255363434553
-0.0006743975682184
-0.0039639216847717
-0.0071700327098369
-0.0101359160616993
-0.0127478409558534
-0.014954493381083
-0.0167591329663991
-0.0181953888386487
-0.0193066094070673
-0.0201340150088071
-0.0207116026431322
-0.0210663247853517
-0.0212196018546819
-0.0211867243051528
-0.0209763031452894
-0.0205927789211273
-0.0200412757694721
-0.0193273499608039
-0.018447233363986
-0.0173854418098926
-0.0161315370351076
-0.0146943712607026
-0.0130980685353279
-0.0113737396895885
-0.0095572490245103
-0.0076874224469065
-0.0058016702532768
-0.0039315205067396
-0.0021003680303692
-0.0003250185400247
0.001382247544825
0.0030145337805151
0.0045711351558566
0.0060586417093873
0.0074940370395779
0.0088976388797163
0.0102730393409729
0.0115976510569453
0.0128350611776113
0.0139528131112456
0.0149304838851094
0.0157590024173259
0.0164383631199598
0.0169755332171916
0.01738091558218
0.017664149403572
0.0178332589566707
0.0178984329104423
0.0178752802312374
0.0177857521921396
0.017659705132246
0.0175298210233449
0.0174152217805385
0.0173123814165592
0.017205337062478
0.0170792676508426
0.0169232096523046
0.0167245958000421
0.0164599660784006
0.0160839483141899
0.0155233712866902
0.0146838910877704
0.0134681798517704
0.0117997862398624
0.0096459398046135
0.0070335515774786
0.0040573384612798
0.0008707493543624
-0.0023478013463318
-0.0054325009696185
-0.0082497457042336
-0.0107027646154165
-0.0127306403592228
-0.0143054565414786
-0.0154274106025695
-0.0161186661571264
-0.0164180137217044
-0.0163762159645557
-0.0160524733364582
-0.0155118471011519
-0.0148204695433378
-0.0140353757888078
-0.013190658763051
-0.0122954733669757
-0.011352770961821
-0.0103762578219175
-0.0093890475109219
-0.0084161395207047
-0.0074804481118917
-0.0065984171815216
-0.0057736732997
-0.0049965833313763
-0.0042510852217674
-0.0035205602180212
-0.002791856881231
-0.0020591216161847
-0.0013246363960206
-0.0005935634253546
0.0001373440609313
0.0008829716825857
0.0016552708111703
0.0024484659079462
0.0032388712279498
0.0039931158535182
0.0046754046343266
0.0052506583742797
0.0056873341090977
0.0059624435380101
0.0060651828534901
0.0059981569647789
0.0057777487672865
0.0054313912987709
0.0049915956333279
0.0044938377104699
0.003977979067713
0.0034811017103493
0.0030235215090215
0.0026040114462375
0.0022064819931983
0.0018112491816282
0.0014075529761612
0.0009999172762036
0.0006002993322908
0.0002076518721878
-0.0002123131416738
-0.0007346665952354
-0.0014681997708976
-0.0025363620370626
-0.0040506948716938
-0.0060812504962086
-0.0086287707090377
-0.0116164935752749
-0.0149150118231773
-0.0183814000338315
-0.0218860320746898
-0.0253228172659873
-0.028610423207283
-0.0316853076219558
-0.0344869270920753
-0.0369474850594997
-0.0389947779476642
-0.0405594855546951
-0.0415808223187923
-0.0420139655470848
-0.0418371595442295
-0.0410520918667316
-0.0396775342524051
-0.0377480089664459
-0.0353245474398136
-0.032500185072422
-0.0293852891772985
-0.0260828640311956
-0.0226696543395519
-0.0191923715174198
-0.0156770218163728
-0.0121386051177978
-0.0085862167179584
-0.0050270296633243
-0.0014688391238451
0.0020779427140951
0.0055982191115617
0.0090752113610506
0.0124978106468915
0.015859043225646
0.0191412009298801
0.0223055407404899
0.0253003295511007
0.0280792228877544
0.0306152589619159
0.0329042188823223
0.0349599905312061
0.0368056260049343
0.0384632386267185
0.039946261793375
0.0412589237093925
0.0424037389457225
0.0433884970843791
0.0442291647195816
0.0449529662728309
0.0455932915210723
0.0461717769503593
0.0466860458254814
0.0471125617623329
0.0474171601235866
0.047567494213581
0.0475414022803306
0.0473294779658317
0.0469344928860664
0.0463654026389122
0.045625552535057
0.0446997322142124
0.0435409992933273
0.0420601777732372
0.0401322841644287
0.0376288890838623
0.034456942230463
0.030579462647438
0.026021683588624
0.0208733193576335
0.0152822872623801
0.0094360364601016
0.0035380353219807
-0.0022127209231257
-0.0076397117227315
-0.0126039907336235
-0.0170104671269655
-0.0208045504987239
-0.0239654742181301
-0.0264996476471424
-0.0284316726028919
-0.0297943353652954
-0.0306283365935087
-0.0309934467077255
-0.0309736840426921
-0.0306675843894481
-0.0301722642034292
-0.0295692980289459
-0.028915986418724
-0.0282422937452793
-0.0275509841740131
-0.0268229730427265
-0.0260282587260007
-0.025134140625596
-0.0241087339818477
-0.0229276493191719
-0.0215817876160144
-0.0200760439038276
-0.0184241756796836
-0.0166532807052135
-0.0148105807602405
-0.0129573661834001
-0.0111536923795938
-0.0094457091763615
-0.0078590735793113
-0.0063952328637242
-0.0050313770771026
-0.0037288835737854
-0.0024464698508381
-0.0011489812750369
0.0001896978355944
0.0015852092765271
0.003041370306164
0.0045500961132347
0.0060885399580001
0.0076124989427626
0.0090579492971301
0.010356318205595
0.0114519223570823
0.0123108811676502
0.0129206571727991
0.0132849961519241
0.0134226381778717
0.0133705362677574
0.0131807550787925
0.0129076838493347
0.0125948172062635
0.0122649110853672
0.0119091738015413
0.0114770215004682
0.0108714895322918
0.0099529419094324
0.0085603138431906
0.0065540447831153
0.003861672244966
0.0005039619281888
-0.0034038471058011
-0.0076732905581593
-0.0120788132771849
-0.0163946691900491
-0.0204222407191991
-0.0240052603185176
-0.0270330738276243
-0.0294353552162647
-0.0311753563582897
-0.0322454124689102
-0.0326679833233356
-0.0325028076767921
-0.0318479798734188
-0.030828583985567
-0.0295817963778972
-0.0282420590519905
-0.0269243009388446
-0.0257090330123901
-0.0246331375092268
-0.0236880425363779
-0.0228271540254354
-0.0219801850616931
-0.0210680849850177
-0.0200142171233892
-0.0187508296221494
-0.0172218345105648
-0.0153905628249049
-0.0132553130388259
-0.010855727829039
-0.0082599343731999
-0.005543400067836
-0.0027733701281249
-3.87243926525116e-06
0.0027223215438425
0.0053703938610851
0.0079124448820948
0.0103279016911983
0.0126022985205054
0.0147274639457464
0.0167054086923599
0.0185535475611686
0.0203078091144561
0.0220111906528472
0.0236864499747753
0.0253202393651008
0.0268728360533714
0.0282957479357719
0.0295438021421432
0.0305845569819211
0.0314056798815727
0.032014824450016
0.0324326381087303
0.0326871126890182
0.0328097157180309
0.0328275002539157
0.0327538326382637
0.0325838811695575
0.0322941578924655
0.0318375490605831
0.0311321951448917
0.0300604328513145
0.0284910034388303
0.0263166204094886
0.0234880335628986
0.0200313683599233
0.016046680510044
0.0116927241906523
0.007162663154304
0.002654243260622
-0.0016575632616877
-0.0056361453607678
-0.0091853626072406
-0.0122422957792878
-0.0147686600685119
-0.0167514961212873
-0.0182127151638269
-0.0192132350057363
-0.0198428183794021
-0.020201601088047
-0.0203822478652
-0.0204566493630409
-0.0204692631959915
-0.0204369500279426
-0.0203531570732593
-0.0201955437660217
-0.0199344754219055
-0.0195394977927207
-0.0189853943884372
-0.0182558745145797
-0.0173411127179861
-0.0162395574152469
-0.0149706602096557
-0.0135815273970365
-0.0121369324624538
-0.0107023799791932
-0.0093280561268329
-0.0080370008945465
-0.0068230452015995
-0.0056602698750793
-0.0045177461579442
-0.0033704729285091
-0.0022035010624676
-0.0010135560296475
0.0001915371976792
0.0014013615436851
0.0026134769432246
0.0038295113481581
0.0050392942503094
0.0062143704853951
0.0073174866847693
0.008315865881741
0.0091893505305051
0.0099327564239501
0.0105534913018345
0.0110670831054449
0.0114919245243072
0.0118421614170074
0.012123167514801
0.0123343411833047
0.0124737173318862
0.0125415315851569
0.012547880411148
0.0125144561752676
0.0124538801610469
0.0123404609039425
0.0120994392782449
0.0116164479404687
0.0107559021562337
0.0093858735635876
0.0074072079733014
0.0047783656045794
0.001529349014163
-0.0022375686094164
-0.0063613802194595
-0.0106471888720989
-0.0148943793028593
-0.018919289112091
-0.0225676298141479
-0.025723461061716
-0.028320288285613
-0.0303427651524543
-0.0318127982318401
-0.032772958278656
-0.0332766249775886
-0.0333814769983291
-0.0331434458494186
-0.0326133035123348
-0.0318363085389137
-0.0308522712439298
-0.029694253578782
-0.0283869132399559
-0.0269460156559944
-0.0253755245357751
-0.0236609447747468
-0.0217727087438106
-0.0196859128773212
-0.0173971951007843
-0.0149252023547887
-0.0123024955391883
-0.0095689054578542
-0.0067700035870075
-0.0039586024358868
-0.001192482188344
0.0014742454513907
0.0039986986666917
0.0063515468500554
0.0085180690512061
0.0104986131191253
0.0123090371489524
0.0139803690835833
0.0155495265498757
0.0170433837920427
0.0184698216617107
0.0198198221623897
0.0210756957530975
0.0222202483564615
0.0232438128441572
0.0241495110094547
0.0249571837484836
0.0257039722055196
0.0264377482235431
0.0272030010819435
0.0280269756913185
0.0289135314524173
0.0298454463481903
0.0307935141026973
0.0317238382995128
0.0325962901115417
0.0333620309829711
0.0339661426842212
0.0343502946197986
0.0344477333128452
0.034169428050518
0.03339708968997
0.0319997146725654
0.0298675093799829
0.0269440151751041
0.0232445821166038
0.0188599154353141
0.0139488168060779
0.0087233316153287
0.003426156938076
-0.0017015300691127
-0.0064550642855465
-0.0106882276013493
-0.0143155893310904
-0.0172989144921302
-0.0196282714605331
-0.0213134512305259
-0.0223840270191431
-0.0228869579732418
-0.0228859093040227
-0.0224626008421182
-0.0217104703187942
-0.0207235980778932
-0.0195880569517612
-0.0183729883283376
-0.0171216037124395
-0.0158532001078128
-0.0145791564136743
-0.0133162103593349
-0.0120853371918201
-0.0109039898961782
-0.0097823031246662
-0.0087243188172578
-0.007729890756309
-0.006794692017138
-0.0059095849283039
-0.0050624124705791
-0.0042404583655297
-0.003431346733123
-0.0026239710859954
-0.0018048512283712
-0.0009499327279627
-2.992665395140648e-05
0.0009680553339421
0.0020279684104025
0.0031112735159695
0.0041714319959282
0.0051686931401491
0.0060767764225602
0.0068797413259744
0.0075697815045714
0.0081478804349899
0.0086210146546363
0.0089984163641929
0.0092913080006837
0.0095150936394929
0.0096940416842699
0.0098663289099931
0.010077754035592
0.010359950363636
0.0107122203335165
0.0111010260879993
0.0114651480689644
0.011714749969542
0.0117301251739263
0.0113679626956582
0.010478519834578
0.0089342081919312
0.0066600982099771
0.003655232489109
1.633539795875549e-06
-0.0041413744911551
-0.0085564870387315
-0.0129949962720274
-0.0172101017087698
-0.0209941640496253
-0.0242052879184484
-0.0267739109694957
-0.0286930203437805
-0.0299994144588708
-0.0307535640895366
-0.0310240015387535
-0.0308788083493709
-0.0303827412426471
-0.0295956619083881
-0.0285701975226402
-0.0273509342223405
-0.0259756222367286
-0.024472301825881
-0.0228518284857273
-0.021110676229
-0.0192484892904758
-0.0172810852527618
-0.015238125808537
-0.0131544675678014
-0.011063371784985
-0.0089928526431322
-0.0069630853831768
-0.0049845944158732
-0.003059955779463
-0.0011876379139721
0.0006350111216306
0.0024094898253679
0.0041354200802743
0.0058145611546933
0.0074579138308763
0.0090829245746135
0.0106965117156505
0.0122827524319291
0.0138071030378341
0.0152296526357531
0.0165190156549215
0.0176596418023109
0.0186495836824178
0.0194962136447429
0.0202152505517005
0.0208301376551389
0.0213700011372566
0.0218651611357927
0.0223380289971828
0.0227978937327861
0.0232487116008996
0.0236941687762737
0.0241271294653415
0.02452202886343
0.0248416233807802
0.025046918541193
0.0251046866178512
0.0249942950904369
0.0247119199484586
0.0242681037634611
0.0236764755100011
0.0229350887238979
0.0220072567462921
0.0208134315907955
0.019243486225605
0.0171907469630241
0.0145926782861351
0.0114493956789374
0.0078150779008865
0.00378775363788
-0.0004938677884638
-0.0048606456257402
-0.0091337822377681
-0.0131459990516304
-0.0167571082711219
-0.0198648273944854
-0.0224089231342077
-0.024365596473217
-0.0257383100688457
-0.0265531633049249
-0.0268551521003246
-0.0267010033130645
-0.0261528529226779
-0.0252784863114357
-0.0241566486656665
-0.0228747520595788
-0.0215146001428365
-0.0201392993330955
-0.0187886990606784
-0.0174778532236814
-0.0161964986473321
-0.0149149876087903
-0.0135979503393173
-0.0122173633426427
-0.0107574518769979
-0.0092138396576046
-0.007592718116939
-0.0059085572138428
-0.0041775917634367
-0.0024148798547685
-0.0006409094203263
0.0011105411686003
0.0027940697036683
0.0043653063476085
0.0057944790460169
0.0070712994784116
0.008201734162867
0.0092013776302337
0.0100924922153353
0.0109054204076528
0.0116737857460975
0.0124224117025733
0.0131613537669181
0.0138930175453424
0.0146234231069684
0.0153610780835151
0.0161011163145303
0.0168143603950738
0.0174545608460903
0.0179747268557548
0.0183401703834533
0.0185358133167028
0.0185681004077196
0.0184587892144918
0.0182332750409841
0.0179135967046022
0.0175185054540634
0.0170646570622921
0.0165671724826097
0.0160390529781579
0.0154849654063582
0.0148833021521568
0.0141621176153421
0.0131939314305782
0.0118245240300893
0.0099197030067443
0.0074061146005988
0.0042928243055939
0.0006713364273309
-0.0032983999699354
-0.0074110133573412
-0.0114472806453704
-0.0152061423286795
-0.0185286123305559
-0.0213105529546737
-0.0234995074570179
-0.0250773858278989
-0.0260498709976673
-0.0264550819993019
-0.0263712108135223
-0.0259055159986019
-0.0251723453402519
-0.0242741703987121
-0.0232935734093189
-0.0222918037325143
-0.0213056318461895
-0.0203445814549922
-0.0193938035517931
-0.0184223111718893
-0.0173933394253253
-0.0162718892097473
-0.0150268469005823
-0.0136322770267724
-0.0120753496885299
-0.0103683313354849
-0.0085521731525659
-0.0066875894553959
-0.0048410855233669
-0.0030730282887816
-0.0014308437239378
5.422747926786542e-05
0.0013711495557799
0.0025330656208097
0.0035753049887716
0.0045450613833963
0.0054883016273379
0.0064424853771924
0.0074374647811055
0.008497517555952
0.0096342610195279
0.010832549072802
0.0120454784482717
0.0132058253511786
0.01424609310925
0.0151154994964599
0.0157861392945051
0.016251366585493
0.0165229048579931
0.0166258327662944
0.0165897794067859
0.0164394900202751
0.016188059002161
0.0158358700573444
0.0153797175735235
0.014826450496912
0.0141926351934671
0.0134876873344182
0.0126993684098124
0.0117894178256392
0.0106933573260903
0.009324412792921
0.0075855026952922
0.00538927083835
0.0026831668801605
-0.0005265506915748
-0.0041640955023467
-0.0080920923501253
-0.0121289603412151
-0.0160702764987945
-0.0197128765285015
-0.0228757392615079
-0.0254209637641906
-0.0272760819643735
-0.0284410286694765
-0.0289724972099065
-0.0289581827819347
-0.0284938961267471
-0.0276700686663389
-0.0265669804066419
-0.0252534970641136
-0.0237879678606987
-0.0222217459231615
-0.0206009615212678
-0.0189627036452293
-0.0173288341611623
-0.0157002825289964
-0.0140540692955255
-0.0123532162979245
-0.0105692725628614
-0.0086977696046233
-0.0067568197846412
-0.0047760754823684
-0.0027844244614243
-0.0008016396313905
0.001166695728898
0.0031330632045865
0.005125961266458
0.007180287502706
0.0093259215354919
0.0115772001445293
0.0139258233830332
0.0163439139723777
0.0187976621091365
0.0212563928216695
0.0236868597567081
0.0260499957948923
0.0283138304948806
0.0304673090577125
0.0325218066573143
0.03450608253479
0.0364582724869251
0.0384120680391788
0.0403810739517211
0.042350947856903
0.0442821606993675
0.0461166054010391
0.0477840192615985
0.0492107309401035
0.0503294542431831
0.0510810203850269
0.0514074489474296
0.0512506589293479
0.0505628511309623
0.0493201129138469
0.047532595694065
0.0452465564012527
0.0425338149070739
0.0394740961492061
0.0361411049962043
0.0325910933315753
0.0288467574864625
0.0248849261552095
0.0206444673240184
0.0160569474101066
0.0110865235328674
0.0057545788586139
0.0001348443329334
-0.005668232217431
-0.0115398485213518
-0.0173676572740077
-0.0230503510683774
-0.0285075325518846
-0.0336894169449806
-0.0385812707245349
-0.04319778829813
-0.0475659593939781
-0.0517039559781551
-0.0556078366935253
-0.0592498704791069
-0.0625801682472229
-0.0655272081494331
-0.068008467555046
-0.0699528753757476
-0.0713155567646026
-0.072075255215168
-0.0722255110740661
-0.0717678666114807
-0.0707079842686653
-0.0690566673874855
-0.0668339878320694
-0.0640743896365165
-0.0608347505331039
-0.0571985021233558
-0.0532688647508621
-0.049157653003931
-0.044972077012062
-0.0407981984317302
-0.0366958454251289
-0.0327107459306716
-0.0288835167884826
-0.0252458974719047
-0.0218136012554168
-0.0185808669775724
-0.0155182033777236
-0.0125772897154092
-0.0097044855356216
-0.0068550249561667
-0.0039982600137591
-0.0011161556467413
0.0017975913360714
0.0047367392107844
0.0076844049617648
0.0106184687465429
0.0135122258216142
0.0163275524973869
0.0190108064562082
0.021498130634427
0.0237273685634136
0.0256488844752311
0.0272288285195827
0.0284487176686525
0.0293070003390312
0.0298197120428085
0.0300153046846389
0.029923141002655
0.0295590385794639
0.0289147030562162
0.0279624462127685
0.0266766883432865
0.0250515397638082
0.0231041777878999
0.02088020183146
0.0184672065079212
0.0160042829811573
0.0136754419654607
0.0116847194731235
0.0102240974083542
0.0094467578455805
0.0094491252675652
0.010262300260365
0.0118526071310043
0.0141269639134407
0.0169412158429622
0.020117150619626
0.0234675910323858
0.0268132071942091
0.0299851410090923
0.0328292921185493
0.0352207943797111
0.0370806045830249
0.0383850485086441
0.0391644090414047
0.0394932068884372
0.039478238672018
0.0392451286315918
0.0389187037944793
0.0385989136993885
0.0383428037166595
0.0381593480706214
0.0380184911191463
0.0378714054822921
0.0376645475625991
0.0373362824320793
0.036814484745264
0.0360292121767997
0.034928772598505
0.0334879606962204
0.0317090675234794
0.0296203158795833
0.0272744670510292
0.024744939059019
0.022116033360362
0.0194686371833086
0.0168658327311277
0.0143454298377037
0.0119256190955638
0.0096157006919384
0.0074110925197601
0.0052727684378623
0.0031166989356279
0.0008237734436988
-0.0017401725053787
-0.0046993736177682
-0.0081378016620874
-0.0120704267174005
-0.0164297297596931
-0.0210764203220605
-0.0258293040096759
-0.0304992888122797
-0.0349132940173149
-0.0389252789318561
-0.0424196347594261
-0.0453108176589012
-0.0475495271384716
-0.0491395890712738
-0.0501446798443794
-0.0506724640727043
-0.0508504286408424
-0.0508045107126235
-0.0506414696574211
-0.0504374764859676
-0.0502328425645828
-0.0500325672328472
-0.0498129650950431
-0.0495304018259048
-0.0491312891244888
-0.0485636740922927
-0.0477815046906471
-0.0467399656772613
-0.045400183647871
-0.0437495037913322
-0.0418144464492797
-0.0396515652537345
-0.0373295843601226
-0.0349171832203865
-0.0324756652116775
-0.0300529580563306
-0.027681391686201
-0.0253801196813583
-0.0231583938002586
-0.0210172366350889
-0.0189505703747272
-0.0169478189200162
-0.0149958571419119
-0.0130752874538302
-0.011158924549818
-0.0092253927141428
-0.0072762938216328
-0.0053354632109403
-0.0034334505908191
-0.0015950379893183
0.00016561569646
0.0018471307121217
0.00345961144194
0.0050176982767879
0.0065302471630275
0.0079895555973052
0.0093607082962989
0.0105721736326813
0.0115158697590231
0.0120647251605987
0.0120975719764828
0.0115165850147604
0.0102622937411069
0.0083327423781156
0.0057959733530879
0.0027841310948133
-0.0005282927304506
-0.0039512235671281
-0.0073023606091737
