bvp
0.0060442108660936
0.0069546205922961
0.0077054086141288
0.0083008697256445
0.0087606674060225
0.0091200741007924
0.0094229504466056
0.0097087081521749
0.010002713650465
0.0103185418993234
0.0106688812375068
0.0110679874196648
0.0115164164453744
0.0119874533265829
0.0124342255294322
0.012809257954359
0.0130790546536445
0.0132265640422701
0.0132461488246917
0.0131396697834134
0.0129172168672084
0.0125990342348814
0.0122136678546667
0.0117893982678651
0.0113392807543277
0.0108479149639606
0.0102689173072576
0.0095295049250125
0.0085389986634254
0.0072093312628567
0.0054862624965608
0.0033733495511114
0.0009349533356726
-0.0017170221544802
-0.0044420515187084
-0.0070922626182436
-0.0095327887684106
-0.0116565264761447
-0.0133935557678341
-0.0147142736241221
-0.0156236384063959
-0.0161483120173215
-0.0163215398788452
-0.016179010272026
-0.0157719943672418
-0.0151766575872898
-0.0144832525402307
-0.0137757733464241
-0.0131153333932161
-0.0125329848378896
-0.0120325600728392
-0.0115968268364667
-0.0111925955861806
-0.0107771223410964
-0.0103061273694038
-0.0097428504377603
-0.0090657854452729
-0.0082669612020254
-0.0073439446277916
-0.006301574409008
-0.0051624812185764
-0.0039701047353446
-0.0027803699485957
-0.0016492547001689
-0.0006218569469638
0.0002751579741016
0.0010379137238487
0.0016847571823745
0.0022486501839011
0.0027663214132189
0.0032713660039007
0.0037909222301095
0.0043414128012955
0.0049282936379313
0.0055533973500132
0.0062165381386876
0.0069040888920426
0.0075814872980117
0.008202726021409
0.0087265707552433
0.0091256145387887
0.0093873562291264
0.0095140729099512
0.0095229279249906
0.0094408495351672
0.0092949345707893
0.0091069266200065
0.0088943112641572
0.0086713731288909
0.0084464121609926
0.0082157514989376
0.007950147613883
0.0075798197649419
0.0069999685510993
0.0060997209511697
0.0047962693497538
0.0030591087415814
0.0009180977940559
-0.0015401947312057
-0.0041840309277176
-0.0068598231300711
-0.0094198277220129
-0.0117398975417017
-0.0137274414300918
-0.0153247732669115
-0.0165054947137832
-0.0172648876905441
-0.0176161788403987
-0.0175979323685169
-0.0172789357602596
-0.0167482141405344
-0.0160961709916591
-0.0153986494988203
-0.0147080011665821
-0.0140517530962824
-0.0134369637817144
-0.0128553146496415
-0.0122875925153493
-0.011708072386682
-0.0110884914174675
-0.0104019306600093
-0.0096241533756256
-0.0087323449552059
-0.0077111441642045
-0.0065659922547638
-0.0053262403234839
-0.0040347492322325
-0.0027379933744668
-0.0014813853194937
-0.0003058516886085
0.0007579626981168
0.0016989596188068
0.0025300404522567
0.0032802841160446
0.0039831856265664
0.004668571986258
0.005355542525649
0.0060512558557093
0.0067609921097755
0.0074931974522769
0.0082455780357122
0.0089907702058553
0.0096800737082958
0.0102568864822387
0.0106693496927618
0.0108804870396852
0.010874843224883
0.0106608141213655
0.0102673554793
0.0097372187301516
0.0091206124052405
0.0084685171023011
0.0078252982348203
0.0072258617728948
0.0066997623071074
0.0062700281850993
0.0059409318491816
0.0056923637166619
0.0054859458468854
0.0052678901702165
0.0049672396853566
0.0045001846738159
0.0037849298678338
0.0027630282565951
0.0014174522366374
-0.0002210079110227
-0.0020804898813366
-0.004062638618052
-0.0060573434457182
-0.0079521145671606
-0.0096353469416499
-0.0110038481652736
-0.01198102068156
-0.0125279733911156
-0.0126327304169535
-0.0122860958799719
-0.0114568276330828
-0.0100747859105467
-0.0080271260812878
-0.005165453068912
-0.0013232612982392
0.0036542220041155
0.0098704118281602
0.0173335988074541
0.0259187333285808
0.0353503376245498
0.0452163480222225
0.055005170404911
0.0641546994447708
0.0721127837896347
0.078404352068901
0.0826912224292755
0.0848122164607048
0.0847939923405647
0.0828296467661857
0.0792342126369476
0.0743903517723083
0.0686950534582138
0.0625165775418281
0.05616470053792
0.049870379269123
0.0437773652374744
0.0379509478807449
0.0323887504637241
0.0270207524299621
0.0217187963426113
0.0163330249488353
0.0107369162142276
0.0048557519912719
-0.0013234913349151
-0.0077472329139709
-0.0142894238233566
-0.0207549221813678
-0.0269049927592277
-0.0325028300285339
-0.0373607203364372
-0.0413702465593814
-0.0445078164339065
-0.0468197986483573
-0.0484048128128051
-0.0494045987725257
-0.0499943122267723
-0.0503647997975349
-0.050700057297945
-0.0511549189686775
-0.0518425107002258
-0.0528392829000949
-0.0542015992105007
-0.0559775382280349
-0.058202140033245
-0.060878150165081
-0.0639557465910911
-0.067325010895729
-0.070822037756443
-0.0742409601807594
-0.0773543491959571
-0.0799469947814941
-0.0818478912115097
-0.0829445868730545
-0.0831856727600097
-0.0825778320431709
-0.0811764225363731
-0.0790739879012107
-0.0763895809650421
-0.0732548832893371
-0.0697991922497749
-0.0661408305168151
-0.0623832233250141
-0.0586100667715072
-0.054878894239664
-0.0512140393257141
-0.0476074665784835
-0.0440341755747795
-0.040469754487276
-0.0368991158902645
-0.0333189740777015
-0.0297357086092233
-0.0261588096618652
-0.0225940253585577
-0.0190406739711761
-0.0154952388256788
-0.0119581967592239
-0.0084365252405405
-0.0049411058425903
-0.0014844220131635
0.0019236654043197
0.0052840467542409
0.0086057614535093
0.0118871591985225
0.0151047967374324
0.0182223469018936
0.0212029851973056
0.0240150801837444
0.0266365595161914
0.0290594492107629
0.0312889069318771
0.0333374738693237
0.0352216362953186
0.0369610078632831
0.0385742150247097
0.0400702692568302
0.0414425507187843
0.0426711849868297
0.0437262468039989
0.0445663146674633
0.0451423488557338
0.0454099439084529
0.0453402325510978
0.0449272096157074
0.0441939570009708
0.0431938134133815
0.0420031026005744
0.0407098606228828
0.0394038818776607
0.0381693728268146
0.0370798148214817
0.0361924245953559
0.0355450063943862
0.0351591296494007
0.0350379236042499
0.0351528972387313
0.0354382917284965
0.0358014926314353
0.0361374914646148
0.0363436192274093
0.0363386645913124
0.0360807739198207
0.0355742424726486
0.0348640233278274
0.0340230725705623
0.0331355556845665
0.0322786271572113
0.0315087586641311
0.0308591313660144
0.0303455162793397
0.0299650281667709
0.0296841468662023
0.0294363070279359
0.029138283804059
0.0287114474922418
0.0280968360602855
0.0272630304098129
0.0262077189981937
0.024955840781331
0.023556750267744
0.0220768805593252
0.0205851271748542
0.0191383920609951
0.0177749879658222
0.0165151245892047
0.0153660429641604
0.0143213188275694
0.0133457779884338
0.0123634878545999
0.011267015710473
0.0099414205178618
0.0082917539402842
0.0062681217677891
0.0038797096349298
0.0011927986051887
-0.0016829661326482
-0.004614130128175
-0.0074652479961514
-0.0101193934679031
-0.0124904019758105
-0.0145214265212416
-0.0161772333085536
-0.0174445062875747
-0.0183386746793985
-0.0189026724547147
-0.0191971398890018
-0.0192915871739387
-0.0192571654915809
-0.0191599354147911
-0.0190542358905076
-0.0189745295792818
-0.0189308077096939
-0.0189116951078176
-0.0188913512974977
-0.0188370533287525
-0.0187158714979887
-0.0184962600469589
-0.0181448273360729
-0.0176316201686859
-0.0169505346566438
-0.0161347538232803
-0.0152490446344017
-0.0143681764602661
-0.0135577209293842
-0.0128606744110584
-0.0122895650565624
-0.0118283508345484
-0.011443174444139
-0.011094020679593
-0.0107444440945982
-0.0103697534650564
-0.009958985261619
-0.0095067713409662
-0.0090018948540091
-0.0084295738488435
-0.0077902795746922
-0.007112727034837
-0.0064474307000637
-0.0058492887765169
-0.0053603677079081
-0.0049995835870504
-0.0047622686251997
-0.0046279001981019
-0.0045721931383013
-0.0045820316299796
-0.004669165238738
-0.0048751523718237
-0.0052631013095378
-0.0058950511738657
-0.0068028448149561
-0.0079743675887584
-0.009365165606141
-0.0109138283878564
-0.0125445090234279
-0.0141682717949152
-0.0156930871307849
-0.0170374233275651
-0.0181406810879707
-0.0189663656055927
-0.019498785957694
-0.0197386760264635
-0.019699415192008
-0.0194023065268993
-0.0188716948032379
-0.0181290786713361
-0.0171889811754226
-0.0160670671612024
-0.0147950509563088
-0.0134234428405761
-0.012011487968266
-0.0106139201670885
-0.0092693222686648
-0.0079951845109462
-0.0067902579903602
-0.0056398180313408
-0.0045217699371278
-0.0034133661538362
-0.0022953348234295
-0.0011510383337736
3.428943455219269e-05
0.0012722127139568
0.0025715231895446
0.0039348877035081
0.005349189043045
0.0067819012328982
0.0081870667636394
0.0095153339207172
0.0107262078672647
0.0117955515161156
0.0127128669992089
0.0134773002937436
0.014099839143455
0.0146036082878708
0.0150171536952257
0.0153679586946964
0.0156788360327482
0.0159681681543588
0.0162576511502265
0.0165735650807619
0.0169291645288467
0.017309121787548
0.0176751650869846
0.0179829429835081
0.0181951280683279
0.0182867590337991
0.0182480625808239
0.0180873293429613
0.0178281366825103
0.0175003446638584
0.0171319004148244
0.016743766143918
0.0163435526192188
0.0159196332097053
0.0154423527419567
0.0148651022464036
0.0141190607100725
0.0131169576197862
0.0117770181968808
0.0100538479164242
0.0079570207744836
0.0055533307604491
0.0029579913243651
0.0003151843557134
-0.0022300675045698
-0.0045563448220491
-0.0065758544951677
-0.0082350317388772
-0.0095140049234032
-0.0104199182242155
-0.0109716029837727
-0.0111920787021517
-0.0111186038702726
-0.0108106574043631
-0.0103404587134718
-0.0097790705040097
-0.0091888094320893
-0.0086177270859479
-0.0080944895744323
-0.0076263821683824
-0.0072016958147287
-0.0067947097122669
-0.0063719805330038
-0.0059008933603763
-0.0053581111133098
-0.0047314497642219
-0.0040137530304491
-0.0032013005111366
-0.0023045227862894
-0.0013558088103309
-0.0004034508019685
0.0005005618440918
0.0013120039366185
0.0020025190897285
0.0025626982096582
0.0030011034104973
0.0033396556973457
0.003607033053413
0.0038335395511239
0.0040463060140609
0.0042638652957975
0.0044971662573516
0.0047578597441315
0.0050577973015606
0.0053951684385538
0.0057485131546854
0.0060874354094266
0.006384000647813
0.0066169369965791
0.0067735821940004
0.0068506328389048
0.0068520866334438
0.0067856200039386
0.0066610518842935
0.0064910920336842
0.0062890760600566
0.0060650138184428
0.0058301789686083
0.0056075230240821
0.0054277898743748
0.0053069004788994
0.0052274111658334
0.0051392195746302
0.0049710059538483
0.0046425275504589
0.0040759090334177
0.0032055871561169
0.0019904617220163
0.0004272917285561
-0.0014431430026888
-0.0035384614020586
-0.0057434700429439
-0.0079259406775236
-0.0099526746198534
-0.0116986483335495
-0.013060200959444
-0.013980958610773
-0.0144700799137353
-0.0145921017974615
-0.0144380759447813
-0.0141006428748369
-0.0136605687439441
-0.0131785981357097
-0.0126905059441924
-0.0122083285823464
-0.011727200821042
-0.0112332589924335
-0.0107093537226319
-0.0101384688168764
-0.0095046460628509
-0.0087914299219846
-0.0079844072461128
-0.0070836157537996
-0.0061145992949604
-0.0051242327317595
-0.0041661243885755
-0.0032873454038053
-0.0025195917114615
-0.0018742498941719
-0.001344159245491
-0.0009119724854826
-0.0005564666353166
-0.000252210535109
2.885563299059868e-05
0.0003105625510215
0.0006109052337706
0.0009482596069574
0.0013412926346063
0.0017957659438252
0.0022931774146854
0.0027954308316111
0.0032600462436676
0.0036516403779387
0.003944681957364
0.0041233552619814
0.0041823405772447
0.0041290647350251
0.0039870240725576
0.0037937811575829
0.0035900268703699
0.003408127464354
0.0032703545875847
0.0031958082690835
0.0032011619769036
0.0032876343466341
0.0034322403371334
0.0035958723165094
0.0037360158748924
0.0038150278851389
0.003806232009083
0.0036991564556956
0.0035014660097658
0.0032333778217434
0.0029145935550332
0.0025494126603007
0.0021169721148908
0.0015734797343611
0.0008717565797269
-9.871553629636765e-06
-0.0010540019720792
-0.0022171083837747
-0.0034494816791266
-0.0047022048383951
-0.0059239962138235
-0.0070597105659544
-0.0080555826425552
-0.0088680451735854
-0.0094690956175327
-0.0098457215353846
-0.0099972849711775
-0.0099335787817835
-0.009673262014985
-0.0092433020472526
-0.008677409030497
-0.0080090407282114
-0.0072654848918318
-0.0064730644226074
-0.0056658633984625
-0.0048854635097086
-0.0041721924208104
-0.0035538165830075
-0.0030365264974534
-0.0026031064335256
-0.0022200664971023
-0.0018478337442502
-0.0014485686551779
-0.0009935344569385
-0.0004701418802142
0.0001166427973657
0.0007518947822973
0.0014224336482584
0.0021193313878029
0.0028279225807636
0.0035211383365094
0.0041646240279078
0.0047259679995477
0.0051811323501169
0.0055162468925118
0.0057270219549536
0.0058191204443573
0.0058090351521968
0.0057228440418839
0.0055919969454407
0.0054486645385622
0.0053222118876874
0.0052371746860444
0.00521468417719
0.0052693509496748
0.0053962492384016
0.0055660204961895
0.0057374876923859
0.0058725057169795
0.005943258292973
0.0059338673017919
0.0058382572606205
0.00565717369318
0.005398922599852
0.0050821425393223
0.0047342339530587
0.0043851900845766
0.0040599545463919
0.0037733737844973
0.0035278068389743
0.0033040745183825
0.0030488113407045
0.0026781542692333
0.0021020392887294
0.0012542229378595
0.0001157070510089
-0.0012761172838509
-0.0028347228653728
-0.0044418512843549
-0.0059685157611966
-0.007295062765479
-0.0083271795883774
-0.0090083507820963
-0.0093255341053009
-0.0093002459034323
-0.0089707700535655
-0.0083839669823646
-0.0075995419174432
-0.0066920719109475
-0.0057437289506196
-0.0048307161778211
-0.0040099252946674
-0.0033149272203445
-0.0027597662992775
-0.0023405652027577
-0.0020355731248855
-0.0018098428845405
-0.0016226058360189
-0.0014329168479889
-0.0012040126603096
-0.0009057763963937
-0.0005139971617609
-1.4804070815443993e-05
0.0005822300445288
0.0012392553035169
0.0019031362608075
0.0025237617082893
0.0030658179894089
0.0035111755132675
0.0038552745245397
0.0041033918969333
0.004268545191735
0.0043707606382668
0.0044361352920532
0.0044927368871867
0.004564466420561
0.0046695033088326
0.0048252549022436
0.0050474954769015
0.0053365468047559
0.0056663895957171
0.0059913769364356
0.0062634004279971
0.0064448742195963
0.0065140780061483
0.0064671281725168
0.0063156522810459
0.0060791335999965
0.0057784700766205
0.005435069091618
0.0050703892484307
0.0047026602551341
0.0043483674526214
0.0040288353338837
0.003766328562051
0.0035693414974957
0.003425546688959
0.0033044673036783
0.0031600389629602
0.0029340796172618
0.002563351765275
0.0019894579891115
0.0011708654928952
9.414786472916604e-05
-0.0012173897121101
-0.0027015414088964
-0.004266744479537
-0.0058086910285055
-0.0072222258895635
-0.0084062637761235
-0.0092751765623688
-0.0097821094095706
-0.0099344607442617
-0.0097857154905796
-0.0094138467684388
-0.0089006479829549
-0.008316314779222
-0.0077110794372856
-0.0071131722070276
-0.0065312176011502
-0.0059625771827995
-0.0054040537215769
-0.0048567969352006
-0.0043245377019047
-0.0038065069820731
-0.0032884834799915
-0.0027462209109216
-0.0021647370886057
-0.0015517000574618
-0.0009307793807238
-0.0003277766518294
0.0002368292771279
0.0007501963991671
0.001207070890814
0.0016074365703389
0.0019541385117918
0.0022516883909702
0.0025067320093512
0.002730302978307
0.0029382708016783
0.003149745054543
0.0033863382413983
0.0036646914668381
0.0039796573109924
0.0042979139834642
0.0045731365680694
0.0047676218673586
0.0048640826717019
0.0048659327439963
0.0047926576808094
0.0046726469881832
0.0045336694456636
0.0043982570059597
0.004285963717848
0.0042126663029193
0.0041848253458738
0.0041986801661551
0.0042478060349822
0.0043271733447909
0.0044258143752813
0.0045212293043732
0.0045859403908252
0.0045965043827891
0.0045333565212786
0.0043717729859054
0.0040751043707132
0.0035989086609333
0.0029028174467384
0.0019643304403871
0.0007900282507762
-0.0005805474938824
-0.002077619312331
-0.0036039198748767
-0.0050391713157296
-0.0062604080885648
-0.0071770013310015
-0.0077556120231747
-0.008020038716495
-0.0080338371917605
-0.0078775165602564
-0.0076264766976237
-0.00733551569283
-0.0070359408855438
-0.0067423940636217
-0.0064587122760713
-0.0061794319190084
-0.0058915456756949
-0.005579228978604
-0.005228211171925
-0.0048256465233862
-0.0043618967756628
-0.0038387912791222
-0.0032730409875512
-0.0026884316466748
-0.0021071634255349
-0.0015479840803891
-0.0010248275939375
-0.0005428167060017
-9.901286102831364e-05
0.0003119781613349
0.000694747781381
0.0010536827612668
0.0013940962962806
0.0017217483837157
0.0020452728495001
0.0023831655271351
0.0027612361591309
0.0031940643675625
0.0036695490125566
0.0041524171829223
0.0045999670401215
0.0049756467342376
0.0052542998455464
0.0054222848266363
0.0054789506830275
0.005440394859761
0.0053383875638246
0.0052110911346971
0.0050906925462186
0.0049956128932535
0.0049338396638631
0.0049140793271362
0.0049480120651423
0.0050374558195471
0.0051639126613736
0.0052938489243388
0.0053927591070532
0.0054355934262275
0.0054077864624559
0.0052980743348598
0.0050880415365099
0.0047455849125981
0.0042275306768715
0.0034903415944427
0.0025046211667358
0.0012678211787715
-0.0001873041765065
-0.0017878733342513
-0.0034288826864212
-0.0049978718161582
-0.0063995043747127
-0.0075695049017667
-0.0084791956469416
-0.0091308560222387
-0.0095481425523757
-0.0097665302455425
-0.0098255611956119
-0.0097625153139233
-0.0096050659194588
-0.0093673607334494
-0.0090562310069799
-0.0086811007931828
-0.0082549918442964
-0.0077862218022346
-0.0072768279351294
-0.0067351851612329
-0.0061843805015087
-0.0056535424664616
-0.0051643084734678
-0.0047250846400856
-0.0043327696621418
-0.0039767432026565
-0.0036413632333278
-0.0033073988743126
-0.0029559023678302
-0.0025739520788192
-0.0021567335352301
-0.0017052562907338
-0.001222476363182
-0.0007060542702674
-0.0001458809711039
0.0004622442647814
0.0011021085083484
0.001741942949593
0.0023512109182775
0.002909714821726
0.0034051048569381
0.0038309590891003
0.0041899778880178
0.0044934013858437
0.0047548934817314
0.0049880198203027
0.005208570510149
0.0054343063384294
0.0056826896034181
0.0059713483788073
0.0063140210695564
0.0067071593366563
0.0071214591152966
0.007509128190577
0.0078204162418842
0.0080195404589176
0.0080937827005982
0.0080522298812866
0.0079169487580657
0.0077142789959907
0.0074660968966782
0.0071771652437746
0.0068243546411395
0.0063560670241713
0.0057071465998888
0.0048259375616908
0.0036929578054696
0.0023188279010355
0.0007358673028647
-0.0010040893685072
-0.0028320660348981
-0.0046710381284356
-0.0064456406980752
-0.0080867717042565
-0.0095351627096533
-0.0107459761202335
-0.0116896387189626
-0.0123497638851404
-0.0127229522913694
-0.0128182414919137
-0.0126533918082714
-0.0122506543993949
-0.0116395093500614
-0.0108671272173523
-0.0100009739398956
-0.0091159995645284
-0.0082778520882129
-0.0075311753898859
-0.0068944161757826
-0.0063594132661819
-0.0058933729305863
-0.0054459227249026
-0.0049628736451268
-0.0043993163853883
-0.0037257885560393
-0.0029297964647412
-0.0020136935636401
-0.0009876824915409
0.0001321583986282
0.0013150051236152
0.0025114752352237
0.0036640232428908
0.0047211525961756
0.0056474064476788
0.0064285551197826
0.0070713669992983
0.0075979232788085
0.0080375671386718
0.0084198107942938
0.00876987259835
0.0091071920469403
0.009445859119296
0.0097984196618199
0.0101826963946223
0.0106197101995348
0.0111170141026377
0.0116552980616688
0.0121940439566969
0.0126885846257209
0.0131040774285793
0.0134197641164064
0.0136243822053074
0.0137078203260898
0.0136521980166435
0.0134228318929672
0.0129638016223907
0.0122057870030403
0.0110839148983359
0.0095582939684391
0.0076348748989403
0.0053742630407214
0.002877022139728
0.0002599363215267
-0.0023600384593009
-0.0048751924186944
-0.0071941707283258
-0.0092464908957481
-0.0109841711819171
-0.0123806335031986
-0.0134271550923585
-0.0141298975795507
-0.0145086413249373
-0.0145964045077562
-0.0144386701285839
-0.0140858199447393
-0.0135792791843414
-0.0129475779831409
-0.0122181586921215
-0.0114272413775324
-0.010615998879075
-0.0098191574215888
-0.009055090136826
-0.0083242375403642
-0.0076148090884089
-0.0069064898416399
-0.0061720237135887
-0.0053828498348593
-0.0045157875865697
-0.0035573402419686
-0.0025055902078747
-0.0013667233288288
-0.0001470884308218
0.001147074624896
0.002497661858797
0.0038677211850881
0.0052103186026215
0.0064820409752428
0.0076491399668157
0.0086884731426835
0.0095893638208508
0.0103550851345062
0.0110023254528641
0.0115578938275575
0.0120518822222948
0.0125113306567072
0.0129569396376609
0.0134042613208293
0.0138686690479516
0.0143620669841766
0.0148786287754774
0.0153885409235954
0.0158481318503618
0.0162140652537345
0.0164517220109701
0.0165391098707914
0.0164701305329799
0.0162548534572124
0.0159128252416849
0.0154599705711007
0.0148923881351947
0.0141732869669795
0.0132296178489923
0.0119642289355397
0.0102845029905438
0.0081307981163263
0.0054901172406971
0.0024028718471527
-0.0010343834292143
-0.0046793441288173
-0.0083656590431928
-0.0119262663647532
-0.0152126997709274
-0.0181093588471412
-0.020542936399579
-0.0224834475666284
-0.0239349082112312
-0.0249226670712232
-0.02548573538661
-0.0256717763841152
-0.0255281534045934
-0.0250979475677013
-0.0244299247860908
-0.0235869027674198
-0.0226374994963407
-0.0216399822384119
-0.0206319894641637
-0.0196270234882831
-0.0186150018125772
-0.0175677146762609
-0.0164471734315156
-0.0152140520513057
-0.0138362906873226
-0.0122966058552265
-0.0105962865054607
-0.0087535548955202
-0.0067958608269691
-0.0047546392306685
-0.002671361900866
-0.0006029708310961
0.0013874126598238
0.0032475683838129
0.0049477061256766
0.0064822849817574
0.0078636473044753
0.0091117937117815
0.010248439386487
0.0112970331683754
0.0122808506712317
0.0132171092554926
0.014115534722805
0.0149873038753867
0.0158544909209013
0.016741732135415
0.0176531095057725
0.0185609981417655
0.0194178782403469
0.0201746076345443
0.0207908414304256
0.0212377049028873
0.0214996095746755
0.0215786695480346
0.0214968435466289
0.0212903451174497
0.0209981705993413
0.0206544622778892
0.0202876329421997
0.0199175234884023
0.0195459220558404
0.0191370081156492
0.0185937043279409
0.01775873452425
0.0164530165493488
0.0145260095596313
0.0118941459804773
0.0085628069937229
0.0046298867091536
0.0002715243026614
-0.0042854603379964
-0.0088015608489513
-0.0130624920129776
-0.0169021971523761
-0.0202089566737413
-0.0229204539209604
-0.0250121187418699
-0.0264886617660522
-0.0273860991001129
-0.0277734491974115
-0.0277451761066913
-0.0274087712168693
-0.0268691685050725
-0.0262123718857765
-0.0254944264888763
-0.0247379299253225
-0.0239361897110939
-0.0230636652559041
-0.0220881830900907
-0.0209789741784334
-0.0197104811668396
-0.018265277147293
-0.0166325308382511
-0.014805456623435
-0.0127898659557104
-0.0106178391724824
-0.0083494763821363
-0.0060594663955271
-0.003818916156888
-0.0016833418048918
0.0003121909685432
0.0021542785689234
0.0038498300127685
0.0054215202108025
0.0068990904837846
0.0083104241639375
0.0096781933680176
0.0110225323587656
0.0123641714453697
0.013718469068408
0.0150818694382905
0.0164269395172595
0.0177125968039035
0.0188990347087383
0.0199554562568664
0.020859757438302
0.0215971283614635
0.0221590492874383
0.0225423108786344
0.0227517914026975
0.0228042844682931
0.0227267872542142
0.0225506220012903
0.0223083347082138
0.0220356695353984
0.0217667501419782
0.021513320505619
0.0212424732744693
0.0208688396960496
0.0202611740678548
0.0192613638937473
0.0177135840058326
0.0154971536248922
0.0125572150573134
0.0089248400181531
0.0047174114733934
0.0001193396747112
-0.0046472614631056
-0.0093504590913653
-0.0137695018202066
-0.0177119169384241
-0.0210332684218883
-0.023657139390707
-0.0255800262093544
-0.0268537402153015
-0.027558758854866
-0.0277859754860401
-0.0276297833770513
-0.02718261256814
-0.0265263896435499
-0.0257266443222761
-0.0248312912881374
-0.0238706991076469
-0.022858090698719
-0.0217905826866626
-0.0206495523452758
-0.0194016601890325
-0.0180086717009544
-0.0164463184773921
-0.0147160962224006
-0.0128437122330069
-0.0108732227236032
-0.0088597368448972
-0.0068599483929574
-0.0049219522625207
-0.0030768499709665
-0.0013366162311285
0.0003016928676515
0.0018501736922189
0.0033262795768678
0.0047514662146568
0.0061513828113675
0.0075558954849839
0.0089909126982092
0.0104610556736588
0.0119423270225524
0.0133933974429965
0.0147711439058184
0.01604013890028
0.0171761270612478
0.0181653890758752
0.0190032813698053
0.0196933597326278
0.0202458836138248
0.0206764377653598
0.0210034698247909
0.0212432723492383
0.0214093402028083
0.0215196348726749
0.0215971693396568
0.0216551832854747
0.0216838847845792
0.0216513853520154
0.0215084198862314
0.0211864802986383
0.0205928180366754
0.0196109302341938
0.0181118119508028
0.0159767381846904
0.0131276780739426
0.0095554571598768
0.0053342273458838
0.0006171092391014
-0.004381894133985
-0.0094134984537959
-0.0142297660931944
-0.0186277367174625
-0.022477114573121
-0.0257182102650403
-0.0283412411808967
-0.0303647220134735
-0.0318216085433959
-0.0327516458928585
-0.0331973135471344
-0.0332041159272193
-0.0328234322369098
-0.0321132503449916
-0.0311336554586887
-0.0299395862966775
-0.028573777526617
-0.0270582735538482
-0.0253945458680391
-0.0235817283391952
-0.0216345880180597
-0.0195828303694725
-0.0174597091972827
-0.0152941653504967
-0.0131089212372899
-0.0109208850190043
-0.0087432097643613
-0.0065890066325664
-0.0044736652635037
-0.0024144169874489
-0.0004286165349185
0.0014700688188895
0.0032800079789012
0.0050189737230539
0.0067158611491322
0.0083888256922364
0.0100327506661415
0.0116240493953228
0.0131317507475614
0.0145273813977837
0.0157922692596912
0.0169219095259904
0.0179259851574897
0.0188212729990482
0.0196221396327018
0.0203387551009655
0.0209806933999061
0.021558329463005
0.02208455465734
0.0225776694715023
0.0230552554130554
0.0235182289034128
0.0239427760243415
0.0242888089269399
0.0245156977325677
0.024594310671091
0.0245084054768085
0.0242425240576267
0.0237609259784221
0.0229917280375957
0.0218293294310569
0.0201551057398319
0.0178675055503845
0.0149114979431033
0.011302244849503
0.0071404138579964
0.0026061255484819
-0.002076456323266
-0.0066854362376034
-0.0110338293015956
-0.0149818295612931
-0.0184367951005697
-0.0213482864201068
-0.023699389770627
-0.0254972055554389
-0.026766924187541
-0.0275488421320915
-0.0278933979570865
-0.027855098247528
-0.0274894796311855
-0.0268487036228179
-0.0259746350347995
-0.0249001160264015
-0.0236585829406976
-0.0222863517701625
-0.020814873278141
-0.0192663744091987
-0.0176552981138229
-0.0159880854189395
-0.0142654022201895
-0.0124913286417722
-0.0106793195009231
-0.0088489735499024
-0.0070213726721704
-0.0052167335525155
-0.0034496732987463
-0.0017220177687704
-2.0523089915513992e-05
0.0016723836306482
0.0033594027627259
0.0050194961950182
0.0066170543432235
0.0081171840429306
0.0094940643757581
0.0107314279302954
0.011823003180325
0.0127747058868408
0.0136040328070521
0.0143361715599894
0.014998260885477
0.0156136834993958
0.0161998886615037
0.016770452260971
0.0173387397080659
0.0179160051047801
0.0185006316751241
0.0190714113414287
0.0195946842432022
0.0200358759611845
0.0203654579818248
0.0205610021948814
0.0206064730882644
0.0204827487468719
0.0201506745070219
0.0195397734642028
0.0185528602451086
0.0170875638723373
0.0150675000622868
0.012472316622734
0.0093559483066201
0.0058399438858032
0.002082803286612
-0.0017515122890472
-0.0055113532580435
-0.0090661970898509
-0.0123107163235545
-0.0151665117591619
-0.0175847336649894
-0.0195450596511364
-0.0210471116006374
-0.0221006255596876
-0.0227225795388221
-0.0229423362761735
-0.0228060595691204
-0.0223715845495462
-0.0216976515948772
-0.0208394825458526
-0.0198522582650184
-0.0187913961708545
-0.0177050102502107
-0.0166240371763706
-0.0155556611716747
-0.0144848190248012
-0.0133834220468997
-0.0122211556881666
-0.0109738782048225
-0.0096282046288251
-0.0081818150356411
-0.0066420515067875
-0.0050249714404344
-0.003351820167154
-0.0016417200677096
8.838379289954901e-05
0.0018123192712664
0.0034909460227936
0.0050847306847572
0.0065661175176501
0.0079208482056856
0.0091432416811585
0.0102317249402403
0.0111868334934115
0.0120132779702544
0.012722784653306
0.0133328549563884
0.0138643020763993
0.0143396174535155
0.0147817283868789
0.0152137111872434
0.0156531017273664
0.0160986613482236
0.0165228247642517
0.0168801620602607
0.0171258579939603
0.0172303467988967
0.0171839501708745
0.0169967729598283
0.0166962184011936
0.0163177568465471
0.0158893726766109
0.0154147250577807
0.014858522452414
0.0141414273530244
0.0131542887538671
0.0117876632139086
0.0099556474015116
0.0076042199507355
0.0047186184674501
0.0013371463865041
-0.0024405568838119
-0.0064596785232424
-0.0105297500267624
-0.0144517431035637
-0.0180457551032304
-0.0211733356118202
-0.0237487312406301
-0.0257357209920883
-0.0271355547010898
-0.0279759261757135
-0.0283005237579345
-0.0281573962420225
-0.0275988653302192
-0.026694867759943
-0.0255381129682064
-0.0242320299148559
-0.0228725578635931
-0.0215321891009807
-0.0202517807483673
-0.0190412402153015
-0.0178822763264179
-0.0167323444038629
-0.0155361928045749
-0.0142420884221792
-0.0128135038539767
-0.0112350601702928
-0.0095125027000904
-0.0076640993356704
-0.0057145678438246
-0.0037020547315478
-0.0016835376154631
0.0002745662932284
0.0021113303955644
0.0037811815273016
0.0052591571584343
0.0065445615909993
0.0076605966314673
0.0086471000686287
0.009549337439239
0.0104070771485567
0.0112474262714385
0.012084012851119
0.0129233561456203
0.0137756923213601
0.0146549455821514
0.0155602665618062
0.0164632368832826
0.0173179451376199
0.0180780664086341
0.0187061671167612
0.0191777348518371
0.0194834731519222
0.0196289457380771
0.0196312107145786
0.0195142328739166
0.0193042457103729
0.0190216992050409
0.0186688899993896
0.0182208996266126
0.0176242645829916
0.0167989693582057
0.0156434476375579
0.0140517801046371
0.0119462218135595
0.0093090506270527
0.0061950334347784
0.0027237189933657
-0.0009388187900185
-0.0046036262065172
-0.0080863926559686
-0.0112343579530715
-0.0139439404010772
-0.0161633044481277
-0.017881341278553
-0.019108559936285
-0.0198599267750978
-0.020153634250164
-0.0200268998742103
-0.0195483732968568
-0.0188120231032371
-0.0179185196757316
-0.0169548820704221
-0.0159804504364728
-0.0150235658511519
-0.0140857212245464
-0.0131483590230345
-0.0121812326833605
-0.0111512346193194
-0.0100290831178426
-0.0087927505373954
-0.0074281762354075
-0.0059290891513228
-0.004302532877773
-0.0025803032331168
-0.0008218578295782
0.0008975387318059
0.0025048877578228
0.0039461539126932
0.0051950737833976
0.0062508406117558
0.0071312375366687
0.007866664789617
0.0084945894777774
0.0090552903711795
0.0095863509923219
0.0101137896999716
0.0106491092592477
0.0111998952925205
0.0117777409031987
0.012385431677103
0.0130021441727876
0.0135888997465372
0.0141023928299546
0.0145027749240398
0.0147596802562475
0.0148600256070494
0.0148118240758776
0.0146403927356004
0.0143790710717439
0.0140600018203258
0.013710930943489
0.0133554469794034
0.0130137577652931
0.0127044189721345
0.0124338427558541
0.0121679939329624
0.0118123516440391
0.0112233655527234
0.0102453706786036
0.0087530594319105
0.0066841430962085
0.0040567675605416
0.0009682429954409
-0.0024257386103272
-0.0059413146227598
-0.0093954233452677
-0.0126294381916522
-0.0155236069113016
-0.0179987791925668
-0.0200067311525344
-0.0215229224413633
-0.0225529856979846
-0.0231370739638805
-0.0233375951647758
-0.0232236497104167
-0.0228645354509353
-0.0223265308886766
-0.0216678008437156
-0.0209352970123291
-0.0201633386313915
-0.0193697176873683
-0.0185540243983268
-0.0177023261785507
-0.0167919192463159
-0.0157914720475673
-0.0146619230508804
-0.0133684845641255
-0.0119013534858822
-0.0102863488718867
-0.0085778683423995
-0.0068442360498011
-0.0051524932496249
-0.0035557011142373
-0.0020863201934844
-0.0007535358890891
0.0004568079020828
0.0015754627529531
0.002638081787154
0.0036755239125341
0.0047077988274395
0.0057426220737397
0.0067808623425662
0.0078206304460763
0.0088514313101768
0.0098496172577142
0.0107864290475845
0.0116390576586127
0.0123941041529178
0.013046646490693
0.01359857711941
0.0140565391629934
0.0144317746162414
0.0147395431995391
0.0149952992796897
0.0152106033638119
0.0153903616592288
0.0155352763831615
0.015652410686016
0.015758316963911
0.0158627722412347
0.0159542839974164
0.0160056110471487
0.0159859061241149
0.0158647932112216
0.0156065393239259
0.0151571203023195
0.0144368326291441
0.013351765461266
0.011819863691926
0.0097969537600874
0.0072924490086734
0.0043726549483835
0.0011575743556022
-0.0021856825333088
-0.0054653696715831
-0.0085064237937331
-0.0111845014616847
-0.0134352315217256
-0.0152459265664219
-0.0166401676833629
-0.0176635347306728
-0.0183729343116283
-0.0188258178532123
-0.0190711468458175
-0.0191475860774517
-0.0190871134400367
-0.0189169868826866
-0.0186560433357954
-0.0183065962046384
-0.0178483203053474
-0.0172460153698921
-0.0164722129702568
-0.0155251706019043
-0.014429310336709
-0.0132246827706694
-0.0119549147784709
-0.0106587503105402
-0.0093679577112197
-0.0081094857305288
-0.0069047310389578
-0.0057654548436403
-0.0046931505203247
-0.003681746777147
-0.0027194232679903
-0.0017871758900582
-0.0008533960208296
0.0001242980360984
0.0011806054972112
0.0023234519176185
0.0035320236347615
0.0047684567980468
0.0059927813708782
0.007173428311944
0.0082901231944561
0.009334098547697
0.0103089995682239
0.0112289451062679
0.0121121937409043
0.0129725765436887
0.0138137936592102
0.014632879756391
0.0154304411262273
0.016214458271861
0.0169910229742527
0.0177528746426105
0.018478063866496
0.0191394574940204
0.0197165142744779
0.0201992038637399
0.0205818191170692
0.0208522602915763
0.0209833029657602
0.0209281295537948
0.0206202417612075
0.0199826303869485
0.0189491901546716
0.0174910351634025
0.0156373046338558
0.0134780658408999
0.0111424811184406
0.0087674902752041
0.0064757568761706
0.0043640537187457
0.0024983189068734
0.0009133811108767
-0.0003864131867885
-0.0014247396029531
-0.0022448487579822
-0.0028962683863937
-0.0034236600622534
-0.0038644089363515
-0.0042504295706748
-0.0046042068861424
-0.0049321316182613
-0.0052277906797826
-0.0054858345538377
-0.0057123359292745
-0.0059237089008092
-0.0061377501115202
-0.0063628484494984
-0.0065921046771109
-0.0068055912852287
-0.0069779427722096
-0.0070865689776837
-0.0071172881871461
-0.0070673120208084
-0.0069459532387554
-0.0067722760140895
-0.0065699443221092
-0.0063589373603463
-0.0061486051417887
-0.0059413909912109
-0.0057431226596236
-0.0055660903453826
-0.0054228859953582
-0.0053193252533674
-0.0052517657168209
-0.0052082086913287
-0.0051705329678952
-0.0051177227869629
-0.0050320662558078
-0.0049058352597057
-0.0047423974610865
-0.0045506567694246
-0.0043362760916352
-0.0040943520143628
-0.0038136923685669
-0.0034932056441903
-0.0031519662588834
-0.0028232298791408
-0.0025392053648829
-0.0023175058886408
-0.002160033211112
-0.0020650001242756
-0.0020419703796505
-0.0021221321076154
-0.0023618508130311
-0.0028377193957567
-0.0036329273134469
-0.0048181861639022
-0.0064268545247614
-0.0084281060844659
-0.010720613412559
-0.0131595348939299
-0.0155939310789108
-0.0178899765014648
-0.0199404470622539
-0.0216702558100223
-0.0230396427214145
-0.0240386240184307
-0.0246738623827695
-0.0249595958739519
-0.0249164812266826
-0.0245726704597473
-0.0239634159952402
-0.0231291223317384
-0.0221110004931688
-0.0209431629627943
-0.0196491423994302
-0.0182504393160343
-0.016777366399765
-0.0152702573686838
-0.0137705970555543
-0.0123087577521801
-0.0108974613249301
-0.0095333950594067
-0.0082031553611159
-0.0068894298747181
-0.005574295297265
-0.0042409310117363
-0.0028745625168085
-0.001462404616177
6.105750799179077e-06
0.0015407102182507
0.0031474847346544
0.0048161102458834
0.0065127126872539
0.0081882383674383
0.0097929770126938
0.0112896040081977
0.0126605993136763
0.0139068039134144
0.0150386961176991
0.0160674341022968
0.0170035455375909
0.0178595129400491
0.0186468940228223
0.0193724203854799
0.0200434792786836
0.0206774249672889
0.0212965309619903
0.0219096634536981
0.0225047804415226
0.0230578240007162
0.0235419552773237
0.0239315759390592
0.0242062360048294
0.0243557170033454
0.0243820454925298
0.0242950245738029
0.0241016894578933
0.0237922668457031
0.0233290363103151
0.0226440727710723
0.0216493178158998
0.0202605295926332
0.0184210911393165
0.0161115024238824
0.0133549459278583
0.0102242566645145
0.0068372748792171
0.0033384030684828
-0.0001237830147147
-0.0034147053956985
-0.0064240219071507
-0.0090689146891236
-0.011292559094727
-0.0130615960806608
-0.0143654188141226
-0.015214629471302
-0.015635423362255
-0.0156614240258932
-0.0153326820582151
-0.01470398157835
-0.0138468341901898
-0.0128390621393918
-0.0117518939077854
-0.0106398854404687
-0.0095348320901393
-0.008445962332189
-0.0073661915957927
-0.0062806336209177
-0.0051724361255764
-0.0040240949019789
-0.0028180442750453
-0.0015395823866128
-0.0001754770055413
0.0012958040460944
0.0029054842889308
0.0046751610934734
0.0065958849154412
0.0086257047951221
0.0107024395838379
0.0127596100792288
0.0147372018545866
0.0165867041796445
0.0182730741798877
0.019774530082941
0.0210832469165325
0.0222076848149299
0.0231714472174644
0.0240079835057258
0.0247573852539062
0.0254651382565498
0.0261707715690135
0.0268848836421966
0.0275753606110811
0.0281766969710588
0.0286131761968135
