bvp
-0.0164816547185182
-0.0176137406378984
-0.0183852780610322
-0.018857792019844
-0.0190822295844554
-0.0190977156162261
-0.0189340710639953
-0.0186128765344619
-0.018148286268115
-0.0175506584346294
-0.0168308466672897
-0.0160016603767871
-0.0150783937424421
-0.0140755828469991
-0.0129974856972694
-0.0118375765159726
-0.0105946697294712
-0.0092861661687493
-0.0079440362751483
-0.0066016600467264
-0.0052852742373943
-0.0040134275332093
-0.002798200584948
-0.001645078882575
-0.0005534747615456
0.0004821782931685
0.0014728428795933
0.0024350453168153
0.0033864569850265
0.0043418048880994
0.0053171417675912
0.006331879645586
0.0073960470035672
0.0084966421127319
0.0095998160541057
0.0106631498783826
0.0116461301222443
0.0125161483883857
0.0132515244185924
0.0138422530144453
0.0142894834280014
0.0146047491580247
0.0148081490769982
0.0149240931496024
0.0149782430380582
0.0150006422773003
0.015027854591608
0.0150909991934895
0.0151962274685502
0.0153183583170175
0.0154109047725796
0.0154185332357883
0.0152809750288724
0.0149281723424792
0.0142776537686586
0.0132438885048031
0.0117586348205804
0.0097931744530797
0.0073699462227523
0.0045597674325108
0.0014712496194988
-0.0017601141007617
-0.0049813818186521
-0.0080402866005897
-0.0108160711824893
-0.0132414624094963
-0.0152985639870166
-0.017000239342451
-0.0183734167367219
-0.0194467566907405
-0.0202419031411409
-0.0207701958715915
-0.0210346635431051
-0.0210368055850267
-0.0207859054207801
-0.0203041899949312
-0.0196242183446884
-0.0187795851379632
-0.0177930891513824
-0.0166759006679058
-0.0154431397095322
-0.014124970883131
-0.0127589609473943
-0.0113771371543407
-0.0099991168826818
-0.0086304750293493
-0.0072663580067455
-0.0058992053382098
-0.0045251497067511
-0.0031445007771253
-0.0017594140954315
-0.0003738747909665
0.0010057329200208
0.0023735864087939
0.0037295827642083
0.005075947381556
0.0064037484116852
0.0076874135993421
0.0088945683091878
0.0099978912621736
0.0109808407723903
0.0118403518572449
0.0125859715044498
0.0132341142743825
0.0138029307126998
0.0143094211816787
0.0147670842707157
0.0151857901364564
0.0155718643218278
0.0159278269857168
0.0162561684846878
0.0165607724338769
0.0168393664062023
0.0170777309685945
0.0172530934214591
0.0173408091068267
0.0173203647136688
0.017180923372507
0.0169246532022953
0.0165645070374012
0.0161189511418342
0.0156082715839147
0.015049759298563
0.0144489370286464
0.0137905478477478
0.0130363088101148
0.0121297761797904
0.010998367331922
0.0095534361898899
0.007704752497375
0.00539181381464
0.0026129307225346
-0.000565979629755
-0.0040237950161099
-0.0076068574562668
-0.011154044419527
-0.0145204765722155
-0.0175933018326759
-0.0202951598912477
-0.022580724209547
-0.0244329031556844
-0.0258535481989383
-0.0268474481999874
-0.0274188537150621
-0.0275868363678455
-0.0273959580808877
-0.0269109103828668
-0.0262048989534378
-0.0253464952111244
-0.0243886057287454
-0.0233668312430381
-0.0223041586577892
-0.021212974563241
-0.0200937055051326
-0.0189346149563789
-0.0177148059010505
-0.016408983618021
-0.014991283416748
-0.0134378196671605
-0.0117330830544233
-0.0098841004073619
-0.0079320622608065
-0.005946593824774
-0.0040058312006294
-0.002177651040256
-0.0005091888597235
0.0009772190824151
0.002283371752128
0.0034301816485822
0.0044515701010823
0.0053891488350927
0.0062856096774339
0.0071779442951083
0.0080943051725626
0.0090547474101185
0.0100678261369466
0.0111200343817472
0.0121728228405117
0.0131744388490915
0.0140732564032077
0.0148243196308612
0.0153945991769433
0.0157704390585422
0.0159622393548488
0.0160014256834983
0.0159321799874305
0.0158021673560142
0.0156525615602731
0.0155096072703599
0.0153844505548477
0.0152788646519184
0.0151782669126987
0.0150295132771134
0.0147317433729767
0.0141556337475776
0.0131771871820092
0.0117089906707406
0.0097211897373199
0.0072505599819123
0.0043955966830253
0.0012992233969271
-0.0018740859813988
-0.0049614924937486
-0.0078204702585935
-0.0103420866653323
-0.0124568548053503
-0.0141286319121718
-0.0153477750718593
-0.0161334443837404
-0.0165337137877941
-0.0166156068444252
-0.0164500288665294
-0.0161007046699523
-0.0156220905482769
-0.0150586813688278
-0.0144415069371461
-0.0137872714549303
-0.0131000308319926
-0.012373611330986
-0.011595981195569
-0.0107555324211716
-0.0098443925380706
-0.0088518429547548
-0.0077589633874595
-0.0065502705983817
-0.0052298083901405
-0.0038246293552219
-0.0023787871468812
-0.0009450436336919
0.000423883087933
0.0016858060844242
0.0028192047029733
0.0038252957165241
0.0047213630750775
0.0055330689065158
0.0062874457798898
0.0070050433278083
0.0076984567567706
0.0083804056048393
0.0090653207153081
0.0097548393532633
0.0104262288659811
0.0110402628779411
0.0115574412047863
0.0119473077356815
0.0121924867853522
0.0122922258451581
0.0122622745111584
0.01213014498353
0.0119301937520504
0.0117005379870533
0.0114803221076726
0.0113044437021017
0.0111981853842735
0.0111782308667898
0.0112499790266156
0.0113898813724517
0.0115285636857151
0.0115531049668788
0.0113293752074241
0.0107332514598965
0.00967663154006
0.0081239817664027
0.0061002881266176
0.0036888513714075
0.0010175923816859
-0.0017633456736803
-0.0045057190582156
-0.0070819864049553
-0.0093924961984157
-0.0113633358851075
-0.0129488036036491
-0.0141411665827035
-0.014972124248743
-0.0155004207044839
-0.0157953854650259
-0.0159220322966575
-0.0159295536577701
-0.015848034992814
-0.0156935490667819
-0.0154729671776294
-0.0151845272630453
-0.014818855561316
-0.0143617838621139
-0.0137970792129635
-0.0131067708134651
-0.0122678149491548
-0.011256287805736
-0.010066001676023
-0.008722310885787
-0.0072759655304253
-0.0057874354533851
-0.004313132725656
-0.0028968160040676
-0.0015681367367506
-0.0003437327686697
0.0007742857560515
0.0017983627039939
0.0027500139549374
0.0036519318819046
0.0045224409550428
0.0053775152191519
0.0062393359839916
0.007134870160371
0.0080793090164661
0.0090654976665973
0.0100683383643627
0.0110535640269517
0.0119857192039489
0.0128344465047121
0.0135778347030282
0.0142037235200405
0.0147094400599598
0.0150991333648562
0.0153790144249796
0.0155527843162417
0.0156205147504806
0.0155846951529383
0.015459893271327
0.0152695393189787
0.0150276087224483
0.0147299394011497
0.0143633913248777
0.0139159131795167
0.0133819980546832
0.0127674825489521
0.0120908701792359
0.0113773550838232
0.0106442961841821
0.0098824994638562
0.0090462416410446
0.0080599738284945
0.0068364832550287
0.0053010378032922
0.003416022285819
0.001190529204905
-0.0013314522802829
-0.0040865410119295
-0.0069969943724572
-0.0099714426323771
-0.0129098109900951
-0.0157123319804668
-0.0182912275195121
-0.0205816198140382
-0.0225451849400997
-0.0241659693419933
-0.0254422724246978
-0.0263779237866401
-0.0269773323088884
-0.0272459425032138
-0.0271899811923503
-0.0268167480826377
-0.0261457934975624
-0.0252226889133453
-0.0241170395165681
-0.0229065045714378
-0.0216600652784109
-0.0204256642609834
-0.0192242972552776
-0.0180528946220874
-0.0168921686708927
-0.015716079622507
-0.0145008387044072
-0.0132284583523869
-0.0118863312527537
-0.0104655725881457
-0.0089563559740781
-0.0073506478220224
-0.0056588966399431
-0.0039209756068885
-0.0021973578259348
-0.0005503380671143
0.0009726011194288
0.0023480386007577
0.0035770400427281
0.0046784896403551
0.0056803827174007
0.0066137420944869
0.0075085693970322
0.0083890780806541
0.0092683127149939
0.0101468944922089
0.0110200680792331
0.0118837039917707
0.0127286538481712
0.0135337449610233
0.0142687428742647
0.0149022564291954
0.0154103273525834
0.0157849434763193
0.0160364061594009
0.016187472268939
0.0162660181522369
0.0162982270121574
0.0162964668124914
0.0162440761923789
0.0160893835127353
0.0157576464116573
0.0151752661913633
0.014286570250988
0.0130553804337978
0.0114660803228616
0.0095325093716382
0.0073051238432526
0.0048672594130039
0.0023218058049678
-0.0002243942581117
-0.0026707130018621
-0.0049277916550636
-0.0069234631955623
-0.0086063733324408
-0.0099436473101377
-0.0109188677743077
-0.0115302465856075
-0.0117844827473163
-0.0116970557719469
-0.0113050024956464
-0.0106737371534109
-0.0098854750394821
-0.0090203406289219
-0.008142564445734
-0.007293352857232
-0.0064885518513619
-0.005719609092921
-0.0049576647579669
-0.0041637858375906
-0.0033033322542905
-0.0023557394742965
-0.0013164263218641
-0.0001915032044053
0.0010116826742887
0.0022838036529719
0.0035988288000226
0.0049075246788561
0.0061510726809501
0.0072810985147953
0.0082710469141602
0.0091160787269473
0.009826123714447
0.0104161668568849
0.0109002394601702
0.0112938452512025
0.0116179063916206
0.0118964370340108
0.0121496608480811
0.0123911928385496
0.0126334093511104
0.012888403609395
0.01315757073462
0.0134260766208171
0.0136709231883287
0.0138712776824831
0.0140114668756723
0.0140800140798091
0.0140708899125456
0.0139837153255939
0.0138203985989093
0.0135843083262443
0.0132828606292605
0.0129277287051081
0.0125331617891788
0.0121164862066507
0.0116978147998452
0.0112896431237459
0.0108751431107521
0.0103933308273553
0.0097473412752151
0.0088273305445909
0.0075339274480938
0.0058023948222398
0.0036258036270737
0.0010632378980517
-0.0017748600803315
-0.0047537279315292
-0.0077373967505991
-0.0106035051867365
-0.0132546322420239
-0.0156236989423632
-0.0176689438521862
-0.0193685069680213
-0.0207238160073757
-0.0217616520822048
-0.0225250124931335
-0.0230595208704471
-0.0234032236039638
-0.0235788393765687
-0.0235881507396698
-0.0234104692935943
-0.0230073556303977
-0.0223352462053298
-0.0213611014187335
-0.0200733169913291
-0.0184846520423889
-0.0166242383420467
-0.0145214218646287
-0.0121966330334544
-0.0096628898754715
-0.0069280196912586
-0.0040022283792495
-0.0009175103041343
0.0022517165634781
0.0053781494498252
0.0082877269014716
0.0107878856360912
0.0127092152833938
0.0139413680881261
0.0144597953185439
0.0143493963405489
0.0138155836611986
0.0131666250526905
0.0127586778253316
0.012899694032967
0.0137394908815622
0.0152106881141662
0.0170549992471933
0.0189065728336572
0.0203857459127903
0.0211737975478172
0.0210593603551387
0.0199579447507858
0.017907865345478
0.0150460917502641
0.0115697542205452
0.0076935924589633
0.0036168918013572
-0.0004903599619865
-0.0044854474253952
-0.0082528917118906
-0.0117152594029903
-0.0148380156606435
-0.0176185704767704
-0.0200782995671033
-0.0222671069204807
-0.0242641400545835
-0.0261676423251628
-0.0280815511941909
-0.0301039591431617
-0.0323283411562442
-0.0348556227982044
-0.0377860590815544
-0.0411807596683502
-0.0450217723846435
-0.0491925813257694
-0.0534854084253311
-0.0576334968209266
-0.0613477975130081
-0.0643416047096252
-0.0663483366370201
-0.0671406239271164
-0.0665529146790504
-0.0645060762763023
-0.0610274970531463
-0.0562555342912673
-0.0504210442304611
-0.0438135154545307
-0.036749679595232
-0.0295518692582845
-0.022523708641529
-0.0159144923090934
-0.0098854564130306
-0.0044892765581607
0.0003379322588443
0.0047659650444984
0.0090390928089618
0.0134392566978931
0.0182548537850379
0.0237475782632827
0.0301117878407239
0.0374427810311317
0.0457289591431617
0.0548580065369606
0.0646199658513069
0.0747018307447433
0.0846829563379287
0.0940432697534561
0.1021869778633117
0.1084900572896003
0.1123794689774513
0.1134262531995773
0.1114269718527793
0.1064566001296043
0.0988763570785522
0.0892896875739097
0.0784564465284347
0.0671815425157547
0.0561990961432457
0.0460772179067134
0.0371588729321956
0.0295482091605663
0.0231486223638057
0.0177334677428007
0.0130103239789605
0.0086666252464056
0.0044110189191997
8.446164429187775e-06
-0.0047021778300404
-0.0098026078194379
-0.0152929108589887
-0.021090343594551
-0.0270316693931818
-0.0328840650618076
-0.0383701622486114
-0.0432052128016948
-0.0471353195607662
-0.0499680265784263
-0.0515906848013401
-0.0519755519926548
-0.0511853508651256
-0.0493838749825954
-0.0468257330358028
-0.0438134595751762
-0.0406450629234313
-0.037573654204607
-0.0347816124558448
-0.0323655791580677
-0.0303361266851425
-0.0286380350589752
-0.0271831564605236
-0.0258784480392932
-0.024639543145895
-0.0233925841748714
-0.0220714658498764
-0.0206169579178094
-0.018984405323863
-0.0171562731266021
-0.0151466652750968
-0.0129961818456649
-0.0107609182596206
-0.008495794609189
-0.0062404461205005
-0.0040168073028326
-0.001834874972701
0.000301418825984
0.0023911073803901
0.0044356472790241
0.0064383689314126
0.008400809019804
0.0103237191215157
0.0122193032875657
0.0141138462349772
0.016025498509407
0.0179426446557045
0.0198260061442852
0.0216246806085109
0.0232905056327581
0.024786939844489
0.0260945968329906
0.0272122453898191
0.0281520020216703
0.0289334487169981
0.0295797567814588
0.0301158875226974
0.0305689498782157
0.0309689715504646
0.0313485637307167
0.0317363925278186
0.032141163945198
0.0325385853648185
0.0328751280903816
0.0330827720463275
0.0330932289361953
0.0328507870435714
0.0323232300579547
0.0315049067139625
0.0304103922098875
0.0290615390986204
0.0274707451462745
0.0256288442760705
0.0235087964683771
0.0210871510207653
0.0183710604906082
0.0154085028916597
0.0122739318758249
0.009049218147993
0.0058161420747637
0.0026560220867395
-0.0003509297966957
-0.0031300066038966
-0.0056199934333562
-0.0077798548154532
-0.0095912329852581
-0.011057055555284
-0.0121961720287799
-0.0130380326882004
-0.0136226825416088
-0.0140002695843577
-0.0142218377441167
-0.0143310530111193
-0.0143685499206185
-0.0143785905092954
-0.014405945315957
-0.0144864115864038
-0.0146367400884628
-0.0148490872234106
-0.0150954779237508
-0.015338247641921
-0.0155371408909559
-0.0156535077840089
-0.0156576931476593
-0.0155364070087671
-0.0152920940890908
-0.0149347744882106
-0.014473482966423
-0.0139173520728945
-0.0132870180532336
-0.0126197151839733
-0.0119592687115073
-0.0113425441086292
-0.01079345587641
-0.0103225391358137
-0.0099267056211829
-0.009589809924364
-0.0092867501080036
-0.0089911986142396
-0.0086832055822014
-0.0083529455587267
-0.0080020055174827
-0.0076395906507968
-0.0072711985558271
-0.0068958792835474
-0.0065195951610803
-0.0061622895300388
-0.0058495458215475
-0.0056033991277217
-0.005436185747385
-0.0053453184664249
-0.0053133871406316
-0.0053145363926887
-0.0053213629871606
-0.0053087510168552
-0.0052603315562009
-0.0051819887012243
-0.0051152259111404
-0.0051381662487983
-0.0053484160453081
-0.0058395769447088
-0.0066858194768428
-0.0079302294179797
-0.0095709366723895
-0.0115533275529742
-0.013777052052319
-0.016115054488182
-0.0184350442141294
-0.0206157248467206
-0.0225574392825365
-0.0241911504417657
-0.025481928139925
-0.0264214109629392
-0.0270160045474767
-0.0272780582308769
-0.0272194053977727
-0.0268529597669839
-0.0262059327214956
-0.025328941643238
-0.024287711828947
-0.0231462866067886
-0.021955668926239
-0.0207491051405668
-0.0195396095514297
-0.0183207280933856
-0.0170714370906353
-0.0157630071043968
-0.014367832802236
-0.0128673613071441
-0.0112540312111377
-0.00952800642699
-0.0076926536858081
-0.0057564848102629
-0.0037433966062963
-0.0016969400458037
0.0003279442898929
0.0022768853232264
0.00410664267838
0.0057919090613722
0.0073263118974864
0.0087209455668926
0.0100018829107284
0.0112036233767867
0.0123588070273399
0.013490242883563
0.0146105997264385
0.0157284401357173
0.016854491084814
0.0179986152797937
0.0191560126841068
0.0202996805310249
0.021389041095972
0.0223815757781267
0.0232338681817054
0.0238936208188533
0.024292828515172
0.0243499428033828
0.0239835642278194
0.0231337621808052
0.0217811465263366
0.0199569836258888
0.0177429821342229
0.0152625180780887
0.0126667413860559
0.0101120807230472
0.0077285580337047
0.005596540402621
0.0037455121055245
0.0021675480529665
0.0008349232375621
-0.000282485038042
-0.0012036440894007
-0.0019302256405353
-0.002448221668601
-0.0027340771630406
-0.002763407304883
-0.0025230692699551
-0.0020217467099428
-0.0012893825769424
-0.0003648642450571
0.0007130643352866
0.0019000079482793
0.0031381985172629
0.0043637761846184
0.0055229696445167
0.0065820896998047
0.0075281769968569
0.0083649968728423
0.0091072060167789
0.0097749372944235
0.0103886080905795
0.0109620485454797
0.0114993499591946
0.0119996629655361
0.0124670108780264
0.0129192480817437
0.0133823724463582
0.0138692185282707
0.0143667794764041
0.0148437591269612
0.0152647756040096
0.0155993960797786
0.0158269330859184
0.0159417204558849
0.015956686809659
0.0158996656537055
0.0158045161515474
0.0157035272568464
0.0156217385083436
0.0155715849250555
0.0155501179397106
0.0155358277261257
0.0154765378683805
0.0152770560234785
0.0148089006543159
0.013942789286375
0.0125830117613077
0.0106902327388525
0.0082919429987668
0.0054814545437693
0.0024036206305027
-0.00077122496441
-0.0038757110014557
-0.00676786666736
-0.0093449484556913
-0.0115474825724959
-0.0133534269407391
-0.0147662321105599
-0.0158079825341701
-0.0165237374603748
-0.0169829800724983
-0.0172641295939683
-0.0174313485622406
-0.0175192188471555
-0.0175278484821319
-0.0174279101192951
-0.0171758215874433
-0.0167335383594036
-0.0160868875682353
-0.015254084020853
-0.0142781706526875
-0.0132125802338123
-0.012108227238059
-0.011001992970705
-0.0099156396463513
-0.008867016993463
-0.0078776329755783
-0.0069692311808466
-0.0061534428969025
-0.0054226126521825
-0.0047518676146864
-0.0041094152256846
-0.0034624952822923
-0.0027793291956186
-0.0020359419286251
-0.0012234929017722
-0.0003472054377198
0.0005783680826425
0.0015328172594308
0.0024948697537183
0.0034438446164131
0.00435296818614
0.0051846131682395
0.0058953817933797
0.0064474446699023
0.0068198330700397
0.0070137120783329
0.0070497123524546
0.0069618541747331
0.0067904070019721
0.0065734721720218
0.0063399663195014
0.0061053428798913
0.0058723473921418
0.0056410189718008
0.0054195094853639
0.0052164690569043
0.0050153182819485
0.0047563631087541
0.0043432284146547
0.0036673871800303
0.002639440819621
0.0012162709608674
-0.0005860496312379
-0.002694952301681
-0.0049945944920182
-0.0073465788736939
-0.0096149453893303
-0.0116889774799346
-0.0134954368695616
-0.0149945709854364
-0.0161667559295892
-0.0170059446245431
-0.0175222977995872
-0.0177417695522308
-0.0177000481635332
-0.0174371115863323
-0.0169939827173948
-0.0164099894464015
-0.0157204139977693
-0.0149556081742048
-0.0141410455107688
-0.0132970381528139
-0.0124373119324445
-0.0115682445466518
-0.01069101318717
-0.0098021896556019
-0.0088894087821245
-0.0079327737912535
-0.0069205360487103
-0.0058652041479945
-0.0048009390011429
-0.0037657704669982
-0.0027883523143827
-0.0018861352000385
-0.0010667673777788
-0.0003268993459641
0.0003497202415019
0.0009903637692332
0.0016265041194856
0.0022841482423245
0.0029775719158351
0.0037128790281713
0.0044958898797631
0.0053304568864405
0.0062061166390776
0.0070909038186073
0.0079381400719285
0.0087000634521245
0.0093394890427589
0.0098364520817995
0.0101900957524776
0.0104157850146293
0.0105384346097707
0.010585268959403
0.0105808582156896
0.0105452351272106
0.0104952100664377
0.0104498574510216
0.0104357777163386
0.0104802753776311
0.0105929411947727
0.0107526844367384
0.0109074087813496
0.0109801087528467
0.0108786541968584
0.0105100460350513
0.0097984699532389
0.0087036881595849
0.0072322255000472
0.0054376772604882
0.0034130839630961
0.0012771189212799
-0.0008448474109172
-0.0028362497687339
-0.0045945108868181
-0.0060391500592231
-0.0071318293921649
-0.007887857966125
-0.0083635682240128
-0.0086311623454093
-0.008758183568716
-0.0087989382445812
-0.0087932478636503
-0.008764024823904
-0.0087148314341902
-0.0086328005418181
-0.008495345711708
-0.008278090506792
-0.0079619940370321
-0.0075339414179325
-0.0069831311702728
-0.0063046175055205
-0.0055089509114623
-0.0046256221830844
-0.0036978158168494
-0.0027733275201171
-0.0018932776292786
-0.0010839209426194
-0.0003574801667127
0.0002831571910064
0.0008424370898865
0.001331434585154
0.0017664672341197
0.0021667466498911
0.0025498673785477
0.0029292546678334
0.0033194639254361
0.0037375902757048
0.0041882446967065
0.0046504964120686
0.0050850748084485
0.0054506575688719
0.0057170172221958
0.005872112698853
0.0059207868762314
0.0058808219619095
0.0057803960517048
0.005650732666254
0.005516025237739
0.0053907479159533
0.0052839079871773
0.0052051562815904
0.0051697297021746
0.0051928395405411
0.0052734855562448
0.0053865788504481
0.0054916241206228
0.0055471598170697
0.0055231368169188
0.0054087503813207
0.0052095279097557
0.0049334811046719
0.0045767528936266
0.0041165272705256
0.003514431649819
0.0027309486176818
0.0017439643852412
0.0005647898651659
-0.0007525966502726
-0.0021213821601122
-0.0034526942763477
-0.0046821157447993
-0.0057742819190025
-0.0067154681310057
-0.0075062848627567
-0.008156232535839
-0.0086790062487125
-0.0090873017907142
-0.0093872025609016
-0.0095756249502301
-0.0096446294337511
-0.0095908679068088
-0.009420814923942
-0.009144676849246
-0.0087663792073726
-0.008285635150969
-0.0077133011072874
-0.0070799090899527
-0.0064263367094099
-0.0057898331433534
-0.005197387188673
-0.0046629887074232
-0.0041853003203868
-0.0037497046869248
-0.0033350470475852
-0.0029197838157415
-0.002484469441697
-0.0020126055460423
-0.0014921091496944
-0.000913803000003
-0.0002661745529621
0.0004629956092685
0.0012743771076202
0.0021474054083228
0.0030420825351029
0.0039088148623704
0.0046989717520773
0.0053720409050583
0.0059028463438153
0.0062872311100363
0.0065387575887143
0.0066811135038733
0.0067449957132339
0.0067672347649931
0.0067856181412935
0.0068324431777
0.0069356719031929
0.0071192681789398
0.0073905894532799
0.0077295135706663
0.0080943945795297
0.0084352847188711
0.0087051391601562
0.0088704582303762
0.0089186262339353
0.0088563971221446
0.0087018674239516
0.0084769129753112
0.0082027576863765
0.0078971935436129
0.0075715603306889
0.007228369358927
0.0068612457253038
0.0064502777531743
0.0059512453153729
0.0052962899208068
0.0044134920462965
0.0032528243027627
0.0018067047931253
0.0001173657365143
-0.0017308269161731
-0.0036284651141613
-0.0054620802402496
-0.0071338489651679
-0.0085748583078384
-0.0097485184669494
-0.0106433797627687
-0.0112609500065445
-0.0116067128255963
-0.0116911064833402
-0.0115394368767738
-0.0111955571919679
-0.010713143274188
-0.0101482141762971
-0.0095565719529986
-0.0089870849624276
-0.0084732444956898
-0.0080302003771066
-0.0076558259315788
-0.0073336279019713
-0.0070374612696468
-0.0067374287173151
-0.0064054979011416
-0.0060152946971356
-0.0055350582115352
-0.0049303513951599
-0.0041851745918393
-0.0033179521560668
-0.0023747058585286
-0.0014112025965005
-0.0004770522937178
0.0003934756387025
0.001181149855256
0.0018769553862512
0.0024798577651381
0.0029957068618386
0.0034349614288657
0.0038115754723548
0.0041423328220844
0.0044465912505984
0.0047482978552579
0.0050720479339361
0.0054282154887914
0.0058029014617204
0.0061658611521124
0.0064867129549384
0.0067448448389768
0.0069327056407928
0.0070572635158896
0.0071369386278092
0.0071943723596632
0.0072508081793785
0.0073216455057263
0.0074121835641562
0.0075171934440732
0.0076271491125226
0.0077379597350955
0.0078510893508791
0.0079590305685997
0.0080316038802266
0.0080143446102738
0.0078363176435232
0.0074229552410542
0.0067113116383552
0.0056659625843167
0.0042895544320344
0.0026239547878503
0.0007460541091859
-0.0012405603192746
-0.0032197972759604
-0.0050804186612367
-0.0067293467000126
-0.0080967247486114
-0.0091409999877214
-0.0098584666848182
-0.0102838650345802
-0.0104758702218532
-0.0104985563084483
-0.0104070445522665
-0.0102396728470921
-0.0100189261138439
-0.0097580114379525
-0.0094659160822629
-0.0091488724574446
-0.0088094174861907
-0.0084426514804363
-0.0080336341634392
-0.0075602969154715
-0.0069985976442694
-0.0063301492482423
-0.0055535594001412
-0.0046898145228624
-0.0037765456363558
-0.0028573041781783
-0.0019723721779882
-0.0011546411551535
-0.0004279729910194
0.0001952392049133
0.000716614536941
0.0011527389287948
0.0015312868636101
0.0018830033950507
0.0022360389120876
0.002616771031171
0.0030532921664416
0.0035700004082173
0.0041715558618307
0.0048344898968935
0.0055164671503007
0.00617132242769
0.006760680116713
0.0072620790451765
0.0076700411736965
0.0079896077513694
0.0082313120365142
0.0084100924432277
0.0085417916998267
0.0086388085037469
0.0087102120742201
0.0087661482393741
0.0088232792913913
0.0089008612558245
0.0090048145502805
0.009117966517806
0.0092068612575531
0.0092356614768505
0.0091781634837389
0.009023112244904
0.0087722092866897
0.0084370616823434
0.0080341286957263
0.0075719822198152
0.0070380764082074
0.006396526005119
0.0055976933799684
0.0045956401154398
0.0033677699975669
0.0019222010159865
0.0002878766972571
-0.0014952607452869
-0.0033761558588594
-0.0052917758002877
-0.0071724290028214
-0.0089512392878532
-0.0105728209018707
-0.0119966622442007
-0.0131956739351153
-0.0141542851924896
-0.0148672657087445
-0.0153391556814312
-0.0155842285603284
-0.0156224742531776
-0.015471251681447
-0.0151443611830472
-0.0146638080477714
-0.0140687646344304
-0.0134086059406399
-0.0127288503572344
-0.0120632611215114
-0.0114320628345012
-0.0108401738107204
-0.0102756461128592
-0.0097125321626663
-0.0091176470741629
-0.0084581822156906
-0.0077087748795747
-0.006856863386929
-0.0059027760289609
-0.0048533626832067
-0.0037203542888164
-0.0025276220403611
-0.0013126195408403
-0.0001184088177978
0.0010150764137506
0.0020590466447174
0.0030010840855538
0.0038440828211605
0.0046014585532248
0.0052928477525711
0.0059412261471152
0.0065690465271472
0.0071928035467863
0.0078190229833126
0.008446080610156
0.0090722562745213
0.0096982549875974
0.0103174149990081
0.0109085720032453
0.0114418994635343
0.0118887312710285
0.0122290067374706
0.012456894852221
0.0125814108178019
0.0126209314912557
0.01259695738554
0.0125295147299766
0.0124322567135095
0.012309649027884
0.0121608134359121
0.0119893830269575
0.0118102375417947
0.0116398651152849
0.0114733921363949
0.0112703554332256
0.0109593560919165
0.0104512423276901
0.0096541587263345
0.0084937568753957
0.0069350036792457
0.004994096700102
0.0027375440113246
0.0002725260565057
-0.0022705192677676
-0.0047582676634192
-0.0070707448758184
-0.0091109536588191
-0.0108066741377115
-0.0121127860620617
-0.0130215613171458
-0.01356793474406
-0.0138193378224968
-0.0138570815324783
-0.0137584246695041
-0.0135843101888895
-0.0133745148777961
-0.0131488321349024
-0.0129096703603863
-0.0126452567055821
-0.0123366471379995
-0.0119641190394759
-0.0115094548091292
-0.010956922546029
-0.010292706079781
-0.0095081478357315
-0.0086096599698066
-0.0076214014552533
-0.006576067302376
-0.00550550641492
-0.0044361054897308
-0.0033867028541862
-0.0023678326979279
-0.0013835239224135
-0.0004373108968138
0.0004619602113962
0.0013021589256823
0.002076746430248
0.0027897302061319
0.0034544507507234
0.004095715470612
0.004747949540615
0.0054378034546971
0.0061690574511885
0.0069255335256457
0.0076816282235085
0.0084106912836432
0.0090915411710739
0.0097136292606592
0.0102784615010023
0.0107958577573299
0.0112780444324016
0.0117352325469255
0.0121735632419586
0.0125956144183874
0.0130044482648372
0.0134067647159099
0.0138061698526144
0.0141902454197406
0.0145270712673664
0.0147762354463338
0.0149025777354836
0.0148825431242585
0.0147070223465561
0.0143840601667761
0.013936661183834
0.0133944768458604
0.0127803413197398
0.0120946457609534
0.0113074639812111
0.0103627350181341
0.0091919023543596
0.0077352835796773
0.0059602614492177
0.0038661449216306
0.0014835800975561
-0.0011256118305027
-0.003873061388731
-0.006654298864305
-0.0093624144792556
-0.0119010638445615
-0.0141928791999816
-0.0161829330027103
-0.0178402476012706
-0.0191570483148098
-0.0201423745602369
-0.0208141021430492
-0.0211937483400106
-0.0213003791868686
-0.0211480595171451
-0.0207546111196279
-0.0201525036245584
-0.0193903688341379
-0.018525380641222
-0.017610166221857
-0.0166822578758001
-0.0157629419118165
-0.0148598188534379
-0.0139671517536044
-0.0130681004375219
-0.0121427550911903
-0.0111771505326032
-0.0101656652987003
-0.0091059748083353
-0.0079919463023543
-0.006814373191446
-0.0055739935487508
-0.0042915670201182
-0.0030031530186533
-0.0017489325255155
-0.0005631428211927
0.000532483914867
0.0015306116547435
0.0024375333450734
0.003270081942901
0.0040513672865927
0.0048071495257318
0.0055604209192097
0.0063262530602514
0.0071149077266454
0.0079402523115277
0.0088169192895293
0.0097428513690829
0.0106894485652446
0.011612725444138
0.0124701559543609
0.0132285170257091
0.0138656962662935
0.0143713019788265
0.0147458370774984
0.0149990655481815
0.0151476003229618
0.0152109637856483
0.0152092324569821
0.0151632968336343
0.0150950262323021
0.0150273507460951
0.0149786006659269
0.014948452822864
0.01491220574826
0.0148323057219386
0.0146743040531873
0.0144153218716382
0.0140420608222484
0.013541511259973
0.0128902848809957
0.0120487445965409
0.0109640667214989
0.0095806261524558
0.0078555550426244
0.0057777045294642
0.0033835344947874
0.0007619876414537
-0.0019598016515374
-0.0046483394689857
-0.0071935351006686
-0.0095220636576414
-0.0115977870300412
-0.0134154986590147
-0.0149898882955312
-0.0163415353745222
-0.0174850244075059
-0.0184244439005851
-0.0191574469208717
-0.0196822267025709
-0.0199985709041357
-0.0201051142066717
-0.0199991464614868
-0.0196761433035135
-0.019134609028697
-0.0183920841664075
-0.0174929685890674
-0.0164955407381057
-0.0154550299048423
-0.0144145153462886
-0.0133993225172162
-0.0124157201498746
-0.0114566553384065
-0.010508400388062
-0.0095537574961781
-0.0085755586624145
-0.0075607555918395
-0.0065016304142773
-0.0053945863619446
-0.0042381472885608
-0.0030344328843057
-0.0017962378915399
-0.0005502292187884
0.0006693279719911
0.00182827480603
0.0028982278890907
0.0038628908805549
0.0047221663407981
0.0054921191185712
0.0062002632766962
0.0068751825019717
0.0075377444736659
0.0081995101645588
0.0088639799505472
0.009530377574265
0.0102019011974334
0.0108871404081583
0.0115858819335699
0.0122751090675592
0.0129141462966799
0.0134626794606447
0.0138920405879616
0.0141856838017702
0.0143385892733931
0.0143574485555291
0.0142578976228833
0.0140603752806782
0.0137869138270616
0.0134590789675712
0.0130968932062387
0.0127182994037866
0.0123352836817502
0.0119397556409239
0.0114849172532558
0.0108806826174259
0.0100134219974279
0.0087828561663627
0.0071348659694194
0.0050738248974084
0.0026582065038383
-1.0940711945295334e-05
-0.0028056548908352
-0.0055881468579173
-0.0082272859290242
-0.0106145748868584
-0.0126755777746438
-0.0143706453964114
-0.0156837552785873
-0.0166115406900644
-0.0171669628471136
-0.017389427870512
-0.0173437017947435
-0.0171056762337684
-0.0167417060583829
-0.0162883251905441
-0.0157385431230068
-0.0150331426411867
-0.0140543486922979
-0.012633254751563
-0.0105801634490489
-0.0077268723398447
-0.0039665531367063
0.0007189929019659
0.0062547354027628
0.0124828796833753
0.0191742349416017
0.0260471291840076
0.0328005254268646
0.0391502156853675
0.0448570884764194
0.0497460439801216
0.0537168495357036
0.0567457377910614
0.0588768608868122
0.0602063313126564
0.0608635656535625
0.0609909892082214
0.0607165843248367
0.060118943452835
0.0591951757669448
0.0578399822115898
0.0558493509888649
0.0529660917818546
0.0489569269120693
0.0436866134405136
0.0371614247560501
0.0295354202389717
0.0210931003093719
0.0122208222746849
0.0033655874431133
-0.0050208792090415
-0.0125444196164608
-0.0189212411642074
-0.0240078009665012
-0.0278023909777402
-0.0304231792688369
-0.032080553472042
-0.0330535024404525
-0.0336587838828563
-0.034208059310913
-0.034965630620718
-0.0361193045973777
-0.0377665013074874
-0.0399125292897224
-0.0424810871481895
-0.0453390777111053
-0.0483314767479896
-0.051313079893589
-0.0541669502854347
-0.0568117089569568
-0.0591985434293746
-0.0612938180565834
-0.0630612894892692
-0.0644646063446998
-0.0654821172356605
-0.0661134123802185
-0.0663732141256332
-0.0662813633680343
-0.0658582895994186
-0.0651263445615768
-0.0641101896762847
-0.0628346800804138
-0.0613240450620651
-0.0596032403409481
-0.0577001050114631
-0.05564571544528
-0.0534688532352447
-0.0511866845190525
-0.0488048270344734
-0.0463336557149887
-0.0438029766082763
-0.041255310177803
-0.0387255251407623
-0.0362274199724197
-0.033754389733076
-0.0312866792082786
-0.0287973806262016
-0.02625547721982
-0.0236271657049655
-0.0208783745765686
-0.0179806873202323
-0.0149180954322218
-0.0116894366219639
-0.0083060227334499
-0.0047922395169734
-0.0011928752064704
0.0024224035441875
0.0059665609151124
0.0093517648056149
0.0125048067420721
0.0153757585212588
0.0179429911077022
0.0202156864106655
0.0222292896360158
0.0240337885916233
0.0256814789026975
0.0272193700075149
0.0286850649863481
0.0301046073436737
0.0314926356077194
0.0328498855233192
0.0341548547148704
0.0353608839213848
0.0364090986549854
0.0372486561536788
0.0378517396748065
0.0382199697196483
0.0383816547691822
0.0383806563913822
0.0382602699100971
0.038046546280384
0.037737663835287
0.0373039543628692
0.0366978496313095
0.0358736105263233
0.034812394529581
0.0335340239107608
0.0320845432579517
0.030517578125
0.0288862437009811
0.0272408388555049
0.025626067072153
0.0240798033773899
0.022636154666543
0.0213283747434616
0.0201867893338203
0.0192341227084398
0.0184808857738971
0.0179214179515838
0.0175325479358434
0.0172777120023965
0.0171164218336343
0.0170106627047061
0.0169206038117408
0.01679970882833
0.0166025944054126
0.0162987038493156
0.0158778969198465
0.0153499785810709
0.0147448852658271
0.0141092799603939
0.0134978499263525
0.0129660386592149
0.0125636868178844
0.0123250614851713
0.0122604575008153
0.0123560074716806
0.0125815132632851
0.0128987021744251
0.0132615305483341
0.0136144887655973
0.013898529112339
0.014062076807022
0.0140709998086094
0.0139139527454972
0.0136019196361303
0.0131627302616834
0.0126332445070147
0.012054543942213
0.0114693716168403
0.0109177967533469
0.0104344021528959
0.0100497752428054
0.0097916889935731
0.0096783572807908
0.0097050480544567
0.0098379701375961
0.0100210020318627
0.0101866861805319
0.0102693289518356
0.0102200414985418
0.0100125828757882
0.0096347723156213
0.009078025817871
0.0083380220457911
0.007426424883306
0.0063890004530549
0.0053254943341016
0.0044023268856108
0.0038440367206931
0.00388965732418
0.0047228634357452
0.0064105670899152
0.0088736563920974
0.0118901077657938
0.0151266809552907
0.0181925278156995
0.0206998046487569
0.0223182849586009
0.0228174515068531
0.0220911726355552
0.0201635751873254
0.017180835828185
0.0133933387696743
0.0091301053762435
0.0047689750790596
0.0006988532841205
-0.0027307737618684
-0.0052592102438211
-0.0067470874637365
-0.007194135338068
-0.0067461468279361
-0.0056810677051544
-0.0043633244931697
-0.0031750500202178
-0.002445850521326
-0.002399243414402
-0.003127921372652
-0.0045985132455825
-0.0066764988005161
-0.0091600939631462
-0.0118113718926906
-0.014384863898158
-0.0166578795760869
-0.018450079485774
-0.0196266993880271
-0.0200963914394378
-0.019809678196907
-0.0187601819634437
-0.0169905722141265
-0.014604240655899
-0.0117769762873649
-0.008745189756155
-0.0057623200118541
-0.0030561685562133
-0.0008115619421005
0.0008372329175472
0.0018170773983001
0.0021150298416614
0.0017597340047359
0.0008013695478439
-0.0006999596953392
-0.0026806034147739
-0.0050765573978424
-0.0078228153288364
-0.0108491703867912
-0.0140749402344226
-0.0174060314893722
-0.0207385383546352
-0.0239740200340747
-0.0270455330610275
-0.0299410242587327
-0.0327058918774127
-0.0354216545820236
-0.038180224597454
-0.0410687699913978
-0.0441586226224899
-0.0474905259907245
-0.0510590299963951
-0.0548045001924037
-0.0586198009550571
-0.0623693279922008
-0.0659119859337806
-0.0691218078136444
-0.0719039589166641
-0.0742015540599823
-0.0759894102811813
-0.0772602930665016
-0.0780109241604805
-0.0782331526279449
-0.0779192075133323
-0.0770782083272934
-0.0757435783743858
-0.0739617869257927
-0.0717757567763328
-0.0692171603441238
-0.0663073360919952
-0.0630593225359916
-0.0594794824719429
-0.0555717423558235
-0.051344022154808
-0.0468151941895484
-0.0420217774808406
-0.0370210707187652
-0.0318835005164146
-0.026672750711441
-0.0214319415390491
-0.01619179174304
-0.0109852515161037
-0.0058504566550254
-0.0008259303867816
0.0040547400712966
0.0087661035358905
0.0132885687053203
0.0176012925803661
0.0216760262846946
0.0254778135567903
0.0289731808006763
0.0321390926837921
0.034968439489603
0.0374734885990619
0.0396855548024177
0.0416462980210781
0.0433921664953231
0.0449412837624549
0.0462921783328056
0.0474337860941886
0.0483575798571109
0.0490644238889217
0.04956541582942
0.0498805791139602
0.050037570297718
0.0500675588846206
0.0499992780387401
0.0498584881424903
0.0496736243367195
0.0494827218353748
0.0493398942053318
0.0493136346340179
0.0494686476886272
0.0498433262109756
0.0504390969872474
0.0512232407927513
0.0521389506757259
0.0531158111989498
0.0540806464850902
0.0549691580235958
0.0557301193475723
0.0563183538615703
0.0566857494413852
0.0567799657583236
0.0565533153712749
0.0559787526726722
0.0550634637475013
0.0538469925522804
0.0523861423134803
0.0507448241114616
0.048994805663824
0.0472151823341846
0.0454808957874774
0.0438437163829803
0.0423169285058975
0.0408720299601554
0.0394478216767311
0.0379657819867134
0.036345224827528
0.0345179438591003
0.0324423164129257
0.0301126670092344
0.0275628007948398
0.0248587299138307
