bvp
0.01358562707901
0.0133455023169517
0.0130748385563492
0.0127767622470855
0.0124654490500688
0.0121658639982342
0.0118915950879454
0.0116178095340728
0.0112670343369245
0.0107104126363992
0.0097883194684982
0.0083500612527132
0.0062953699380159
0.0035999435931444
0.00032221339643
-0.0034052254632115
-0.0073958486318588
-0.011436091735959
-0.0153133030980825
-0.0188364554196596
-0.0218479670584201
-0.0242376178503036
-0.025957953184843
-0.0270236432552337
-0.0274932868778705
-0.02745096758008
-0.0269943252205848
-0.0262246541678905
-0.0252385754138231
-0.024120869114995
-0.0229379702359437
-0.0217343159019947
-0.0205307863652706
-0.0193261764943599
-0.0181040614843368
-0.0168391596525907
-0.0154982795938849
-0.014045562595129
-0.0124569851905107
-0.0107315266504883
-0.0088921841233968
-0.0069801909849047
-0.0050460188649594
-0.0031413694377988
-0.0013128025457262
0.000404498539865
0.0019910740666091
0.0034429528750479
0.0047670039348304
0.0059755141846835
0.0070847454480826
0.00811886228621
0.009113049134612
0.0101041430607438
0.0111107658594846
0.0121235828846693
0.013112623244524
0.0140385646373033
0.0148607157170772
0.0155438939109444
0.016066001728177
0.0164241660386323
0.0166366882622241
0.0167396552860736
0.016775406897068
0.0167766436934471
0.0167600363492965
0.016734030097723
0.0167103186249732
0.0167039223015308
0.0167189296334981
0.0167377348989248
0.0167259760200977
0.0166454222053289
0.0164638888090848
0.0161527302116155
0.0156706850975751
0.014949400909245
0.0138953737914562
0.0124087901785969
0.0104125253856182
0.0078821647912263
0.0048647988587617
0.001480225007981
-0.0020919842645525
-0.0056407209485769
-0.0089657641947269
-0.0119148753583431
-0.0143984910100698
-0.016384283080697
-0.0178818330168724
-0.0189252458512783
-0.019559197127819
-0.0198314767330884
-0.0197888258844614
-0.0194732677191495
-0.0189219303429126
-0.0181714389473199
-0.0172624550759792
-0.0162367355078458
-0.015125498175621
-0.0139442589133977
-0.0127041563391685
-0.0114231370389461
-0.0101237390190362
-0.0088272606953978
-0.0075514484196901
-0.0063080796971917
-0.0050997543148696
-0.0039196866564452
-0.0027565804775804
-0.0016022456111386
-0.0004560372326523
0.0006766270380467
0.001787063665688
0.0028671636246144
0.0039156978018581
0.0049366666935384
0.005926405545324
0.0068661668337881
0.0077296779491007
0.0084948567673563
0.0091497777029871
0.0096940379589796
0.0101369395852088
0.0104933595284819
0.0107803093269467
0.0110145453363657
0.0112104248255491
0.0113784708082675
0.0115243969485163
0.0116503480821847
0.0117614604532718
0.0118688605725765
0.0119804721325635
0.0120923528447747
0.0121902963146567
0.0122525691986083
0.0122444350272417
0.0121054463088512
0.0117418896406888
0.0110374335199594
0.0098798777908086
0.0081899827346205
0.0059425923973321
0.0031783138401806
4.041939973831177e-06
-0.0034179268404841
-0.0068887555971741
-0.0102021554484963
-0.0131817739456892
-0.0157074034214019
-0.017718244343996
-0.019203957170248
-0.020192889496684
-0.0207362975925207
-0.0208909437060356
-0.0207080971449613
-0.0202332772314548
-0.0195130221545696
-0.0185986179858446
-0.0175432860851287
-0.0163984969258308
-0.0152078652754426
-0.0139968171715736
-0.012771819718182
-0.0115351723507046
-0.0102978218346834
-0.0090778274461627
-0.0078901704400777
-0.0067379288375377
-0.0056127025745809
-0.0045019150711596
-0.0033928893972188
-0.0022737069521099
-0.0011365392711013
1.926417462527752e-05
0.0011874242918565
0.0023573199287056
0.0035211038775742
0.0046807900071144
0.0058408491313457
0.0069904066622257
0.0080975405871868
0.0091202668845653
0.0100205074995756
0.0107722654938697
0.011365502141416
0.0118092857301235
0.0121309431269764
0.0123675595968961
0.0125547116622328
0.0127190994098782
0.0128759779036045
0.0130288172513246
0.0131722195073962
0.0133002493530511
0.0134109947830438
0.0135004464536905
0.013556838966906
0.0135630052536726
0.0135030560195446
0.0133678298443555
0.0131521839648485
0.0128439525142312
0.0124109266325831
0.0117909535765647
0.0108921639621257
0.0096101136878132
0.0078577352687716
0.0055939340963959
0.002842734567821
-0.0002990649081766
-0.0036763753741979
-0.0071124001406133
-0.0104426946491003
-0.0135300178080797
-0.0162675790488719
-0.0185818038880825
-0.0204341076314449
-0.0218155141919851
-0.0227356944233179
-0.023215003311634
-0.023281080648303
-0.0229659955948591
-0.0223062206059694
-0.0213475823402404
-0.0201464854180812
-0.0187617167830467
-0.0172488987445831
-0.0156643465161323
-0.0140652451664209
-0.0125009026378393
-0.011004046536982
-0.0095880459994077
-0.0082496460527181
-0.0069731259718537
-0.0057329703122377
-0.0044966228306293
-0.0032313507981598
-0.0019145281985402
-0.0005397107452154
0.0008856276981532
0.0023482283577322
0.0038370317779481
0.0053407396189868
0.0068348399363458
0.0082752285525202
0.0096080359071493
0.0107869170606136
0.0117857893928885
0.0126017583534121
0.0132508724927902
0.0137632014229893
0.0141794057562947
0.0145443761721253
0.0148969572037458
0.0152625506743788
0.0156522020697593
0.0160670466721057
0.0165052115917205
0.0169614199548959
0.0174173470586538
0.0178388264030218
0.0181860737502574
0.0184239707887172
0.0185250807553529
0.0184711776673793
0.0182577408850193
0.0178967677056789
0.0174140948802232
0.0168439764529466
0.0162217393517494
0.0155707830563187
0.0148852718994021
0.0141195775941014
0.0131932850927114
0.0120046017691493
0.0104429321363568
0.0084088258445262
0.0058478671126067
0.0027818009257316
-0.0006845747120678
-0.0043834531679749
-0.0081174038350582
-0.0116923348978161
-0.0149420229718089
-0.0177407655864954
-0.020007561892271
-0.0217054542154073
-0.0228358898311853
-0.0234271716326475
-0.0235200803726911
-0.0231647249311208
-0.0224321447312831
-0.0214185155928134
-0.0202322006225585
-0.0189785696566104
-0.0177483111619949
-0.016605906188488
-0.0155834946781396
-0.0146832726895809
-0.0138836950063705
-0.0131456516683101
-0.012418826110661
-0.0116508761420845
-0.0107985474169254
-0.0098325414583086
-0.0087339486926794
-0.007494802121073
-0.0061288317665457
-0.0046778311952948
-0.0032037990167737
-0.0017750292317941
-0.0004523886600509
0.0007223127176985
0.0017314164433628
0.0025799553841352
0.0032909400761127
0.0038997728843241
0.0044482080265879
0.0049765626899898
0.0055178627371788
0.0060988785699009
0.0067434115335345
0.007467208430171
0.0082646170631051
0.0091023929417133
0.0099302716553211
0.0106984917074441
0.0113681573420763
0.0119138117879629
0.0123244225978851
0.0126033034175634
0.0127656273543834
0.012833752669394
0.0128309531137347
0.0127748260274529
0.0126703437417745
0.0125023014843463
0.0122295003384351
0.0117809809744358
0.0110546173527836
0.0099290339276194
0.0082975598052144
0.0061080548912286
0.003385309362784
0.0002317619509994
-0.0031892317347228
-0.0066821281798183
-0.0100484117865562
-0.0131105976179242
-0.0157316084951162
-0.0178229007869958
-0.0193390473723411
-0.0202687196433544
-0.0206290259957313
-0.0204664152115583
-0.0198622569441795
-0.0189287848770618
-0.0177885480225086
-0.0165515020489692
-0.0153019437566399
-0.0140935275703668
-0.0129492497071623
-0.0118658859282732
-0.0108214011415839
-0.0097839720547199
-0.0087200235575437
-0.0075989528559148
-0.006396644283086
-0.0050971605814993
-0.0036923731677234
-0.0021885000169277
-0.0006167818792164
0.0009686439298093
0.0025046481750905
0.0039329640567302
0.0052130166441202
0.0063292966224253
0.0072871120646595
0.0081052631139755
0.0088127879425883
0.0094448467716574
0.0100342826917767
0.0106032183393836
0.0111618312075734
0.0117156580090522
0.0122745651751756
0.0128511721268296
0.0134467268362641
0.0140421278774738
0.0146055985242128
0.0151070998981595
0.0155242886394262
0.0158401951193809
0.0160448718816041
0.0161394532769918
0.0161342583596706
0.0160442925989627
0.0158862546086311
0.0156751833856105
0.0154216364026069
0.0151347769424319
0.0148284994065761
0.0145147871226072
0.0141786914318799
0.0137535259127616
0.0131170833483338
0.0121142575517296
0.0105968080461025
0.0084635699167847
0.0056896163150668
0.0023386690299957
-0.0014447442954406
-0.0054605612531304
-0.0094863986596465
-0.0133088929578661
-0.016749370843172
-0.0196786262094974
-0.0220163911581039
-0.0237282291054725
-0.0248298943042755
-0.0253858342766761
-0.0254899244755506
-0.0252380482852458
-0.0247104968875646
-0.023970553651452
-0.0230711661279201
-0.0220590904355049
-0.0209734383970499
-0.0198423247784376
-0.0186812318861484
-0.017494048923254
-0.0162752047181129
-0.0150093641132116
-0.0136685334146022
-0.0122160371392965
-0.0106246173381805
-0.0088953860104084
-0.0070589855313301
-0.0051627019420266
-0.0032595740631222
-0.0014015547931194
0.0003688912838697
0.0020256303250789
0.0035600834526121
0.0049781780689954
0.00629538949579
0.0075317532755434
0.0087070064619183
0.0098394993692636
0.0109513672068715
0.0120667675510048
0.0131969926878809
0.0143298571929335
0.0154339000582695
0.016469832509756
0.0173994936048984
0.0181897766888141
0.0188164338469505
0.0192696414887905
0.0195565987378358
0.0196982771158218
0.0197227373719215
0.0196587815880775
0.0195307806134223
0.0193581189960241
0.0191626958549022
0.0189702212810516
0.0187956169247627
0.0186309814453125
0.0184476170688867
0.0182045232504606
0.0178559813648462
0.0173493269830942
0.0166128110140562
0.0155501887202262
0.0140533056110143
0.0120276026427745
0.0094204852357506
0.0062450869008898
0.0025910825934261
-0.0013828424271196
-0.0054707690142095
-0.0094535090029239
-0.0131413582712411
-0.0164063181728124
-0.0191878024488687
-0.0214763581752777
-0.0232895985245704
-0.0246524848043918
-0.0255872029811143
-0.026112800464034
-0.0262526348233222
-0.0260429196059703
-0.0255345497280359
-0.0247870162129402
-0.0238585993647575
-0.0227957759052515
-0.0216248929500579
-0.0203557237982749
-0.0189975593239069
-0.0175689999014139
-0.016092387959361
-0.0145856812596321
-0.0130600770935416
-0.0115209417417645
-0.0099701192229986
-0.0084067089483141
-0.0068266415037214
-0.0052252388559281
-0.0036010104231536
-0.0019578454084694
-0.0003054640255868
0.0013449862599372
0.0029884618707001
0.0046234559267759
0.0062359026633203
0.0077898725867271
0.0092377085238695
0.0105364676564931
0.0116584841161966
0.0125965997576713
0.0133642172440886
0.0139903407543897
0.0145141426473855
0.0149783547967672
0.0154185481369495
0.0158543679863214
0.0162881389260292
0.0167113989591598
0.0171174332499504
0.017505370080471
0.0178685560822486
0.0181855391710996
0.0184238534420728
0.0185470059514045
0.018517792224884
0.0182941947132349
0.0178166106343269
0.0169976353645324
0.015731181949377
0.0139222471043467
0.0115207349881529
0.0085437670350074
0.0050799432210624
0.0012790032196789
-0.0026649818755686
-0.0065393364056944
-0.0101482924073934
-0.013342292048037
-0.0160292815417051
-0.0181701183319091
-0.0197651628404855
-0.0208419132977724
-0.0214483961462974
-0.0216480232775211
-0.0215117111802101
-0.0211081877350807
-0.0204971581697464
-0.0197286233305931
-0.0188449379056692
-0.0178784057497978
-0.0168432090431451
-0.0157346948981285
-0.01454459130764
-0.0132750822231173
-0.0119374534115195
-0.0105441873893141
-0.0091046234592795
-0.0076257120817899
-0.0061154542490839
-0.0045852633193135
-0.0030502751469612
-0.0015264460816979
-2.489890903234481e-05
0.0014501451514661
0.0028977021574974
0.0043177898041903
0.0057146046310663
0.0070946379564702
0.0084531111642718
0.0097644878551363
0.010990172624588
0.0120968231931328
0.0130715128034353
0.0139229428023099
0.0146711524575948
0.0153371384367346
0.0159375257790088
0.0164830312132835
0.0169786550104618
0.0174249019473791
0.0178207568824291
0.0181678961962461
0.0184729844331741
0.0187427103519439
0.0189723186194896
0.019139178097248
0.0192094072699546
0.0191516280174255
0.0189469754695892
0.0185907483100891
0.0180848762392997
0.0174199044704437
0.016554370522499
0.0154065564274787
0.0138661507517099
0.0118227321654558
0.0091989021748304
0.0059763467870652
0.0022103851661086
-0.0019741496071219
-0.0064070345833897
-0.0109000112861394
-0.0152674727141857
-0.0193460658192634
-0.0230107493698596
-0.0261795483529567
-0.0288092512637376
-0.0308867506682872
-0.0324177145957946
-0.0334176234900951
-0.0339098200201988
-0.0339286550879478
-0.0335212275385856
-0.0327420160174369
-0.0316432528197765
-0.0302727725356817
-0.0286820624023675
-0.026930471882224
-0.0250782780349254
-0.0231767315417528
-0.0212621036916971
-0.0193539336323738
-0.0174551475793123
-0.0155539363622665
-0.013628963381052
-0.0116563215851783
-0.0096164364367723
-0.0075008459389209
-0.0053158933296799
-0.0030773179605603
-0.0007974812760949
0.0015170834958553
0.0038497163914144
0.0061606843955814
0.0083941146731376
0.0104940328747034
0.0124169783666729
0.0141415363177657
0.0156721826642751
0.0170323438942432
0.0182534102350473
0.0193682163953781
0.0204074494540691
0.021394645795226
0.0223410185426473
0.0232478529214859
0.0241164006292819
0.0249481219798326
0.0257305335253477
0.0264307260513305
0.027006771415472
0.0274248197674751
0.0276720635592937
0.0277593992650508
0.0277127604931592
0.0275639444589614
0.02734693326056
0.0270942151546478
0.0268305130302906
0.0265644937753677
0.0262753013521432
0.0258979946374893
0.0253216493874788
0.0243991985917091
0.0229620933532714
0.0208497587591409
0.0179532412439584
0.0142499450594186
0.0098154991865158
0.0048153772950172
-0.000520022585988
-0.005932199768722
-0.011171918362379
-0.0160268861800432
-0.0203379672020673
-0.024005664512515
-0.0269867926836013
-0.0292795822024345
-0.0309031587094068
-0.0318901017308235
-0.0322973355650901
-0.0322141423821449
-0.0317540243268013
-0.031037114560604
-0.0301702879369258
-0.0292312651872634
-0.0282623618841171
-0.0272733084857463
-0.0262493677437305
-0.0251609049737453
-0.0239721965044736
-0.0226494222879409
-0.021167118102312
-0.0195099413394927
-0.0176690760999918
-0.015644147992134
-0.0134571827948093
-0.0111626833677291
-0.008838951587677
-0.0065671135671436
-0.0044132070615887
-0.0024193995632231
-0.0006034381221979
0.0010351534001529
0.0025106067769229
0.0038500991649925
0.0050881206989288
0.0062582176178693
0.0073900483548641
0.0085128406062722
0.0096582509577274
0.0108504574745893
0.0120876459404826
0.0133355539292097
0.0145371817052364
0.0156286153942346
0.0165564995259046
0.0172897297888994
0.0178194642066955
0.0181543584913015
0.0183168463408947
0.0183394886553287
0.0182599667459726
0.0181148201227188
0.0179345440119504
0.0177383292466402
0.0175222419202327
0.0172395687550306
0.0167845506221056
0.0160002522170543
0.0147156128659844
0.0127943102270364
0.0101756397634744
0.0068935719318687
0.0030704378150403
-0.0011068279854953
-0.0054174573160707
-0.0096363611519336
-0.0135584687814116
-0.0170178171247243
-0.0198977626860141
-0.0221262406557798
-0.0236640740185976
-0.0245076492428779
-0.0247041881084442
-0.0243531204760074
-0.0235884152352809
-0.0225555896759033
-0.0213880222290754
-0.020188108086586
-0.0190210044384002
-0.0179174318909645
-0.0168789289891719
-0.0158843509852886
-0.0148968938738107
-0.0138712776824831
-0.0127623230218887
-0.0115308705717325
-0.0101424558088183
-0.0085691343992948
-0.0068043265491724
-0.004877327941358
-0.0028511150740087
-0.0008061085827648
0.0011789794079959
0.0030429065227508
0.0047503560781478
0.006290927529335
0.0076725492253899
0.0089137954637408
0.0100368130952119
0.0110619012266397
0.0120043838396668
0.0128778461366891
0.0137049183249473
0.0145199242979288
0.0153528247028589
0.0162116140127182
0.0170782655477523
0.0179154854267835
0.0186793282628059
0.0193313397467136
0.0198452584445476
0.0202098656445741
0.0204289034008979
0.0205178689211606
0.0205004289746284
0.0204034112393856
0.0202495530247688
0.0200572684407234
0.0198498144745826
0.0196544993668794
0.0194783844053745
0.0192771200090646
0.0189413987100124
0.0183090139180421
0.017196150496602
0.015435635112226
0.0129126980900764
0.0095952441915869
0.0055510895326733
0.0009410604834556
-0.0040077739395201
-0.0090358890593051
-0.0138866119086742
-0.0183351635932922
-0.0222051031887531
-0.0253815464675426
-0.0278224013745784
-0.0295520983636379
-0.0306387767195701
-0.0311703328043222
-0.0312375873327255
-0.0309273637831211
-0.0303202699869871
-0.0294863674789667
-0.0284812543541193
-0.0273442268371582
-0.0260982774198055
-0.024753687903285
-0.0233125165104866
-0.0217686146497726
-0.020103707909584
-0.0182923320680856
-0.0163206923753023
-0.0142009444534778
-0.0119694089516997
-0.0096756238490343
-0.0073703043162822
-0.0050980956293642
-0.002895092125982
-0.0007859887555241
0.0012178127653896
0.003115904983133
0.0049154353328049
0.0066274423152208
0.0082622319459915
0.0098305968567729
0.011351104825735
0.0128459800034761
0.0143221905454993
0.0157614648342132
0.0171285308897495
0.018383789807558
0.0194930527359247
0.0204350668936967
0.0212058145552873
0.021818108856678
0.0222961883991956
0.0226684063673019
0.0229621455073356
0.0231998413801193
0.0233960337936878
0.0235597807914018
0.0237008910626173
0.0238287802785635
0.0239396523684263
0.0240077450871467
0.0239931493997573
0.0238574538379907
0.0235738307237625
0.0231275781989097
0.0225101616233587
0.0217057205736637
0.0206694118678569
0.0193138159811496
0.0175199154764413
0.015168210491538
0.012175110168755
0.0085235200822353
0.0042812144383788
-0.0004022838547825
-0.0053256270475685
-0.0102753890678286
-0.015054453164339
-0.0194977149367332
-0.0234812069684267
-0.0269262604415416
-0.0297978185117244
-0.0320953615009784
-0.0338383167982101
-0.0350531488656997
-0.0357687659561634
-0.036018993705511
-0.0358448252081871
-0.0352909713983535
-0.0343981496989727
-0.0332023166120052
-0.0317466370761394
-0.0300900302827358
-0.0282983556389808
-0.0264276396483182
-0.0245135761797428
-0.0225706305354833
-0.0205970108509063
-0.0185818411409854
-0.0165133215487003
-0.014385811984539
-0.0122031308710575
-0.0099787693470716
-0.0077338279224932
-0.0054897493682801
-0.0032588792964816
-0.0010468205437064
0.0011316398158669
0.0032442572992295
0.0052531352266669
0.0071310843341052
0.0088656982406973
0.0104557797312736
0.0119089065119624
0.0132391974329948
0.0144644919782876
0.0156037397682666
0.0166730396449565
0.0176809653639793
0.0186276212334632
0.0195107702165842
0.0203350316733121
0.0211124718189239
0.0218506921082735
0.0225406754761934
0.0231555644422769
0.0236603394150733
0.0240254458039999
0.024236012250185
0.0242935605347156
0.0242134407162666
0.0240212716162204
0.0237471126019954
0.0234168767929077
0.0230424217879772
0.0226093493402004
0.0220647752285003
0.0213132388889789
0.0202221684157848
0.018635619431734
0.0164057500660419
0.0134401973336935
0.0097404941916465
0.0054129511117935
0.0006511313840746
-0.0043011372908949
-0.0091904951259493
-0.0137865226715803
-0.0179037079215049
-0.0214125402271747
-0.0242407210171222
-0.0263683386147022
-0.0278153307735919
-0.0286225657910108
-0.0288440324366092
-0.0285573378205299
-0.0278711952269077
-0.0269135423004627
-0.0258081667125225
-0.0246545653790235
-0.0235182233154773
-0.0224291980266571
-0.0213852915912866
-0.0203587654978036
-0.0193056687712669
-0.0181768704205751
-0.0169284734874963
-0.0155278733000159
-0.0139534594491124
-0.0121922744438052
-0.0102466288954019
-0.0081477612257003
-0.0059580346569418
-0.0037552048452198
-0.0016108113341033
0.0004236521199345
0.0023184951860457
0.0040609762072563
0.0056498399935662
0.007091308478266
0.0083977030590176
0.0095883216708898
0.010688510723412
0.0117254611104726
0.0127272196114063
0.0137260276824235
0.0147525202482938
0.0158167630434036
0.016896640881896
0.0179477762430906
0.018921673297882
0.0197772681713104
0.0204860139638185
0.0210326258093118
0.0214134808629751
0.021636351943016
0.0217206664383411
0.021695502102375
0.0215938128530979
0.0214450601488351
0.0212751850485801
0.0211123749613761
0.0209792181849479
0.0208682958036661
0.0207235477864742
0.0204368662089109
0.0198547802865505
0.0187972411513328
0.0170894488692283
0.0145992347970604
0.0112700518220663
0.0071403784677386
0.0023450758308172
-0.0029014991596341
-0.0083379177376627
-0.0136935552582144
-0.0187189262360334
-0.0232059173285961
-0.0270064696669578
-0.0300501845777034
-0.0323443077504634
-0.0339496508240699
-0.0349500179290771
-0.0354315340518951
-0.0354727394878864
-0.035142607986927
-0.0345044434070587
-0.0336179509758949
-0.0325338989496231
-0.0312877595424652
-0.0299007501453161
-0.0283864624798297
-0.0267526023089885
-0.0249932967126369
-0.0230886340141296
-0.0210243090987205
-0.0188106559216976
-0.0164818223565816
-0.014084942638874
-0.0116708204150199
-0.0092854034155607
-0.0069613344967365
-0.0047138901427388
-0.0025445725768804
-0.0004479950293898
0.0015846486203372
0.0035641128197312
0.0054981955327093
0.0073893791995942
0.0092431688681244
0.0110717453062534
0.0128791471943259
0.0146480724215507
0.0163449645042419
0.0179318282753229
0.0193747766315937
0.020649716258049
0.0217443667352199
0.0226586908102035
0.0234052762389183
0.0240045450627803
0.0244771242141723
0.0248421765863895
0.0251206886023283
0.0253385752439498
0.025526039302349
0.0257067196071147
0.0258814878761768
0.0260244533419609
0.0260949227958917
0.0260539948940277
0.0258761141449213
0.0255521014332771
0.0250865407288074
0.0244941636919975
0.0237942785024642
0.0229959078133106
0.0220733061432838
0.0209472272545099
0.0194872990250587
0.0175404194742441
0.0149780064821243
0.0117358639836311
0.0078251007944345
0.0033246055245399
-0.0016278391703963
-0.0068465527147054
-0.0121165299788117
-0.0172189492732286
-0.0219582431018352
-0.0261818766593933
-0.0297881923615932
-0.0327245220541954
-0.03497851267457
-0.036567136645317
-0.0375284627079963
-0.0379134193062782
-0.037777155637741
-0.0371802821755409
-0.0361978448927402
-0.0349193476140499
-0.0334363393485546
-0.0318275466561317
-0.0301493611186742
-0.0284326989203691
-0.0266835503280162
-0.0248867720365524
-0.0230147186666727
-0.0210389606654644
-0.0189406722784042
-0.0167162828147411
-0.0143779255449771
-0.0119478553533554
-0.0094456234946846
-0.0068817171268165
-0.0042716199532151
-0.0016531161963939
0.0009161410853266
0.0033755269832909
0.0056766411289572
0.0077909245155751
0.0097109097987413
0.0114475879818201
0.0130251431837677
0.0144733525812625
0.0158203039318323
0.017088197171688
0.0182925835251808
0.0194449350237846
0.0205565206706523
0.0216359253972768
0.0226780734956264
0.0236586295068264
0.0245429649949073
0.0252998247742652
0.0259088557213544
0.0263618975877761
0.0266605429351329
0.0268134959042072
0.0268384367227554
0.026765014976263
0.0266299620270729
0.0264652110636234
0.026289090514183
0.0261043459177017
0.0258956737816333
0.0256158020347356
0.0251634791493415
0.0243791081011295
0.0230736099183559
0.0210740808397531
0.0182643383741378
0.0146128088235855
0.0101862316951155
0.0051469919271767
-0.0002668248489499
-0.0057761203497648
-0.0111027983948588
-0.0160064436495304
-0.020307058468461
-0.0238915178924798
-0.0267042927443981
-0.0287380404770374
-0.0300361663103103
-0.030691672116518
-0.0308308880776166
-0.0305904150009155
-0.030095599591732
-0.0294452514499425
-0.0287042409181594
-0.0279015246778726
-0.0270330160856246
-0.0260713342577219
-0.024979330599308
-0.0237212814390659
-0.0222707130014896
-0.0206123832613229
-0.0187363121658563
-0.0166371017694473
-0.0143269542604684
-0.0118470154702663
-0.0092649301514029
-0.0066625401377677
-0.0041209333576262
-0.0017081487458199
0.0005284000653773
0.0025642677210271
0.0043962020426988
0.0060379919596016
0.0075128898024559
0.0088452631607651
0.0100587587803602
0.0111821610480546
0.0122536085546016
0.0133101250976324
0.0143663743510842
0.0154054798185825
0.0163911171257495
0.0172859877347946
0.0180631633847951
0.018710970878601
0.0192339587956666
0.0196478329598903
0.0199713222682476
0.0202213153243064
0.020411416888237
0.0205533504486084
0.0206600110977888
0.0207478515803813
0.0208398196846246
0.0209587253630161
0.0211001802235841
0.0212042964994907
0.0211499147117137
0.0207684412598609
0.0198674015700817
0.0182644631713628
0.0158288218080997
0.012515845708549
0.0083828493952751
0.0035819988697767
-0.0016658110544085
-0.0071059479378163
-0.012484130449593
-0.017569962888956
-0.0221673008054494
-0.0261269174516201
-0.0293665677309036
-0.0318759679794311
-0.0336987972259521
-0.0349077843129634
-0.0355829447507858
-0.0357977971434593
-0.0356157012283802
-0.0350903868675231
-0.0342651531100273
-0.0331729762256145
-0.0318414308130741
-0.0302983913570642
-0.0285715796053409
-0.0266812555491924
-0.0246311984956264
-0.0224118307232856
-0.0200211126357316
-0.0174825377762317
-0.0148424170911312
-0.0121549069881439
-0.0094704981893301
-0.0068310485221445
-0.0042681754566729
-0.0018063928000628
0.0005329120904207
0.0027344464324414
0.0047935559414327
0.0067148189991712
0.0085080536082386
0.010188216343522
0.0117795784026384
0.0133114252239465
0.0148007571697235
0.016242366284132
0.0176168177276849
0.0189025085419416
0.0200824588537216
0.0211470425128936
0.0220929533243179
0.0229209754616022
0.0236370116472244
0.024252500385046
0.024779200553894
0.0252243503928184
0.0255916323512792
0.0258856415748596
0.0261177495121955
0.0263052247464656
0.0264584459364414
0.0265707690268754
0.0266201961785554
0.0265761483460664
0.0264076851308345
0.0260869525372982
0.025580646470189
0.0248338617384433
0.0237574577331542
0.0222315862774848
0.0201292596757411
0.0173485316336154
0.0138407256454229
0.0096319559961557
0.0048357238993048
-0.0003571575507521
-0.0057157701812684
-0.011011391878128
-0.0160448160022497
-0.0206582248210906
-0.024738136678934
-0.0282141901552677
-0.0310535952448844
-0.033250767737627
-0.0348184779286384
-0.0357848703861236
-0.0361926071345806
-0.0360981337726116
-0.0355701595544815
-0.0346816629171371
-0.0334968976676464
-0.032067809253931
-0.0304439440369606
-0.0286803245544433
-0.0268328599631786
-0.0249472372233867
-0.0230519268661737
-0.0211582388728857
-0.0192620921880006
-0.0173448491841554
-0.0153779005631804
-0.0133344121277332
-0.0112016471102833
-0.008984861895442
-0.0067041418515145
-0.0043868264183402
-0.002055125311017
0.0002785939723253
0.0025989962741732
0.0048749889247119
0.007063896395266
0.0091238562017679
0.0110232252627611
0.0127469394356012
0.0142995119094848
0.0157020706683397
0.0169844198971986
0.0181767288595438
0.0193048752844333
0.0203891284763813
0.0214429572224617
0.0224738884717226
0.0234897416085004
0.0244990289211273
0.0254956968128681
0.0264447350054979
0.027288207784295
0.027965523302555
0.0284307040274143
0.0286601111292839
0.0286530759185552
0.0284284465014934
0.0280157346278429
0.0274353493005037
0.0266715586185455
0.0256549771875143
0.0242677237838506
0.0223728436976671
0.01985914260149
0.0166779551655054
0.0128531102091073
0.0084737781435251
0.0036861449480056
-0.0013195984065532
-0.0063331853598356
-0.0111508434638381
-0.0155953858047723
-0.0195293575525283
-0.0228597838431596
-0.0255335643887519
-0.0275305602699518
-0.0288618132472038
-0.029569674283266
-0.0297196991741657
-0.0293847098946571
-0.0286371782422065
-0.0275557860732078
-0.0262301973998546
-0.0247529279440641
-0.0232036057859659
-0.0216367654502391
-0.0200805440545082
-0.0185417458415031
-0.0170090664178133
-0.0154573945328593
-0.0138582037761807
-0.0121906846761703
-0.0104474583640694
-0.0086333816871047
-0.0067572519183158
-0.0048240954056382
-0.0028398965951055
-0.000824298011139
0.0011837458005174
0.0031308410689234
0.0049616647884249
0.0066349199041724
0.0081340093165636
0.0094671826809644
0.0106588881462812
0.0117389969527721
0.0127375647425651
0.0136838853359222
0.0146025959402322
0.0155075248330831
0.016402244567871
0.0172896850854158
0.0181739702820777
0.0190460905432701
0.0198757518082857
0.0206216052174568
0.0212445426732301
0.0217137206345796
0.0220091883093118
0.022124545648694
0.0220687203109264
0.0218658093363046
0.0215509086847305
0.0211615432053804
0.0207257717847824
0.0202441345900297
0.0196686834096908
0.0188943594694137
0.0177698209881782
0.0161231122910976
0.0137999486178159
0.010707814246416
0.0068492144346237
0.0023296400904655
-0.0026598200201988
-0.0078741516917943
-0.0130521822720766
-0.0179544258862733
-0.0223908200860023
-0.0262310244143009
-0.0294012017548084
-0.0318771786987781
-0.0336742475628852
-0.034830018877983
-0.0353922098875045
-0.0354228615760803
-0.035007357597351
-0.0342503786087036
-0.0332589223980903
-0.0321248322725296
-0.0309149026870727
-0.0296693369746208
-0.0284042060375213
-0.0271122977137565
-0.0257663186639547
-0.024329587817192
-0.022766999900341
-0.0210505649447441
-0.0191614925861358
-0.0170907005667686
-0.0148441065102815
-0.0124531928449869
-0.0099752228707075
-0.0074785081669688
-0.0050263586454093
-0.0026666396297514
-0.0004270004574209
0.0016831579850986
0.0036679587792605
0.0055424030870199
0.0073296930640935
0.0090557429939508
0.0107429223135113
0.0124049894511699
0.0140454536303877
0.0156605131924152
0.0172385163605213
0.0187530778348445
0.0201615914702415
0.0214135721325874
0.0224622003734111
0.0232747308909893
0.0238403268158435
0.0241720303893089
0.0243011191487312
0.0242706853896379
0.0241314750164747
0.0239336285740137
0.0237167589366436
0.0235070046037435
0.0233227908611297
0.0231819562613964
0.0230941399931907
0.0230365209281444
0.0229328349232673
0.0226471200585365
0.0219938531517982
0.0207690335810184
0.0187963526695966
0.0159714818000793
0.0122907115146517
0.007855299860239
0.0028512896969914
-0.0024832841008901
-0.0078909555450081
-0.0131240850314497
-0.0179686024785041
-0.0222578328102827
-0.0258825868368148
-0.0287996307015419
-0.0310251526534557
-0.0326122380793094
-0.0336289592087268
-0.0341472066938877
-0.0342391729354858
-0.0339747406542301
-0.0334179922938346
-0.0326248258352279
-0.0316395312547683
-0.0304888002574443
-0.0291804932057857
-0.0277105122804641
-0.0260686073452234
-0.0242389906197786
-0.0222057253122329
-0.01996885612607
-0.0175581313669681
-0.0150300608947873
-0.0124528557062149
-0.0098925251513719
-0.0074064889922738
-0.0050410870462656
-0.002828998491168
-0.0007887044921517
0.0010749474167823
0.0027730371803045
0.0043337009847164
0.0057971458882093
0.0072085382416844
0.0086135547608137
0.0100509198382496
0.0115353120490908
0.0130426287651062
0.0145162316039204
0.015890447422862
0.0171112455427646
0.0181446019560098
0.0189784783869981
0.0196244250982999
0.0201150067150592
0.0204947590827941
0.0208114590495824
0.0211087428033351
0.0214183647185564
0.021759508177638
0.0221435986459255
0.0225693620741367
0.0230089873075485
0.0234055742621421
0.0236878879368305
0.0237886235117912
0.0236574076116085
0.023267725482583
0.0226118676364421
0.0216815043240785
0.0204495526850223
0.0188709367066621
0.0169008374214172
0.0145166907459497
0.0117341093719005
0.0086172027513384
0.0052827997133135
0.0018849631305783
-0.0014220236334949
-0.0045151156373322
-0.0073112766258418
-0.0097639970481395
-0.0118573540821671
-0.0135963438078761
-0.0149930827319622
-0.0160570014268159
-0.0167953073978424
-0.0172180514782667
-0.0173408146947622
-0.0171854831278324
-0.0167801789939403
-0.0161534454673528
-0.0153236584737896
-0.014299226924777
-0.0130929658189415
-0.0117302406579256
-0.0102422749623656
-0.0086561618372797
-0.0069884248077869
-0.0052437083795666
-0.0034192644525319
-0.0015112315304577
0.0004797242581844
0.0025437911972403
0.0046592284925282
0.0067907739430665
0.0088918711990118
0.0109150251373648
0.0128254014998674
0.0146028902381658
0.0162296406924724
0.0176800526678562
0.0189218018203973
0.0199231766164302
0.0206631273031234
0.0211365222930908
0.0213519446551799
0.0213305726647377
0.0211068987846374
0.0207229256629943
0.0202174112200737
0.0196196902543306
0.0189506206661462
0.0182296056300401
0.0174844861030578
0.0167502276599407
0.0160517245531082
0.01538997143507
0.0147454561665654
0.0140924090519547
0.0134099619463086
0.0126801049336791
0.0118751004338264
0.0109426192939281
0.0097950454801321
0.0083129703998565
0.0063677113503217
0.0038545969873666
0.0007247515022754
-0.0029935427010059
-0.007188307121396
-0.0116777475923299
-0.0162471383810043
-0.0206924676895141
-0.024848960340023
-0.0286006405949592
-0.0318781733512878
-0.0346502438187599
-0.03691216558218
-0.0386755689978599
-0.0399619117379188
-0.0408000648021698
-0.0412247516214847
-0.0412741005420684
-0.0409874767065048
-0.040400430560112
-0.0395367816090583
-0.0384118892252445
-0.0370501093566417
-0.0354945138096809
-0.0337986946105957
-0.0320150479674339
-0.0301895588636398
-0.0283576268702745
-0.0265394207090139
-0.0247420500963926
-0.022964023053646
-0.021193042397499
-0.0194031968712806
-0.0175597220659255
-0.0156277474015951
-0.0135772917419672
-0.0113834915682673
-0.0090303607285022
-0.0065218051895499
-0.0038885979447513
-0.0011834539473056
0.0015282810200005
0.0041750487871468
0.0066856564953923
0.0089987087994813
0.0110712088644504
0.0128843365237116
0.0144451055675745
0.0157812088727951
0.0169315692037343
0.0179377906024456
0.0188397318124771
0.0196757316589355
0.0204790327697992
0.0212644208222627
0.0220177583396434
0.0227009952068328
0.0232667028903961
0.0236698128283023
0.0238748602569103
0.0238639265298843
0.0236426200717687
0.0232386738061904
0.0226921029388904
0.0220359973609447
0.0212723240256309
0.0203536823391914
0.0191837586462497
0.0176433827728033
0.0156261418014764
0.0130621269345283
0.009933577850461
0.0062884595245122
0.002241363748908
-0.0020423957612365
-0.0063721574842929
-0.0105589106678962
-0.014437461271882
-0.0178808607161045
-0.0208064317703247
-0.02317432500422
-0.0249805189669132
-0.0262433104217052
-0.026985689997673
-0.027224812656641
-0.0269783101975917
-0.0262812748551368
-0.0251953937113285
-0.0238013472408056
-0.0221828911453485
-0.0204139538109302
-0.0185522511601448
-0.0166367664933204
-0.0146864233538508
-0.0127005781978368
-0.0106649734079837
-0.0085615627467632
-0.0063745714724063
-0.0040926337242126
-0.0017109345644712
0.0007675066590309
0.0033280979841947
0.00593763589859
0.0085434596985578
0.0110825859010219
0.0134946200996637
0.0157309621572494
0.0177587792277336
0.0195645429193973
0.0211559701710939
0.0225569754838943
0.0237985178828239
0.0249118283390998
0.0259252414107322
0.0268628671765327
0.0277468040585517
0.0286005120724439
0.0294403731822967
0.0302591659128665
0.0310231037437915
0.0316839814186096
0.0321924537420272
0.032506912946701
0.0325987264513969
0.0324546992778778
0.032077919691801
0.0314883776009082
0.0307216383516788
0.0298245232552289
0.0288500189781188
0.0278498791158199
0.0268662422895431
0.0259290486574172
0.0250485315918922
0.024190304800868
0.0232550296932458
0.0220891572535038
0.0205201115459203
0.0183975435793399
0.0156313851475715
0.0122174005955457
0.0082409912720322
0.0038609635084867
-0.0007176883518695
-0.00527546973899
-0.0096092717722058
-0.0135550256818532
-0.0169960483908653
-0.0198589041829109
-0.0221104212105274
-0.0237632654607296
-0.0248755551874637
-0.0255347676575183
-0.0258378684520721
-0.0258767530322074
-0.0257268529385328
-0.0254404004663229
-0.0250487774610519
-0.0245712958276271
-0.0240217670798301
-0.023409429937601
-0.0227372273802757
-0.0219993535429239
-0.0211774855852127
-0.0202387906610965
-0.0191467404365539
-0.0178836546838283
-0.0164635628461837
-0.0149259287863969
-0.0133209284394979
-0.0116981333121657
-0.0101030906662344
-0.0085752187296748
-0.0071417144499719
-0.0058142328634858
-0.0045914151705801
-0.0034620068036019
-0.0024084821343421
-0.0014127851463854
-0.0004583811387419
0.0004741605371236
0.0014046765863895
0.0023371642455458
0.003248980268836
0.0040977532044053
0.0048358691856265
0.005423329770565
0.0058368723839521
0.0060741920024156
0.0061538042500615
0.0061112251132726
0.0059892442077398
0.0058259274810552
0.0056487619876861
0.005474217236042
0.0053117088973522
0.0051736831665039
0.0050782142207026
0.0050292452797293
0.0049878526479005
0.0048608155921101
0.0045137563720345
0.0037989104166626
0.0025882041081786
0.000805172137916
-0.0015526236966252
-0.0044083101674914
-0.0076190535910427
-0.0110026746988296
-0.0143680432811379
-0.0175398159772157
-0.0203718785196542
-0.0227521788328886
-0.0246092267334461
-0.0259203910827636
-0.0267086569219827
-0.027024982497096
-0.0269291251897811
-0.0264804977923631
-0.0257371645420789
-0.0247530359774827
-0.0235726051032543
-0.0222299844026565
-0.0207505896687507
-0.0191503092646598
-0.0174352880567312
-0.0156058361753821
-0.0136578269302845
-0.0115792173892259
-0.0093558952212333
-0.0069904224947094
-0.0045130983926355
-0.0019745077006518
0.0005692816339433
0.003066997975111
0.0054760104976594
0.0077644884586334
0.0099145956337451
0.0119230188429355
0.0137970726937055
0.0155503042042255
0.0171990543603897
0.0187578611075878
0.0202364772558212
0.0216422230005264
0.0229794830083847
0.0242412351071834
0.0254047829657793
0.0264379680156707
0.0273079760372638
0.0279876794666051
0.0284606143832206
0.0287256054580211
0.0287987533956766
0.0287097711116075
0.0284940674901008
0.0281842984259128
0.0278040543198585
0.027365930378437
0.0268763490021228
0.0263449884951114
0.0257863160222768
0.0252063833177089
0.0245905499905347
0.0239067077636718
0.0231147184967994
0.0221670605242252
0.0210008770227432
0.0195319578051567
0.0176606699824333
0.015291872434318
0.0123608848080039
0.008856694214046
0.0048355273902416
0.0004196409136056
-0.0042136115953326
-0.0088476678356528
-0.0132566280663013
-0.0172458812594413
-0.0206789374351501
-0.0234829206019639
-0.0256454087793827
-0.027206502854824
-0.028243601322174
-0.0288540571928024
-0.0291415266692638
-0.029204785823822
-0.0291281323879957
