bvp
0.0242329984903335
0.0238619092851877
0.0234304927289485
0.0229632649570703
0.022475216537714
0.0219751615077257
0.0214703120291233
0.02095896191895
0.0204056594520807
0.0197206158190965
0.0187624618411064
0.0173615403473377
0.0153594110161066
0.0126563180238008
0.009245129302144
0.0052174543961882
0.0007473491132259
-0.0039387536235153
-0.008599791675806
-0.0130146043375134
-0.0170045718550682
-0.0204417407512664
-0.0232455637305974
-0.0253810808062553
-0.0268631353974342
-0.0277509912848472
-0.0281281732022762
-0.0280838124454021
-0.0277037788182497
-0.0270660780370235
-0.0262378714978694
-0.0252737458795309
-0.0242135748267173
-0.0230809058994054
-0.0218839198350906
-0.0206200201064348
-0.0192815028131008
-0.0178551170974969
-0.0163170155137777
-0.0146391205489635
-0.012809058651328
-0.0108428876847028
-0.0087818903848528
-0.0066820355132222
-0.0046013835817575
-0.0025890045799314
-0.0006799031980335
0.0011056531220674
0.0027618831954896
0.0042952802032232
0.0057214256376028
0.0070632696151733
0.0083463257178664
0.0095911780372262
0.0108126252889633
0.0120189366862177
0.0131997242569923
0.0143177779391407
0.0153224654495716
0.0161729771643877
0.0168513990938663
0.0173613838851451
0.0177195724099874
0.0179492495954036
0.0180800259113311
0.0181466303765773
0.0181801505386829
0.01819733902812
0.0181982945650815
0.0181748513132333
0.0181228574365377
0.0180456675589084
0.0179444774985313
0.0178091824054718
0.0176176968961954
0.0173360612243413
0.0169146172702312
0.0162817575037479
0.0153419626876711
0.0139872413128614
0.0121205430477857
0.0096820928156375
0.0066712200641632
0.0031570440623909
-0.000724977813661
-0.0047883335500955
-0.0088182482868433
-0.0126023506745696
-0.0159688852727413
-0.0188149083405733
-0.0211071576923131
-0.0228637382388114
-0.0241334550082683
-0.0249765682965517
-0.0254479814320802
-0.02559026889503
-0.0254364386200904
-0.0250153094530105
-0.0243563596159219
-0.023491270840168
-0.022451177239418
-0.0212612226605415
-0.0199349839240312
-0.0184783525764942
-0.0169048681855201
-0.0152445323765277
-0.0135362548753619
-0.0118148205801844
-0.0101024843752384
-0.0084076318889856
-0.0067284256219863
-0.005057081580162
-0.0033846432343125
-0.001705982722342
-1.986138522624969e-05
0.0016742553561925
0.003373758867383
0.0050695315003395
0.0067517850548028
0.0084141148254275
0.0100445440039038
0.0116177555173635
0.0131003009155392
0.0144596192985773
0.0156693272292614
0.0167137626558542
0.0175917036831378
0.0183142684400081
0.0188974067568779
0.0193568170070648
0.0197088532149791
0.0199709851294755
0.0201581418514251
0.0202816557139158
0.0203539784997701
0.0203889366239309
0.0203922130167484
0.0203543547540903
0.0202535111457109
0.0200632773339748
0.0197630431503057
0.0193477198481559
0.0188307296484708
0.0182368122041225
0.0175870880484581
0.0168828107416629
0.0160925183445215
0.0151443649083375
0.013928672298789
0.0123192137107253
0.0102124605327844
0.0075648478232324
0.0044057392515242
0.0008277436718344
-0.0030315262265503
-0.0070108016952872
-0.0109448935836553
-0.014679891988635
-0.0180874280631542
-0.0210769362747669
-0.0235995557159185
-0.02564038336277
-0.0272059105336666
-0.0283177550882101
-0.0290118493139743
-0.0293317101895809
-0.0293154530227184
-0.0289934426546096
-0.0284011363983154
-0.0275883749127388
-0.0266140270978212
-0.025534113869071
-0.0243934523314237
-0.0232218112796545
-0.0220302920788526
-0.0208090171217918
-0.0195323806256055
-0.0181708969175815
-0.0167009569704532
-0.015110638923943
-0.0134048629552125
-0.0116046126931905
-0.0097360154613852
-0.007822835817933
-0.0058917850255966
-0.0039765541441738
-0.0021121408790349
-0.0003292188048362
0.0013481639325618
0.0029065762646496
0.0043460233137011
0.0056767961941659
0.0069142002612352
0.0080749923363327
0.0091744605451822
0.0102237602695822
0.0112298028543591
0.0122015569359064
0.0131589109078049
0.0141275078058242
0.0151167903095483
0.0161051489412784
0.0170465651899576
0.0178883336484432
0.0185866579413414
0.0191145222634077
0.019462950527668
0.0196395404636859
0.0196657329797744
0.0195727385580539
0.0193974003195762
0.0191782731562852
0.0189477279782295
0.0187212061136961
0.0184904076159
0.0182128977030515
0.0177945122122764
0.0170889534056186
0.0159301683306694
0.014180913567543
0.0117728095501661
0.0087246969342231
0.0051391334272921
0.0011823774548247
-0.0029446224216371
-0.0070342207327485
-0.0108941690996289
-0.0143682891502976
-0.0173537228256464
-0.0198005773127079
-0.0216941032558679
-0.0230423733592033
-0.0238800160586833
-0.0242702718824148
-0.0242923125624656
-0.0240223612636327
-0.023521464318037
-0.0228349678218364
-0.0219980180263519
-0.0210369881242513
-0.0199670325964689
-0.0187926385551691
-0.0175102073699235
-0.0161100663244724
-0.0145815163850784
-0.0129194604232907
-0.0111243650317192
-0.0092004053294658
-0.0071628401055932
-0.0050448039546608
-0.0028922092169523
-0.0007548676803708
0.0013200845569372
0.003294076770544
0.00514133926481
0.0068508475087583
0.0084272138774394
0.0098894359543919
0.0112644992768764
0.0125769451260566
0.0138415992259979
0.0150663992390036
0.0162617024034261
0.0174396224319934
0.0185988210141658
0.0197144504636526
0.0207456536591053
0.0216508544981479
0.0223978571593761
0.0229681525379419
0.0233607701957225
0.0235930830240249
0.0236946791410446
0.0236974507570266
0.0236273817718029
0.0235010981559753
0.023326501250267
0.0231072064489126
0.0228498876094818
0.0225645862519741
0.0222519747912883
0.0218940172344446
0.0214638616889715
0.0209436509758234
0.0203294996172189
0.0196211077272892
0.018804894760251
0.0178352575749158
0.0166240707039833
0.0150523744523525
0.0130003727972507
0.0103783719241619
0.0071480870246887
0.0033361120149493
-0.0009590592235326
-0.0055787814781069
-0.0103383576497435
-0.0150591237470507
-0.0195794813334941
-0.0237523280084133
-0.027443304657936
-0.0305353701114654
-0.0329365916550159
-0.0345886163413524
-0.0354737527668476
-0.0356161594390869
-0.0350788012146949
-0.0339605435729026
-0.0323915034532547
-0.0305214524269104
-0.0285018309950828
-0.026472732424736
-0.0245586540549993
-0.0228603351861238
-0.0214397870004177
-0.0203114859759807
-0.0194459240883588
-0.0187802053987979
-0.0182330459356308
-0.0177224185317754
-0.0171786472201347
-0.0165519397705793
-0.0158177334815263
-0.0149771273136138
-0.0140504501760005
-0.0130657777190208
-0.0120430923998355
-0.010981305502355
-0.0098565006628632
-0.0086248386651277
-0.0072217667475342
-0.005560009740293
-0.0035299276933073
-0.0010057650506496
0.0021348549053072
0.005977161694318
0.0105359628796577
0.0157402902841568
0.0214375127106905
0.0274075157940387
0.0333818644285202
0.0390692353248596
0.0441868305206298
0.0484871342778205
0.0517678931355476
0.0538740679621696
0.0547080673277378
0.0542450509965419
0.0525435917079448
0.0497476421296596
0.0460758581757545
0.0417976453900337
0.0371955782175064
0.0325169116258621
0.0279289335012435
0.0234907418489456
0.0191464014351367
0.0147492121905088
0.0101194828748703
0.0051130950450897
-0.0003342311829328
-0.0061937561258673
-0.0123337125405669
-0.0185080096125602
-0.0243749506771564
-0.029554683715105
-0.0337020196020603
-0.0365703999996185
-0.0380489006638526
-0.038165807723999
-0.0370705425739288
-0.0350109077990055
-0.0323083400726318
-0.0293196067214012
-0.0263850707560777
-0.0237862411886453
-0.0217268206179142
-0.0203269571065902
-0.0196226350963115
-0.0195760168135166
-0.0200982447713613
-0.0210786648094654
-0.022414956241846
-0.0240348279476165
-0.0259006693959236
-0.0280022267252206
-0.0303478986024856
-0.0329566486179828
-0.0358481183648109
-0.0390268936753273
-0.0424614325165748
-0.0460779927670955
-0.0497779548168182
-0.0534437634050846
-0.0569118894636631
-0.0599511638283729
-0.062286153435707
-0.0636433959007263
-0.06377574801445
-0.0624592676758766
-0.059486486017704
-0.0546774193644523
-0.0479159951210022
-0.0392030589282512
-0.028706906363368
-0.0167928393930196
-0.0040216222405433
0.0088822338730096
0.0210975967347621
0.0318226814270019
0.0404239557683467
0.0465672090649604
0.0502841919660568
0.0519549176096916
0.0522170923650264
0.0518340654671192
0.0515524744987487
0.0519769042730331
0.0534831061959266
0.0561812669038772
0.0599344223737716
0.0644263923168182
0.0692495331168174
0.0739697739481926
0.0781552121043205
0.0813910588622093
0.083296962082386
0.083545483648777
0.0818839967250824
0.0781584158539772
0.0723297744989395
0.0644816309213638
0.0548180863261222
0.043646402657032
0.0313466154038906
0.0183407999575138
0.0050675775855779
-0.008038904517889
-0.0205661058425903
-0.0321445576846599
-0.0424769744277
-0.0513580068945884
-0.0586733929812908
-0.0643888637423515
-0.0685381144285202
-0.071209467947483
-0.0725320950150489
-0.0726636722683906
-0.071777656674385
-0.0700487866997718
-0.0676404237747192
-0.0646973252296447
-0.0613420605659484
-0.0576682314276695
-0.0537275299429893
-0.0495229810476303
-0.045016411691904
-0.040133561939001
-0.0347558856010437
-0.0287139676511287
-0.0217986740171909
-0.0137918628752231
-0.0045111365616321
0.0061394535005092
0.0181215014308691
0.0312290005385875
0.0450838357210159
0.0591651946306228
0.072863645851612
0.0855453684926033
0.0966122895479202
0.1055455654859542
0.1119350492954254
0.1155097112059593
0.1161698773503303
0.1140055805444717
0.1092882007360458
0.1024377197027206
0.093975655734539
0.084471695125103
0.074491411447525
0.0645501315593719
0.0550751090049743
0.0463788099586963
0.0386450812220573
0.0319307968020439
0.0261841304600238
0.021269503980875
0.0169923417270183
0.0131303034722805
0.0094713997095823
0.0058485921472311
0.0021603126078844
-0.0016317330300807
-0.005529192276299
-0.0095342248678207
-0.0136724105104804
-0.0179888606071472
-0.0225277952849864
-0.0273105259984731
-0.0323180705308914
-0.0374808572232723
-0.0426785312592983
-0.0477572418749332
-0.0525652393698692
-0.0569861829280853
-0.0609505102038383
-0.0644281283020973
-0.0674129649996757
-0.0699048936367034
-0.0718946456909179
-0.0733560025691986
-0.0742474198341369
-0.0745249390602111
-0.0741602629423141
-0.0731527060270309
-0.0715311393141746
-0.0693481564521789
-0.0666716694831848
-0.0635817721486091
-0.0601711235940456
-0.0565380603075027
-0.0527715496718883
-0.0489352531731128
-0.0450569279491901
-0.0411293990910053
-0.0371211171150207
-0.0329894870519638
-0.0286944732069969
-0.0242090970277786
-0.0195252150297164
-0.0146572841331362
-0.0096426336094737
-0.0045352578163146
0.0006042644381523
0.0057127950713038
0.0107169514521956
0.0155271776020526
0.0200473628938198
0.0241939090192317
0.02791129052639
0.0311777107417583
0.0340003445744514
0.0364051163196563
0.0384295806288719
0.0401209890842437
0.0415338203310966
0.0427247956395149
0.04374760389328
0.0446497835218906
0.0454716719686985
0.0462392456829547
0.0469496622681617
0.0475663058459758
0.0480332672595977
0.0482973158359527
0.0483222678303718
0.0480948090553283
0.0476280450820922
0.0469604358077049
0.0461453348398208
0.0452385768294334
0.0442903637886047
0.0433341413736343
0.042367860674858
0.0413355901837348
0.0401192903518676
0.0385398566722869
0.0363688580691814
0.0333679877221584
0.0293546803295612
0.0242592804133892
0.0181478559970855
0.0112125221639871
0.0037386594340205
-0.0039427690207958
-0.0115036806091666
-0.0186552014201879
-0.0251696109771728
-0.0308896098285913
-0.0357261970639228
-0.0396460965275764
-0.042651891708374
-0.0447692535817623
-0.0460511855781078
-0.0465856790542602
-0.0464914143085479
-0.0459027327597141
-0.0449516549706459
-0.0437518209218978
-0.0423862189054489
-0.0409008339047431
-0.0393057726323604
-0.037582904100418
-0.0356984287500381
-0.0336151309311389
-0.031300600618124
-0.028733717277646
-0.0259085390716791
-0.0228388030081987
-0.0195689275860786
-0.0161799136549234
-0.0127760507166385
-0.0094602741301059
-0.0063147102482616
-0.0033929233904927
-0.0007218001992441
0.001691126730293
0.0038514828775078
0.0057786745019257
0.007509290240705
0.009094032458961
0.0105882603675127
0.0120457923039793
0.0135179916396737
0.0150459799915552
0.0166436806321144
0.018288655206561
0.0199308283627033
0.0215107351541519
0.0229742284864187
0.0242801178246736
0.025404043495655
0.0263387523591518
0.0270917043089866
0.0276808682829141
0.0281281452625989
0.0284545198082923
0.0286779068410396
0.0288129728287458
0.0288735479116439
0.0288634058088064
0.0287460554391145
0.0284176841378211
0.0277090091258287
0.0264155808836221
0.0243440177291631
0.0213596858084201
0.0174228437244892
0.0126053020358085
0.0070853102952241
0.0011229198426008
-0.0049784202128648
-0.0109153781086206
-0.0164242647588253
-0.0213058441877365
-0.0254289843142032
-0.0287245716899633
-0.0311837196350097
-0.032853215932846
-0.0338179357349872
-0.034180149435997
-0.0340482592582702
-0.0335305407643318
-0.0327282398939132
-0.0317300781607627
-0.0306069944053888
-0.0294084772467613
-0.0281636752188205
-0.0268823727965354
-0.0255548544228076
-0.0241554044187068
-0.0226463600993156
-0.0209867935627698
-0.0191526487469673
-0.017151340842247
-0.0150169692933559
-0.0127987805753946
-0.0105534028261899
-0.0083372918888926
-0.0061977952718734
-0.0041663683950901
-0.0022550094872713
-0.0004548374563455
0.0012620883062481
0.00293774693273
0.0046240417286753
0.0063810111023485
0.0082735558971762
0.0103598237037658
0.0126711502671241
0.015199277549982
0.0179011207073926
0.020709816366434
0.0235404819250106
0.026294782757759
0.0288706086575984
0.031174024567008
0.0331291779875755
0.0346846096217632
0.035813245922327
0.0365061908960342
0.0367650091648101
0.0365974605083465
0.036018319427967
0.0350479930639267
0.0337040871381759
0.0319973304867744
0.0299403835088014
0.0275628436356782
0.0249221548438072
0.0221018102020025
0.0191910862922668
0.0162518639117479
0.0132916588336229
0.0102604627609252
0.0070710759609937
0.0036312770098447
-0.0001230873167514
-0.0042026098817586
-0.0085519179701805
-0.0130580542609095
-0.0175810512155294
-0.0219854637980461
-0.0261533670127391
-0.0299871675670146
-0.0334136486053466
-0.036383606493473
-0.0388656184077262
-0.0408427342772483
-0.0423123687505722
-0.0432855784893035
-0.0437874719500541
-0.0438586398959159
-0.0435569174587726
-0.0429549068212509
-0.0421237275004386
-0.0411144755780696
-0.0399584174156188
-0.0386772789061069
-0.0372834838926792
-0.0357718728482723
-0.034116256982088
-0.0322781987488269
-0.0302240662276744
-0.0279388427734375
-0.0254313834011554
-0.0227352976799011
-0.0199068617075681
-0.0170158669352531
-0.014130868948996
-0.0113056516274809
-0.00857072789222
-0.0059372214600443
-0.0034163645468652
-0.0010370595846325
0.0011581375729292
0.0031330967321991
0.0048719318583607
0.0063790152780711
0.0076757185161113
0.0088012069463729
0.0098157273605465
0.0108003951609134
0.0118528176099061
0.0130790648981928
0.0145739987492561
0.0163979455828666
0.0185696501284837
0.0210642833262681
0.0237998664379119
0.0266322121024131
0.0293756574392318
0.0318382866680622
0.0338580608367919
0.0353296287357807
0.0362129621207714
0.0365275666117668
0.0363435111939907
0.035768374800682
0.0349220670759677
0.0339043699204921
0.0327657982707023
0.0314907506108284
0.0300058368593454
0.0282103959470987
0.0260089393705129
0.0233384035527706
0.0201901253312826
0.0166194811463356
0.0127415470778942
0.0087157525122165
0.0047204704023897
0.0009214836172759
-0.0025567549746483
-0.0056460313498973
-0.0083293989300727
-0.0106246899813413
-0.0125685129314661
-0.0142003502696752
-0.0155473724007606
-0.0166212450712919
-0.0174289382994174
-0.0179820321500301
-0.0182934831827878
-0.018369048833847
-0.0182033851742744
-0.0177788734436035
-0.0170638635754585
-0.0160172041505575
-0.0146043486893177
-0.0128172049298882
-0.0106857204809784
-0.0082796066999435
-0.0057035759091377
-0.0030831340700387
-0.0005452006007544
0.0017916865181177
0.003819519188255
0.0054514715448021
0.0066376165486872
0.0073709120042622
0.0076851211488246
0.0076501555740833
0.0073607112281024
0.0069193020462989
0.0064220409840345
0.0059489426203072
0.0055574988946318
0.005281975492835
0.0051374323666095
0.0051260581240057
0.0052451896481215
0.0054900650866329
0.0058491583913564
0.0063031828030943
0.006831940729171
0.0074208863079547
0.0080595463514328
0.0087324427440762
0.0094114001840353
0.0100531289353966
0.0105994651094079
0.0109817991033196
0.0111325085163116
0.0109995733946561
0.010558133944869
0.009819159284234
0.0088325077667832
0.0076701268553733
0.0063884947448968
0.0049949390813708
0.0034381691366434
0.0016224822029471
-0.0005623139441013
-0.0032034395262598
-0.0063334316946566
-0.0099151507019996
-0.0138433184474706
-0.0179582145065069
-0.0220677740871906
-0.0259741879999637
-0.02949820458889
-0.0324910171329975
-0.0348355211317539
-0.0364545360207557
-0.0373278856277465
-0.0374974608421325
-0.0370547287166118
-0.0361234471201896
-0.0348434671759605
-0.0333555079996585
-0.0317878797650337
-0.0302441753447055
-0.0287928488105535
-0.0274656489491462
-0.0262640621513128
-0.0251635145395994
-0.0241148583590984
-0.0230461433529853
-0.0218650698661804
-0.0204735230654478
-0.0187968909740448
-0.016805250197649
-0.0145127112045884
-0.0119663197547197
-0.0092347236350178
-0.0063973348587751
-0.0035350080579519
-0.0007207579910755
0.0019890237599611
0.0045580696314573
0.0069716107100248
0.0092382654547691
0.0113861802965402
0.0134536102414131
0.0154802305623888
0.0174950882792472
0.019498448818922
0.0214536041021347
0.0232992656528949
0.0249702632427215
0.0264137703925371
0.0276003405451774
0.0285310745239257
0.029236726462841
0.0297667235136032
0.0301770530641078
0.0305244699120521
0.0308639667928218
0.0312450118362903
0.0317059978842735
0.0322684049606323
0.032928816974163
0.0336507260799407
0.0343680679798126
0.035000592470169
0.0354687198996543
0.0357040613889694
0.0356526896357536
0.035265002399683
0.0344780310988426
0.0332049541175365
0.0313435345888137
0.0288028810173273
0.0255328305065631
0.0215447507798671
0.0169264674186706
0.0118489535525441
0.0065515358000993
0.0013013677671551
-0.0036546448245644
-0.0081221899017691
-0.0119707388803362
-0.0151321152225136
-0.0175938159227371
-0.0193884130567312
-0.0205795671790838
-0.0212485715746879
-0.0214847307652235
-0.0213776342570781
-0.0210079737007617
-0.0204391870647668
-0.0197124704718589
-0.0188456401228904
-0.0178431533277034
-0.0167164951562881
-0.0154961133375763
-0.0142259886488318
-0.0129505097866058
-0.011702929623425
-0.0104997651651501
-0.0093433707952499
-0.0082273073494434
-0.007139004766941
-0.0060632042586803
-0.0049867276102304
-0.0039010823238641
-0.002804001327604
-0.0016976313199847
-0.0005799059290438
0.0005598915740847
0.0017334977164864
0.0029456818010658
0.0041915262117981
0.0054537411779165
0.0067006247118115
0.0078867608681321
0.0089556388556957
0.0098446970805525
0.0104960929602384
0.0108737461268901
0.0109806023538112
0.0108669456094503
0.0106247635558247
0.0103746997192502
0.0102501707151532
0.010369605384767
0.0108016394078731
0.0115477330982685
0.0125509612262249
0.0137183610349893
0.0149417407810688
0.0161106772720813
0.0171200297772884
0.0178737696260213
0.0182815138250589
0.0182435475289821
0.0176348872482776
0.0163093227893114
0.0141272749751806
0.0109971053898334
0.0069171441718935
0.0019938247278332
-0.0035783434286713
-0.0095544168725609
-0.0156710799783468
-0.021671462804079
-0.0273268818855285
-0.032454989850521
-0.0369304046034812
-0.0406861118972301
-0.0437060445547103
-0.0460100546479225
-0.0476385578513145
-0.0486435145139694
-0.0490842759609222
-0.0490228123962879
-0.048517320305109
-0.0476242527365684
-0.0464106053113937
-0.0449571050703525
-0.0433428771793842
-0.0416251234710216
-0.0398285500705242
-0.037946444004774
-0.0359463319182395
-0.0337776094675064
-0.0313833057880401
-0.028713259845972
-0.0257329959422349
-0.0224268492311239
-0.0187987405806779
-0.0148696266114711
-0.0106687266379594
-0.0062311440706253
-0.0016117915511131
0.0031024757772684
0.0078001003712415
0.0123639963567256
0.0166895203292369
0.0206965561956167
0.0243352372199296
0.0275843013077974
0.0304427351802587
0.0329200066626071
0.035029336810112
0.0367851555347442
0.0382038429379463
0.0393074341118335
0.0401302948594093
0.0407190807163715
0.0411189869046211
0.0413591898977756
0.0414504259824752
0.0413928031921386
0.0411863401532173
0.0408383943140506
0.0403663478791713
0.0397958531975746
0.0391541942954063
0.0384616404771804
0.0377269461750984
0.0369475334882736
0.0361116304993629
0.0352048948407173
0.0342196635901927
0.0331488363444805
0.0319544002413749
0.030537225306034
0.0287416614592075
0.0263950489461421
0.0233594626188278
0.0195745192468166
0.0150803625583648
0.0100188925862312
0.0046137804165482
-0.0008662580512464
-0.0061509106308221
-0.0110107772052288
-0.0152910985052585
-0.0189229249954223
-0.02190812677145
-0.0242976769804954
-0.0261777862906456
-0.0276533253490924
-0.028823509812355
-0.0297639295458793
-0.0305216759443283
-0.0311173740774393
-0.031550608575344
-0.0318089686334133
-0.0318774282932281
-0.0317432507872581
-0.031395748257637
-0.0308256894350051
-0.03002804890275
-0.0290032532066106
-0.0277535561472177
-0.0262858122587203
-0.0246262624859809
-0.0228281617164611
-0.02095896191895
-0.0190800875425338
-0.0172342918813228
-0.0154425576329231
-0.0137064540758728
-0.0120126754045486
-0.0103387553244829
-0.0086583001539111
-0.0069432188756763
-0.0051643592305481
-0.0032927501015365
-0.0012983945198357
0.0008502039127051
0.0031741771381348
0.0056654699146747
0.0082813166081905
0.010955398902297
0.0136137213557958
0.0161877833306789
0.018622389063239
0.0208763908594846
0.0229168534278869
0.0247104372829198
0.0262196660041809
0.027408193796873
0.0282483361661434
0.0287235509604215
0.0288309082388877
0.0285895466804504
0.0280428361147642
0.0272427201271057
0.0262333285063505
0.0250543244183063
0.0237564891576766
0.0224109403789043
0.0211055278778076
0.0199298113584518
0.0189497619867324
0.0181787870824337
0.017556607723236
0.0169429965317249
0.0161326043307781
0.0148972552269697
0.0130463810637593
0.010477852076292
0.0071927402168512
0.0032737767323851
-0.0011452948674559
-0.0059007834643125
-0.0108143389225006
-0.0157057717442512
-0.020402630791068
-0.0247500948607921
-0.028621457517147
-0.0319237038493156
-0.0345977023243904
-0.0366184823215007
-0.0379965230822563
-0.0387754738330841
-0.0390217490494251
-0.0388071537017822
-0.0381986945867538
-0.0372641570866107
-0.0360772535204887
-0.0347079932689666
-0.0332062169909477
-0.0315921455621719
-0.0298592150211334
-0.0279857087880373
-0.0259489733725786
-0.0237385593354702
-0.0213650166988372
-0.0188606344163417
-0.0162736121565103
-0.0136608174070715
-0.0110796252265572
-0.0085775330662727
-0.0061881393194198
-0.0039394032210111
-0.0018605499062687
2.2001564502716064e-05
0.0016905420925468
0.0031391258817166
0.0043766619637608
0.0054269833490252
0.0063251880928874
0.0071143447421491
0.0078414734452962
0.0085521209985017
0.0092847757041454
0.0100635644048452
0.0108934994786977
0.0117656216025352
0.0126653835177421
0.0135731156915426
0.0144617408514022
0.0153006594628095
0.0160629041492939
0.0167302936315536
0.0172959212213754
0.0177637711167335
0.0181456245481967
0.0184585414826869
0.0187243595719337
0.0189677719026803
0.0192109551280736
0.0194659568369388
0.0197254754602909
0.0199488420039415
0.0200398154556751
0.0198304764926433
0.0190990436822175
0.0176243465393781
0.0152487466111779
0.0119224982336163
0.0077182268723845
0.0028174868784844
-0.0025201081298291
-0.0079963970929384
-0.0133164133876562
-0.0182237923145294
-0.0225243959575891
-0.0260978434234857
-0.0288937762379646
-0.0309107713401317
-0.0321756079792976
-0.0327406488358974
-0.0326859354972839
-0.0321091637015342
-0.0311088878661394
-0.029770653694868
-0.0281594209372997
-0.0263188555836677
-0.0242764670401811
-0.0220497008413076
-0.0196485202759504
-0.0170771069824695
-0.0143381059169769
-0.0114371534436941
-0.0083831846714019
-0.005186291411519
-0.0018640141934156
0.0015429705381393
0.0049631744623184
0.0083045056089758
0.0114728771150112
0.014388564042747
0.0169983822852373
0.0192821882665157
0.0212513729929924
0.0229429975152015
0.0244144927710294
0.0257377065718173
0.0269895438104867
0.0282396394759416
0.0295399352908134
0.0309219490736722
0.0323933809995651
0.0339263677597045
0.0354562476277351
0.0369006097316741
0.0381781980395317
0.039215825498104
0.0399513319134712
0.0403399877250194
0.0403617396950721
0.0400234758853912
0.039354883134365
0.0383987799286842
0.037201665341854
0.0358119308948516
0.0342858768999576
0.0326926968991756
0.0311053451150655
0.029578823596239
0.0281365774571895
0.0267741810530424
0.0254703275859355
0.0241941474378108
0.022903386503458
0.0215325783938169
0.0199751816689968
0.0180744715034961
0.0156401228159666
0.012488979846239
0.0084926802664995
0.0036149974912405
-0.0020682774484157
-0.0083705894649028
-0.0150253633037209
-0.0217397660017013
-0.0282436367124319
-0.0343164466321468
-0.0397964119911193
-0.0445777922868728
-0.0485984832048416
-0.0518233850598335
-0.0542328283190727
-0.0558205805718898
-0.0565974675118923
-0.0565971583127975
-0.0558810532093048
-0.0545347929000854
-0.0526545643806457
-0.0503320693969726
-0.0476513430476188
-0.0446992143988609
-0.0415708497166633
-0.0383587703108787
-0.035137839615345
-0.0319576784968376
-0.0288410522043705
-0.0257884040474891
-0.0227891374379396
-0.0198344960808753
-0.0169263575226068
-0.014077098108828
-0.0113021815195679
-0.0086160590872168
-0.0060331430286169
-0.0035665249451994
-0.0012294005136936
0.0009538246085867
0.0029404945671558
0.0046825082972645
0.0061518568545579
0.0073599815368652
0.0083603216335177
0.0092358170077204
0.0100803021341562
0.0109823290258646
0.0120139960199594
0.0132245868444442
0.0146379480138421
0.0162506960332393
0.0180339720100164
0.0199419055134058
0.0219166222959756
0.0238837506622076
0.0257510151714086
0.027419650927186
0.0288026873022317
0.0298391114920377
0.030498694628477
0.030780017375946
0.0307064577937126
0.030321080237627
0.029677864164114
0.0288274195045232
0.0277969911694526
0.0265680607408285
0.0250635500997304
0.0231573991477489
0.0207014046609401
0.0175579264760017
0.0136382551863789
0.008940496481955
0.0035696225240826
-0.0022699404507875
-0.0083046788349747
-0.0142351677641272
-0.0197805557399988
-0.0247108712792396
-0.02886164188385
-0.0321353673934936
-0.0344951562583446
-0.0359555818140506
-0.0365703925490379
-0.0364167690277099
-0.0355894714593887
-0.034209132194519
-0.032425757497549
-0.0304055549204349
-0.028307419270277
-0.0262607000768184
-0.024353040382266
-0.0226273480802774
-0.0210844539105892
-0.0196919254958629
-0.018395384773612
-0.0171286780387163
-0.0158245712518692
-0.0144244758412241
-0.0128825642168521
-0.0111644398421049
-0.0092497747391462
-0.00714395288378
-0.0048859324306249
-0.0025414009578526
-0.0001858081668615
0.0021146251820027
0.004316400270909
0.0064010694622993
0.0083696814253926
0.0102365016937255
0.0120229367166757
0.0137511519715189
0.01543874386698
0.0170939322561025
0.0187143888324499
0.020292978733778
0.0218205079436302
0.0232782904058694
0.0246336385607719
0.0258483402431011
0.0268922187387943
0.027750190347433
0.0284204706549644
0.0289105102419853
0.0292331725358963
0.0294023249298334
0.0294307172298431
0.0293300505727529
0.0291115157306194
0.028787538409233
0.0283760745078325
0.027906036004424
0.0274132788181304
0.02692193351686
0.0264274198561906
0.0258926209062337
0.0252467896789312
0.0243796855211257
0.0231391377747058
0.0213454272598028
0.0188268683850765
0.015463757328689
0.011222606524825
0.0061719128862023
0.000478159636259
-0.0056171892210841
-0.0118313562124967
-0.0178711675107479
-0.0234628692269325
-0.0283890925347805
-0.0325204879045486
-0.0358241647481918
-0.0383481085300445
-0.0401926562190055
-0.0414835140109062
-0.0423531271517276
-0.0429263897240161
-0.0433079600334167
-0.0435737669467926
-0.0437672585248947
-0.0438990332186222
-0.0439521931111812
-0.0438911020755767
-0.0436672866344451
-0.0432295762002468
-0.0425428189337253
-0.0415962599217891
-0.0403924398124218
-0.0389340668916702
-0.037222184240818
-0.0352607332170009
-0.0330579057335853
-0.030623672530055
-0.0279676970094442
-0.025094648823142
-0.0219918619841337
-0.0186138916760683
-0.0148769430816173
-0.0106674041599035
-0.0058561787009239
-0.0003259014338254
0.0059806443750858
0.0130195012316107
0.0206349603831768
0.0285626985132694
0.0364345535635948
0.0437983460724353
0.0501660779118537
0.0550863891839981
0.0582204274833202
0.0593944787979126
0.0586131140589714
0.0560359843075275
0.0519333966076374
0.0466415137052536
0.0405320227146148
0.0339847803115844
0.0273505821824073
0.0209209378808736
0.0149188889190554
0.0095026418566703
0.0047717383131384
0.000766634941101
-0.002539643086493
-0.0052456315606832
-0.0075151333585381
-0.0095625296235084
-0.011625581420958
-0.0139233106747269
-0.0166100580245256
-0.0197407640516757
-0.0232555102556943
-0.0269885621964931
-0.0307004805654287
-0.034119289368391
-0.0369809083640575
-0.0390675403177738
-0.0402397327125072
-0.0404556207358837
-0.0397735349833965
-0.0383370816707611
-0.03634525090456
-0.034015268087387
-0.0315500870347023
-0.0291155241429805
-0.0268235802650451
-0.0247212573885917
-0.0227869674563407
-0.0209423713386058
-0.0190840177237987
-0.017116256058216
-0.014965932816267
-0.0125827938318252
-0.0099389106035232
-0.0070322006940841
-0.0038864500820636
-0.0005420967936515
0.002954002469778
0.0065520741045475
0.0101998560130596
0.0138443037867546
0.0174336321651935
0.0209209248423576
0.0242699813097715
0.0274538341909647
0.0304430574178695
0.0331988222897052
0.035678394138813
0.0378469005227088
0.0396896973252296
0.0412185974419117
0.0424691252410411
0.043494913727045
0.0443622916936874
0.0451438836753368
0.0459101758897304
0.0467175468802452
0.0475955605506897
0.0485448874533176
0.0495494939386844
0.0505842119455337
0.0516060180962085
0.0525487884879112
0.0533361062407493
0.0538984462618827
0.0541817136108875
0.0541500523686409
0.0537884086370468
0.0531039461493492
0.0521222203969955
0.0508794337511062
0.0494167171418666
0.0477762892842292
0.0459961965680122
0.0441093072295188
0.0421458296477794
0.0401212871074676
0.0380093976855278
0.0357284769415855
0.0331577286124229
0.0301726330071687
0.0266846064478158
0.0226762853562831
0.0182233918458223
0.0134958885610103
0.0087386760860681
0.0042378911748528
0.0002782326191663
-0.0029057580977678
-0.0051700863987207
-0.0064711468294262
-0.0068443287163972
-0.0063749626278877
-0.0051772557199001
-0.0033740196377038
-0.0010726917535066
0.0016508717089891
0.0047518219798803
0.0082017444074153
0.0119688734412193
0.0159978680312633
0.020188994705677
0.0243810601532459
0.0283459722995758
0.0317995138466358
0.0344331860542297
0.0359713323414325
0.0362356230616569
0.0351774469017982
0.0328651182353496
0.0294530615210533
0.0251566842198371
0.020231656730175
0.0149509981274604
0.0095810368657112
0.0043587461113929
-0.0005285739898681
-0.0049559101462364
-0.0088635608553886
-0.0122539103031158
-0.0151829645037651
-0.0177473723888397
-0.020064577460289
-0.0222452953457832
-0.0243773236870765
-0.0265314504504203
-0.0287659242749214
-0.0311172828078269
-0.0335967093706131
-0.0361993983387947
-0.0389129742980003
-0.0417200028896331
-0.0446021780371665
-0.0475437305867672
-0.0505247376859188
-0.0535080470144748
-0.0564280785620212
-0.0591846667230129
-0.061647143214941
-0.0636716187000274
-0.0651312470436096
-0.0659544765949249
-0.0661545246839523
-0.0658366158604621
-0.0651832446455955
-0.0644224733114242
-0.063787966966629
-0.063481293618679
-0.0636438280344009
-0.0643410086631774
-0.0655607357621193
-0.0672257542610168
-0.0692122429609298
-0.0713672637939453
-0.0735233500599861
-0.0755080580711364
-0.0771551057696342
-0.0783283412456512
-0.0789517238736152
-0.079028271138668
-0.0786352083086967
-0.0778945535421371
-0.0769358500838279
-0.075867511332035
-0.0747621208429336
-0.0736545473337173
-0.0725475028157234
-0.0714185088872909
-0.0702248215675354
-0.0689060091972351
-0.0673866420984268
-0.065580815076828
-0.0634033381938934
-0.060789942741394
-0.0577145814895629
-0.0541925430297851
-0.0502718798816204
-0.0460212081670761
-0.0415173359215259
-0.0368311330676078
-0.0320148542523384
-0.0270982533693313
-0.022094041109085
-0.0170080661773681
-0.0118496604263782
-0.0066384207457304
-0.001404445618391
0.0038182567805051
0.0089938249439001
0.0140741374343633
0.0189927089959383
0.0236764922738075
0.0280646812170743
0.0321199856698513
0.0358282700181007
0.0391915775835514
0.0422210469841957
0.0449317768216133
0.0473404228687286
0.0494633242487907
0.0513124875724315
0.0528937466442585
0.0542146191000938
0.0552980750799179
0.0561846829950809
0.0569177940487861
0.0575289763510227
0.0580347776412963
0.0584346689283847
0.0586975589394569
0.0587428919970989
0.0584352985024452
0.057602122426033
0.0560690984129905
0.0537024475634098
0.0504431203007698
0.0463254675269126
0.0414803065359592
0.0361227467656135
0.0305254943668842
0.0249788872897624
0.0197449848055839
0.0150234661996364
0.010940920561552
0.0075577870011329
0.0048831030726432
0.0028931871056556
0.0015506520867347
0.0008168593049049
0.0006553754210472
0.0010297670960426
0.0018988773226737
0.0032122582197189
0.0049112141132354
0.0069402456283569
0.0092598646879196
0.0118411667644977
0.0146461278200149
0.0176202096045017
0.0207031555473804
0.023840457201004
0.0269849486649036
0.0300934389233589
0.033125877380371
0.0360477715730667
0.0388327986001968
0.0414647944271564
0.0439379662275314
0.0462530255317688
0.0484116934239864
0.050415001809597
0.0522636771202087
0.0539534837007522
0.0554719045758247
0.056806530803442
0.0579535588622093
0.0589124783873558
0.0596738532185554
0.0602142363786697
0.0605009347200393
0.0604992024600505
0.0601801425218582
0.0595316551625728
0.0585659071803092
0.0573164522647857
0.0558312162756919
0.0541706830263137
0.0524075590074062
0.0506125092506408
0.0488227382302284
0.047011561691761
0.0450726971030235
0.0428239777684211
0.040036417543888
0.036482997238636
0.0319894589483737
0.0264730714261531
0.0199635922908782
0.0126051045954227
0.0046384260058403
-0.0036325475666671
-0.0118830613791942
-0.0198083706200122
-0.0271519608795642
-0.0337223596870899
-0.0394044555723667
-0.0441560074687004
-0.0479884035885334
-0.0509479492902755
-0.0531039424240589
-0.0545396916568279
-0.0553448945283889
-0.0556094758212566
-0.0554180294275283
-0.0548431873321533
-0.0539398938417434
-0.0527447052299976
-0.0512790866196155
-0.049551423639059
-0.0475588552653789
-0.0452977232635021
-0.0427798256278038
-0.0400372594594955
-0.0371127054095268
-0.0340498499572277
-0.0308894515037536
-0.0276641249656677
-0.0243937261402606
-0.0210893638432025
-0.0177615247666835
-0.014423556625843
-0.0110919615253806
-0.0077865924686193
-0.0045309797860682
-0.0013506943359971
0.0017334455624222
0.0047084037214517
0.0075604012235999
0.0102673945948481
0.012800651602447
0.015128725208342
0.017222162336111
0.0190603509545326
0.020636610686779
0.0219587422907352
0.0230462327599525
0.0239252299070358
0.0246221497654914
0.0251582879573106
0.0255489237606525
0.0258093252778053
0.0259614754468202
0.0260265357792377
0.026000153273344
0.025828368961811
0.0253978744149208
0.0245427209883928
0.0230703875422477
0.0208040662109851
0.0176263488829135
0.0135097205638885
0.0085264220833778
0.0028383769094944
-0.0033256448805332
-0.0096996948122978
-0.0160134546458721
-0.0220205839723348
-0.0275161880999803
-0.0323482677340507
-0.0364288464188575
-0.0397351570427417
-0.0422920100390911
-0.0441466346383094
-0.0453520938754081
-0.0459606721997261
-0.0460209622979164
-0.045578546822071
-0.0446815229952335
-0.0433858782052993
-0.0417551845312118
-0.0398559980094432
-0.0377530753612518
-0.0355017334222793
-0.0331376306712627
-0.0306782536208629
-0.0281405728310346
-0.0255549047142267
-0.0229625068604946
-0.0204057022929191
-0.0179199166595935
-0.0155295953154563
-0.0132472738623619
-0.0110741863027215
-0.0090021789073944
-0.007017333060503
-0.0051035974174737
-0.0032465551048517
-0.0014376156032085
0.0003274846822023
0.0020565558224916
0.003760727122426
0.005439918488264
0.0070693865418434
0.0086018573492765
0.0099835768342018
0.0111710429191589
0.0121371280401945
0.012870006263256
0.0133737158030271
0.0136686917394399
0.0137866660952568
0.0137623939663171
0.0136281717568635
0.0134140476584434
0.013152427971363
0.012879155576229
0.0126233156770467
0.0123931989073753
0.0121726263314485
0.0119273588061332
0.011611545458436
0.0111666787415742
0.0105132907629013
0.0095447693020105
0.0081334561109542
0.0061525572091341
0.0035089347511529
0.0001735482364892
-0.0038026515394449
-0.0082902833819389
-0.0130979446694254
-0.0179972015321254
-0.0227527115494012
-0.027156850323081
-0.0310570895671844
-0.0343626551330089
-0.0370324105024337
-0.0390562042593956
-0.0404407195746898
-0.0412026196718215
-0.0413649231195449
-0.0409539490938186
-0.0400001183152198
-0.0385438948869705
-0.0366403609514236
-0.0343575589358806
-0.0317686423659324
-0.0289410166442394
-0.025932477787137
-0.0227981284260749
-0.0195955615490674
-0.0163801424205303
-0.0131958751007914
-0.0100688263773918
-0.0070060770958662
-0.0039998311549425
-0.0010350719094276
0.0019006738439202
0.0048093600198626
0.0076792500913143
0.010485965758562
0.0131986290216445
0.0157910194247961
0.0182518623769283
0.0205852836370468
0.0227998606860637
0.0248971674591302
0.0268684402108192
0.0286986846476793
0.0303742699325084
0.0318878963589668
0.0332395583391189
0.0344377793371677
