bvp
-0.0177973136305809
-0.0223399400711059
-0.02630066126585
-0.0295898485928773
-0.0321624726057052
-0.0340076424181461
-0.0351404473185539
-0.0355991646647453
-0.0354451015591621
-0.0347595177590847
-0.0336321778595447
-0.0321504063904285
-0.0304007045924663
-0.0284713916480541
-0.0264442767947912
-0.0243833363056182
-0.0223276708275079
-0.0202899854630231
-0.0182616617530584
-0.016221797093749
-0.0141446674242615
-0.0120032411068677
-0.0097722224891185
-0.0074347113259136
-0.0049896882846951
-0.0024517332203686
0.0001566563732922
0.0028062155470252
0.0054535279050469
0.0080398470163345
0.0105005661025643
0.0127773359417915
0.0148275485262274
0.0166304390877485
0.018188040703535
0.0195196494460105
0.0206559337675571
0.0216364376246929
0.0225062631070613
0.0233109220862388
0.0240891352295875
0.0248664021492004
0.025656446814537
0.0264622364193201
0.0272666811943054
0.0280271023511886
0.0286849439144134
0.0291815772652626
0.0294718891382217
0.0295346807688474
0.0293766371905803
0.0290271993726491
0.0285260304808616
0.0279037225991487
0.0271583702415227
0.0262382645159959
0.0250406377017498
0.0234309397637844
0.0212777890264987
0.0184859707951545
0.0150146484375
0.0108860954642295
0.0061906673945486
0.0010834923014044
-0.004232897888869
-0.0095388749614357
-0.0146292187273502
-0.01933478936553
-0.0235319137573242
-0.0271383058279752
-0.0301019810140132
-0.032395914196968
-0.0340200252830982
-0.0350008010864257
-0.0353831052780151
-0.0352247506380081
-0.0346003137528896
-0.033599629998207
-0.0323151089251041
-0.0308310817927122
-0.0292202588170766
-0.027540910989046
-0.0258311349898576
-0.0241040419787168
-0.0223497785627841
-0.0205428414046764
-0.0186499170958995
-0.016638396307826
-0.0144852697849273
-0.0121822701767086
-0.0097359288483858
-0.0071695647202432
-0.0045299353078007
-0.001886854879558
0.0006813453510403
0.0031065945513546
0.0053418669849634
0.0073633645661175
0.0091700851917266
0.0107822362333536
0.0122362924739718
0.0135768931359052
0.0148482611402869
0.0160864982753992
0.0173121150583028
0.0185285899788141
0.0197326242923736
0.0209209844470024
0.0220800880342721
0.023175161331892
0.0241559445858001
0.0249707996845245
0.0255800951272249
0.0259690023958683
0.0261532850563526
0.0261718910187482
0.0260726977139711
0.0258975252509117
0.0256660915911197
0.0253592822700738
0.0249069854617118
0.0241928976029157
0.0230804625898599
0.0214421786367893
0.0191787909716367
0.0162389334291219
0.0126422261819243
0.0084887091070413
0.0039479369297623
-0.0007645548321306
-0.0054162442684173
-0.0097883027046918
-0.0137035716325044
-0.0170419309288263
-0.0197393205016851
-0.0217798836529254
-0.0231877025216817
-0.0240148045122623
-0.0243266075849533
-0.0241968221962451
-0.0237132906913757
-0.0229774359613657
-0.0220910273492336
-0.0211407057940959
-0.0201862603425979
-0.0192556586116552
-0.0183482803404331
-0.0174418985843658
-0.0165009256452322
-0.0154857384040951
-0.0143603011965751
-0.0130965523421764
-0.0116778193041682
-0.0101001625880599
-0.0083686197176575
-0.0064968289807438
-0.0045163491740822
-0.0024821285624057
-0.0004639725666493
0.0014688302762806
0.0032624518498778
0.0048876856453716
0.0063394559547305
0.0076310569420456
0.008786498568952
0.0098311882466077
0.0107854632660746
0.0116635216400027
0.0124749345704913
0.0132285365834832
0.0139393145218491
0.0146284122020006
0.0153100453317165
0.0159789007157087
0.016608951613307
0.0171615090221166
0.0175981950014829
0.0178910922259092
0.0180260222405195
0.0180033911019563
0.0178377907723188
0.0175546389073133
0.0171853136271238
0.0167619194835424
0.0163120944052934
0.0158545542508363
0.0153905460610985
0.0148848388344049
0.0142449904233217
0.0133202979341149
0.0119302440434694
0.0099105397239327
0.0071577271446585
0.0036592362448573
-0.0004979036748409
-0.0051400153897702
-0.0100351758301258
-0.0149298626929521
-0.0195882562547922
-0.023823881521821
-0.0275112017989158
-0.0305769871920347
-0.0329837650060653
-0.0347201004624366
-0.0358029194176197
-0.0362807661294937
-0.0362278223037719
-0.0357336401939392
-0.0348940454423427
-0.0338009819388389
-0.0325320549309253
-0.0311453100293874
-0.0296799205243587
-0.0281579215079545
-0.0265836622565984
-0.0249443557113409
-0.0232158619910478
-0.0213700775057077
-0.0193794667720794
-0.0172235034406185
-0.0149000231176614
-0.0124332252889871
-0.009872056543827
-0.0072793262079358
-0.0047168936580419
-0.0022360691800713
0.0001258850097656
0.0023475131019949
0.0044231712818145
0.0063604437746107
0.0081750638782978
0.0098861344158649
0.0115155093371868
0.0130890067666769
0.0146341985091567
0.0161723271012306
0.0177062563598155
0.0192137509584426
0.0206546504050493
0.0219865776598453
0.023175910115242
0.0242007859051227
0.0250518918037414
0.0257316119968891
0.0262510553002357
0.0266275741159915
0.0268825590610504
0.0270386114716529
0.0271166786551475
0.0271359458565711
0.0271175578236579
0.0270815677940845
0.0270322114229202
0.0269495621323585
0.0267964731901884
0.0265272948890924
0.0260884910821914
0.0254109501838684
0.024403067305684
0.0229577384889125
0.0209726206958293
0.0183730833232402
0.0151329580694437
0.0112911239266395
0.0069568301551043
0.0023012054152786
-0.0024618881288915
-0.0071096960455179
-0.0114533137530088
-0.0153646878898143
-0.0187777001410722
-0.0216742102056741
-0.0240650735795497
-0.02597127109766
-0.0274107977747917
-0.0283975098282098
-0.0289491768926382
-0.0290935635566711
-0.028868505731225
-0.0283200796693563
-0.0275003686547279
-0.026460763067007
-0.0252423826605081
-0.0238768644630908
-0.0223986431956291
-0.0208501610904932
-0.0192734934389591
-0.017701469361782
-0.0161556303501129
-0.0146456621587276
-0.0131685342639684
-0.0117104761302471
-0.0102511905133724
-0.0087694749236106
-0.0072494549676775
-0.0056859832257032
-0.0040865587070584
-0.0024649929255247
-0.0008300868794322
0.000816042535007
0.0024647037498652
0.004089904949069
0.0056550959125161
0.0071281106211245
0.0084895491600036
0.0097343306988477
0.0108724767342209
0.0119262691587209
0.0129194036126136
0.01386658847332
0.0147727187722921
0.0156375598162412
0.0164605639874935
0.01724717579782
0.018012773245573
0.0187742412090301
0.0195339806377887
0.0202735718339681
0.0209583975374698
0.0215451046824455
0.0219888985157012
0.0222443137317895
0.0222566351294517
0.0219531059265136
0.0212447140365839
0.0200402811169624
0.0182667095214128
0.0158890448510646
0.0129253407940268
0.0094559025019407
0.0056278784759342
0.0016401009634137
-0.0023005898110568
-0.0060229115188121
-0.0094075985252857
-0.0123833119869232
-0.0149149717763066
-0.0169895105063915
-0.0186054147779941
-0.0197707340121269
-0.02050606533885
-0.0208466164767742
-0.0208413004875183
-0.0205493886023759
-0.0200351197272539
-0.0193566866219043
-0.0185514762997627
-0.0176340956240892
-0.0166126545518636
-0.0155052617192268
-0.0143432151526212
-0.0131633412092924
-0.0119969863444566
-0.0108617637306451
-0.0097591048106551
-0.0086758490651845
-0.0075856945477426
-0.006453679408878
-0.0052475263364613
-0.0039479304105043
-0.0025517106987535
-0.0010675126686692
0.0004956219345331
0.002133160829544
0.0038349027745425
0.0055760666728019
0.0073196226730942
0.0090238898992538
0.0106521854177117
0.0121813435107469
0.013603389263153
0.0149199869483709
0.0161356162279844
0.0172547679394483
0.0182821080088615
0.0192216150462627
0.0200747903436422
0.020842945203185
0.021531868726015
0.0221467670053243
0.0226788315922021
0.0231003575026989
0.0233720429241657
0.0234559793025255
0.0233306605368852
0.0229994617402553
0.0224858466535806
0.0218205973505973
0.021026199683547
0.0200975127518177
0.0189856421202421
0.0175981447100639
0.0158199109137058
0.0135493446141481
0.0107370326295495
0.0074054496362805
0.0036400696262717
-0.000431727617979
-0.0046590575948357
-0.0088852820917963
-0.0129664996638894
-0.0167843401432037
-0.0202502310276031
-0.0233041979372501
-0.0259110685437917
-0.0280571263283491
-0.029745552688837
-0.0309891458600759
-0.0318066626787185
-0.0322220511734485
-0.0322622433304786
-0.0319602265954017
-0.0313627012073993
-0.0305290147662162
-0.0295202732086181
-0.0283878948539495
-0.027163490653038
-0.0258522816002368
-0.0244370475411415
-0.0228903219103813
-0.0211840830743312
-0.0192946586757898
-0.0172088723629713
-0.0149299474433064
-0.0124772181734442
-0.009881604462862
-0.0071810097433626
-0.0044198976829648
-0.0016544149257242
0.001047319965437
0.0036164217162877
0.0059962878003716
0.0081473411992192
0.0100450590252876
0.0116792572662234
0.0130574852228164
0.0142055321484804
0.0151605028659105
0.0159639380872249
0.0166593044996261
0.0172876399010419
0.0178810879588127
0.0184615533798933
0.0190400183200836
0.0196078829467296
0.0201306212693452
0.0205564182251691
0.0208345148712396
0.020931264385581
0.0208360441029071
0.0205576736479997
0.020119784399867
0.0195584259927272
0.0189135801047086
0.0182100776582956
0.0174373891204595
0.0165397953242063
0.0154230836778879
0.0139764621853828
0.0120958629995584
0.0097001194953918
0.0067496141418814
0.003267970867455
-0.0006502727046608
-0.0048541645519435
-0.0091630425304174
-0.0133912311866879
-0.0173664540052413
-0.0209439862519502
-0.0240153558552265
-0.0265121646225452
-0.0284063182771205
-0.0297035295516252
-0.0304290708154439
-0.03061487339437
-0.0303026400506496
-0.0295594483613967
-0.0284827835857868
-0.0271863341331481
-0.0257780645042657
-0.0243415851145982
-0.0229254327714443
-0.0215411558747291
-0.0201696120202541
-0.0187727995216846
-0.0173064488917589
-0.0157317742705345
-0.0140255130827426
-0.0121829118579626
-0.0102118924260139
-0.0081253517419099
-0.0059416256844997
-0.0036944625899195
-0.0014381874352693
0.0007614940404891
0.0028425008058547
0.0047591160982847
0.006490240804851
0.0080385636538267
0.0094213364645838
0.010661837644875
0.0117872720584273
0.0128303235396742
0.0138268126174807
0.0148078482598066
0.015795849263668
0.0168071519583463
0.0178487226366996
0.0189058985561132
0.0199380069971084
0.0208913311362266
0.0217182766646146
0.0223886556923389
0.0228891000151634
0.023214466869831
0.0233553200960159
0.0232831817120313
0.0229368954896926
0.0222198069095611
0.0210188459604978
0.0192392915487289
0.0168375000357627
0.0138430818915367
0.0103610567748546
0.0065476018935441
0.0025753995869308
-0.0013923344668
-0.0052157789468765
-0.0087841674685478
-0.0120158372446894
-0.0148543147370219
-0.0172624699771404
-0.0192150194197893
-0.0206927638500928
-0.021685654297471
-0.0222021974623203
-0.022274786606431
-0.0219551920890808
-0.0213046632707119
-0.0203910712152719
-0.0192935019731521
-0.0180988609790802
-0.0168863032013177
-0.015712633728981
-0.0146063044667243
-0.0135655533522367
-0.0125612188130617
-0.011549181304872
-0.0104861529543995
-0.0093396203592419
-0.0080917030572891
-0.0067398082464933
-0.0052957469597458
-0.0037805829197168
-0.0022137481719255
-0.0006093587726354
0.0010132882744073
0.0026209903880953
0.0041701514273881
0.0056178690865635
0.0069351689890027
0.0081154722720384
0.0091732442378997
0.0101354029029607
0.0110311983153224
0.0118844881653785
0.0127092227339744
0.0135094281286001
0.0142852086573839
0.0150403622537851
0.015784727409482
0.0165279041975736
0.0172667037695646
0.0179774202406406
0.0186221171170473
0.0191636029630899
0.0195770151913166
0.019852478057146
0.019989164546132
0.0199813488870859
0.0198013838380575
0.0193884763866662
0.018648536875844
0.0174702778458595
0.015757530927658
0.0134636173024773
0.010612747631967
0.0072984439320862
0.0036588427610695
-0.0001511676236987
-0.0039751771837472
-0.0076643656939268
-0.0110873952507972
-0.0141374859958887
-0.0167333465069532
-0.0188140403479337
-0.0203334391117095
-0.0212626997381448
-0.0215963125228881
-0.0213528275489807
-0.0205735117197036
-0.0193195417523384
-0.0176629666239023
-0.0156810358166694
-0.013461866416037
-0.0111053856089711
-0.0087080700322985
-0.0063451426103711
-0.0040631527081131
-0.0018824748694896
0.0001944061368703
0.0021739937365055
0.0040663024410605
0.0058820648118853
0.007629687897861
0.0093099670484662
0.0109102502465248
0.0124056590721011
0.0137687791138887
0.01497408375144
0.0159911103546619
0.0167814102023839
0.0173083208501338
0.0175484102219343
0.017495609819889
0.0171630345284938
0.0165852811187505
0.0158164966851472
0.0149239990860223
0.0139803178608417
0.0130554754287004
0.0122128035873174
0.0115070641040802
0.0109830908477306
0.0106759946793317
0.0106056137010455
0.0107640996575355
0.0111114848405122
0.0115856640040874
0.0121193472295999
0.0126559743657708
0.0131577448919415
0.0136040290817618
0.0139871053397655
0.0143070155754685
0.0145583795383572
0.0147104300558567
0.0146940080448985
0.0144078191369771
0.0137448124587535
0.0126275243237614
0.0110333869233727
0.0089980801567435
0.0066036069765686
0.0039633745327591
0.0012072557583451
-0.0015346780419349
-0.0041480269283056
-0.0065486044622957
-0.0086925886571407
-0.0105733163654804
-0.0122031839564442
-0.0135931298136711
-0.0147438151761889
-0.0156507063657045
-0.0163106359541416
-0.0167219582945108
-0.0168901085853576
-0.0168423820286989
-0.0166318397969007
-0.0163222458213567
-0.0159688647836446
-0.0156052745878696
-0.0152389649301767
-0.0148579124361276
-0.0144406957551836
-0.0139627130702137
-0.01340196095407
-0.0127437934279441
-0.0119810439646244
-0.0111123053357005
-0.0101374313235282
-0.0090505816042423
-0.0078424643725156
-0.0065151946619153
-0.0050953272730112
-0.0036338409408926
-0.0021937079727649
-0.0008327038958668
0.0004075989127159
0.0015041679143905
0.0024511162191629
0.0032553188502788
0.0039304997771978
0.0044942665845155
0.0049672145396471
0.0053709112107753
0.005727095529437
0.0060592703521251
0.0063881650567054
0.0067187901586294
0.0070340409874916
0.0073033701628446
0.0074975173920392
0.0075979772955179
0.0075957626104354
0.0074793044477701
0.0072176847606897
0.0067493543028831
0.005982669070363
0.0048090759664773
0.0031259711831808
0.000864703208208
-0.0019814223051071
-0.0053397398442029
-0.0090658981353044
-0.012976192869246
-0.0168832652270793
-0.0206192024052143
-0.0240482576191425
-0.0270734056830406
-0.0296338647603988
-0.0316938571631908
-0.0332320407032966
-0.0342386253178119
-0.0347176790237426
-0.0346901603043079
-0.0341973677277565
-0.0333019830286502
-0.0320792160928249
-0.0305997990071773
-0.0289217494428157
-0.0270986165851354
-0.0251878909766674
-0.0232460126280784
-0.0213143564760684
-0.0194070152938365
-0.0175105519592762
-0.0155976768583059
-0.0136449299752712
-0.0116427447646856
-0.0095949210226535
-0.0075122476555407
-0.0054073808714747
-0.0032950141467154
-0.0011912991758435
0.0008947337628342
0.0029654975514858
0.0050219744443893
0.0070496080443263
0.0090190209448337
0.0108951516449451
0.0126472823321819
0.0142564065754413
0.0157174952328205
0.0170404314994812
0.018249936401844
0.0193790420889854
0.0204581711441278
0.0215064790099859
0.0225292071700096
0.0235241521149873
0.0244926922023296
0.0254395399242639
0.0263588316738605
0.0272279828786849
0.0280169863253831
0.0286954250186681
0.0292312763631343
0.0295913275331258
0.0297439638525247
0.0296589732170104
0.0293017700314521
0.0286221075803041
0.0275456439703702
0.0259801242500543
0.0238375980406999
0.021064206957817
0.0176653005182743
0.0137128513306379
0.0093319118022918
0.0046777562238276
-8.321646600961685e-05
-0.0047860606573522
-0.0092781148850917
-0.013430293649435
-0.0171459168195724
-0.0203624591231346
-0.0230424515902996
-0.025160826742649
-0.0267022736370563
-0.0276673901826143
-0.0280765686184167
-0.0279677733778953
-0.0273910406976938
-0.0264070443809032
-0.0250934977084398
-0.02354715205729
-0.0218698419630527
-0.0201480649411678
-0.0184412132948637
-0.0167799107730388
-0.0151672484353184
-0.0135801518335938
-0.0119778010994195
-0.0103191761299967
-0.0085775097832083
-0.0067447777837514
-0.0048320447094738
-0.0028652618639171
-0.0008731829002499
0.0011187950149178
0.0030801962129771
0.0049694180488586
0.0067419637925922
0.0083644120022654
0.0098229628056287
0.0111237317323684
0.0122870607301592
0.0133397672325372
0.0143096977844834
0.0152225028723478
0.016097966581583
0.0169462151825428
0.0177662074565887
0.0185508206486701
0.0192981883883476
0.0200127884745597
0.0206886716187
0.0212984718382358
0.0218021403998136
0.0221618376672267
0.0223539788275957
0.0223765186965465
0.0222464781254529
0.0219883322715759
0.0216180495917797
0.0211249459534883
0.0204578656703233
0.0195272080600261
0.0182249788194894
0.0164551082998514
0.0141645669937133
0.0113603193312883
0.0081047229468822
0.0045029786415398
0.0006928006187081
-0.0031683915294706
-0.0069211265072226
-0.0104222083464264
-0.0135571639984846
-0.0162438824772834
-0.0184313748031854
-0.0200971215963363
-0.021244004368782
-0.0218968801200389
-0.0220978334546089
-0.0219001919031143
-0.021363403648138
-0.0205547586083412
-0.0195566080510616
-0.0184624921530485
-0.0173583328723907
-0.0163049791008234
-0.015329647809267
-0.0144253391772508
-0.0135603938251733
-0.0126930549740791
-0.0117823360487818
-0.0107952123507857
-0.0097115458920598
-0.0085251638665795
-0.0072418833151459
-0.0058746952563524
-0.0044360635802149
-0.0029373888392001
-0.0014012900646775
0.0001301824813708
0.0016034907894209
0.0029671888332813
0.0041816039010882
0.0052258581854403
0.0061011491343379
0.0068270158953964
0.0074335904791951
0.007955240085721
0.0084269130602478
0.0088809737935662
0.009344071149826
0.0098356064409017
0.0103669920936226
0.0109387636184692
0.0115348882973194
0.0121203735470771
0.0126493060961365
0.0130780972540378
0.0133691383525729
0.0134815331548452
0.0133602526038885
0.0129326283931732
0.0121144875884056
0.0108254626393318
0.009009875357151
0.0066574430093169
0.0038171336054801
0.0006004567258059
-0.0028250790201127
-0.0062584420666098
-0.0095072872936725
-0.0124264154583215
-0.0149283371865749
-0.016973728314042
-0.018557783216238
-0.0196977723389863
-0.0204241443425416
-0.0207737684249877
-0.0207843706011772
-0.0204946566373109
-0.019947201013565
-0.0191859044134616
-0.0182509403675794
-0.0171751901507377
-0.0159805528819561
-0.014681002125144
-0.0132943633943796
-0.0118481647223234
-0.0103736743330955
-0.0088976062834262
-0.0074370778165757
-0.0059976438060402
-0.0045752860605716
-0.0031611733138561
-0.0017467960715293
-0.0003303652629256
0.0010800482705235
0.0024729904253035
0.0038415424060076
0.005184085574001
0.0065037668682634
0.0078063234686851
0.0090897111222147
0.0103350766003131
0.0115088280290365
0.0125721497461199
0.0134942838922142
0.0142628047615289
0.0148832630366086
0.0153734618797898
0.0157592594623565
0.0160691458731889
0.0163276921957731
0.0165541488677263
0.0167652834206819
0.0169776827096939
0.0172086339443922
0.0174686815589666
0.0177459232509136
0.0180012211203575
0.018180688843131
0.0182305183261632
0.0181079525500535
0.0177924614399671
0.0172904692590236
0.0166222117841243
0.0157950930297374
0.0147810829803347
0.0135127417743206
0.0119009669870138
0.0098652597516775
0.0073655531741678
0.0044285967014729
0.0011521293781697
-0.0023226011544466
-0.005846912972629
-0.0092866383492946
-0.0125312181189656
-0.0154959075152874
-0.018119279295206
-0.020357709378004
-0.0221804529428482
-0.023568145930767
-0.0245132986456155
-0.0250209961086511
-0.0251096673309803
-0.0248117856681346
-0.0241720099002122
-0.0232423581182956
-0.0220808573067188
-0.0207550711929798
-0.0193392187356948
-0.0179010014981031
-0.0164894592016935
-0.0151293948292732
-0.0138173969462513
-0.0125218909233808
-0.0111933546140789
-0.0097787855193018
-0.0082341665402054
-0.0065365172922611
-0.0046919686719775
-0.0027342033572494
-0.0007140808738768
0.00131466682069
0.0033032912760972
0.0052039120346307
0.0069641591981053
0.0085306242108345
0.0098580531775951
0.0109163671731948
0.011691702529788
0.0121858241036534
0.0124195665121078
0.0124361123889684
0.0122957611456513
0.0120646841824054
0.0118049727752804
0.0115661956369876
0.011379912495613
0.0112591870129108
0.0111957546323537
0.0111536011099815
0.0110723040997982
0.0108841806650161
0.010533133521676
0.0099848844110965
0.0092304497957229
0.0082887597382068
0.0072053354233503
0.0060443319380283
0.0048801498487591
0.0037881697062402
0.0028283691499382
0.0020261055324226
0.0013614958152174
0.0007722363225184
0.000161923628184
-0.0005909021710976
-0.0016127381240949
-0.003002677578479
-0.0048029525205492
-0.0069852005690336
-0.0094535574316978
-0.0120575949549674
-0.0146104013547301
-0.0169093292206525
-0.0187565945088863
-0.0199799071997404
-0.0204502958804368
-0.0200932305306196
-0.0188914574682712
-0.0168777704238891
-0.0141277015209198
-0.0107633788138628
-0.0069574285298585
-0.0029212073422968
0.0011203703470528
0.0049558347091078
0.0084092076867818
0.0113550359383225
0.0137238167226314
0.0154977515339851
0.0167022440582513
0.0173985008150339
0.0176757369190454
0.0176378656178712
0.0173896681517362
0.0170303247869014
0.0166455283761024
0.0162913557142019
0.0159831028431653
0.0156991332769393
0.0153955155983567
0.0150232771411538
0.0145403547212481
0.0139177525416016
0.0131435170769691
0.0122231729328632
0.0111778629943728
0.0100420620292425
0.0088563784956932
0.0076581872999668
0.0064817601814866
0.0053651900961995
0.0043472764082252
0.0034523266367614
0.0026795645244419
0.0020081922411918
0.0014127772301435
0.0008763135410845
0.0003925436176359
-4.209112375974655e-05
-0.0004415307193994
-0.0008413572795689
-0.0013022162020206
-0.0019045751541852
-0.0027384087443351
-0.0038891052827239
-0.0054157106205821
-0.0073249759152531
-0.009561950340867
-0.0120272170752286
-0.0146016245707869
-0.0171630699187517
-0.0195975452661514
-0.021805565804243
-0.0237044245004653
-0.0252303183078765
-0.0263414084911346
-0.0270190294831991
-0.0272654853761196
-0.0271004140377044
-0.0265585035085678
-0.0256874579936265
-0.0245402045547962
-0.0231647547334432
-0.0216073542833328
-0.0199243649840354
-0.0181801617145538
-0.0164311956614255
-0.0147140445187687
-0.0130442008376121
-0.0114216115325689
-0.0098377503454685
-0.0082811191678047
-0.0067407796159386
-0.0052081434987485
-0.0036766096018254
-0.0021413364447653
-0.0006026150658726
0.000932749826461
0.0024589924141764
0.0039755995385348
0.0054755071178078
0.0069318022578954
0.0083015179261565
0.0095439217984676
0.0106381131336092
0.0115858949720859
0.0123966438695788
0.0130645055323839
0.013552077114582
0.0137894637882709
0.0136913349851965
0.0131873544305562
0.0122554907575249
0.0109485005959868
0.0094040967524051
0.0078247878700494
0.0064283395186066
0.0053970580920577
0.0048485239967703
0.0048258821479976
0.0052985874935984
0.0061705210246145
0.0072967703454196
0.0085071502253413
0.0096304602921009
0.0105170682072639
0.0110614039003849
0.0112221632152795
0.0110327051952481
0.0105967847630381
0.0100736515596508
0.0096517670899629
0.0095048686489462
0.0097455037757754
0.0104015860706567
0.0114192413166165
0.0126815037801861
0.0140372589230537
0.0153372138738632
0.0164682175964117
0.0173711292445659
0.0180367156863212
0.0184894185513257
0.0187673512846231
0.0189030095934867
0.0189127866178751
0.0187949165701866
0.0185228530317544
0.0180354043841362
0.0172448381781578
0.0160666052252054
0.0144497826695442
0.0123960953205823
0.0099678821861743
0.0072839981876313
0.0045079225674271
0.0018339054659008
-0.0005315840244293
-0.0023943507112562
-0.0035987785086035
-0.0040531586855649
-0.0037451107054948
-0.0027368711307644
-0.0011523533612489
0.0008286852389574
0.0029796715825796
0.0050498694181442
0.0067931041121482
0.0079966057091951
0.0085071679204702
0.0082484744489192
0.0072271842509508
0.0055275633931159
0.0032940544188022
0.0007055848836898
-0.0020507704466581
-0.0048016551882028
-0.0074028801172971
-0.0097462562844157
-0.0117628527805209
-0.0134297767654061
-0.0147714121267199
-0.0158451348543167
-0.0167194735258817
-0.0174556281417608
-0.0180973578244447
-0.0186712313443422
-0.0191932581365108
-0.0196793060749769
-0.0201592184603214
-0.0206863675266504
-0.0213336739689111
-0.0221790242940187
-0.0232853330671787
-0.0246770624071359
-0.0263268761336803
-0.0281658135354518
-0.0301050711423158
-0.0320521555840969
-0.0339189805090427
-0.0356248840689659
-0.0370977073907852
-0.0382745563983917
-0.0391015410423278
-0.0395351201295852
-0.0395467057824134
-0.0391254276037216
-0.0382781699299812
-0.0370306000113487
-0.0354243926703929
-0.0335075668990612
-0.0313313528895378
-0.0289597697556018
-0.0264719426631927
-0.0239486321806907
-0.0214581657201051
-0.0190466716885566
-0.0167307257652282
-0.014498327858746
-0.0123196924105286
-0.0101606836542487
-0.0079914378002285
-0.0057885441929101
-0.0035353004932403
-0.0012242961674928
0.0011423509567975
0.0035594534128904
0.0060202656313776
0.0085054645314812
0.0109752332791686
0.0133757507428526
0.0156527906656265
0.017765013501048
0.0196910016238689
0.0214266441762447
0.0229800175875425
0.0243683848530054
0.025614146143198
0.0267410464584827
0.0277714226394891
0.028722183778882
0.0296055804938077
0.030436422675848
0.0312312021851539
0.0319941230118274
0.0327065996825695
0.0333319753408432
0.0338299237191677
0.0341702923178672
0.0343402028083801
0.0343427136540412
0.0341860428452491
0.0338640995323658
0.0333390235900878
0.032539676874876
0.0313778333365917
0.0297724362462759
0.0276746526360511
0.0250882431864738
0.022073246538639
0.0187311936169862
0.0151885589584708
0.0115846060216426
0.0080565148964524
0.0047250045463442
0.0016874615103006
-0.00098358374089
-0.0032408703118562
-0.0050614504143595
-0.0064437426626682
-0.0074046393856406
-0.0079786079004406
-0.0082171317189931
-0.008181856945157
-0.0079306690022349
-0.0075126197189092
-0.0069775264710187
-0.0063801780343055
-0.0057698125019669
-0.0051783816888928
-0.0046169562265276
-0.0040782857686281
-0.0035424632951617
-0.0029847742989659
-0.0023831324651837
-0.0017228834331035
-0.0009991796687245
-0.0002165483310818
0.0006136279553174
0.0014775060117244
0.0023674434050917
0.0032859309576451
0.0042322501540184
0.005186824593693
0.0061130207031965
0.0069685173220932
0.0077148973941802
0.00832409132272
0.0087815467268228
0.0090894186869263
0.0092681450769305
0.0093501918017864
0.0093691796064376
0.0093513624742627
0.0093136811628937
0.0092708896845579
0.0092445164918899
0.0092576397582888
0.009316592477262
0.0094025637954473
0.0094807120040059
0.0095127932727336
0.0094647035002708
0.0093073919415473
0.0090083517134189
0.0085177002474665
0.0077621671371161
0.0066552171483635
0.0051199989393353
0.0031147231347858
0.0006483420729637
-0.0022147195413708
-0.0053553460165858
-0.0086163124069571
-0.011838799342513
-0.0148922838270664
-0.0176812559366226
-0.0201399307698011
-0.0222243703901767
-0.0239060129970312
-0.0251704417169094
-0.0260191746056079
-0.0264700651168823
-0.0265555940568447
-0.0263189952820539
-0.0258083082735538
-0.0250713285058736
-0.0241493266075849
-0.0230684634298086
-0.0218421835452318
-0.0204884465783834
-0.0190418288111686
-0.0175481904298067
-0.016051834449172
-0.0145858861505985
-0.0131682539358735
-0.0118036810308694
-0.0104895355179905
-0.0092212250456213
-0.0079956986010074
-0.0068127941340208
-0.0056746960617601
-0.0045850272290408
-0.0035447413101792
-0.0025420733727514
-0.0015505112241953
-0.0005444609560072
0.0004853208083659
0.0015308412257581
0.0025737434625625
0.0035935023333877
0.0045749130658805
0.0055110896937549
0.0064039672724902
0.0072650597430765
0.0081114349886775
0.00895706564188
0.0098069244995713
0.0106570441275835
0.011499504558742
0.0123243723064661
0.0131048206239938
0.0137710040435194
0.0142027754336595
0.0142534282058477
0.0137857878580689
0.0127054620534181
0.0109856408089399
0.0086765810847282
0.0058981920592486
0.0028203402180224
-0.0003627629484981
-0.0034586952533572
-0.0062997634522616
-0.0087578818202018
-0.0107468804344534
-0.0122139323502779
-0.0131341302767395
-0.0135175660252571
-0.0134140644222497
-0.0129050435498356
-0.0120920892804861
-0.0110843088477849
-0.0099817281588912
-0.0088630001991987
-0.0077799521386623
-0.0067545063793659
-0.0057810191065073
-0.004835395142436
-0.0038854563608765
-0.0028995238244533
-0.0018506608903408
-0.0007142070680856
0.00053271651268
0.0019003329798579
0.0033735972829163
0.0049121640622615
0.006460640579462
0.0079599665477871
0.0093594472855329
0.0106287626549601
0.0117617873474955
0.0127702895551919
0.0136748375371098
0.0144973006099462
0.0152547042816877
0.0159558299928903
0.0166045818477869
0.0172092281281948
0.0177836492657661
0.0183326229453086
0.0188390202820301
0.01926901191473
0.0195870436728
0.0197688490152359
0.0198072623461484
0.0197033621370792
0.0194453317672014
0.0189925227314233
0.0182755757123231
0.0172089152038097
0.015710836276412
0.0137280765920877
0.0112587362527847
0.0083644622936844
0.0051616462878882
0.0017949624452739
-0.0015872721560299
-0.0048483456484973
-0.0078738760203123
-0.0105744767934083
-0.012880397029221
-0.0147401960566639
-0.0161259546875953
-0.0170364025980234
-0.0174965970218181
-0.0175564736127853
-0.0172852855175733
-0.0167605355381965
-0.0160540528595447
-0.0152187403291463
-0.0142848212271928
-0.0132719185203313
-0.0122053045779466
-0.0111182946711778
-0.0100400410592556
-0.0089851301163434
-0.0079554133117198
-0.006945592816919
-0.0059434478171169
-0.0049308519810438
-0.003891221480444
-0.0028180377557873
-0.0017182740848511
-0.0006087746005505
0.0004929520655423
0.0015796830412
0.0026567438617348
0.0037282337434589
0.0047827600501477
0.0057948529720306
0.0067343590781092
0.0075736595317721
0.0082929972559213
0.0088846907019615
0.0093551138415932
0.0097236568108201
0.0100165316835045
0.0102555714547634
0.0104509349912405
0.010604640468955
0.0107202157378196
0.0108114723116159
0.0109014958143234
0.0110077410936355
0.0111279059201478
0.0112376157194376
0.0112907364964485
0.0112168071791529
0.0109224561601877
0.0102994348853826
0.0092391399666666
0.0076562194153666
0.0055149504914879
0.0028462689369916
-0.0002507343888282
-0.0036227591335773
-0.0070833121426403
-0.0104329120367765
-0.0134854950010776
-0.0161017850041389
-0.0182082280516624
-0.0197906754910945
-0.020875945687294
-0.0215143784880638
-0.0217675063759088
-0.0217009708285331
-0.0213814117014408
-0.0208738949149847
-0.0202369783073663
-0.0195167008787393
-0.0187423229217529
-0.0179267115890979
-0.0170687325298786
-0.0161519572138786
-0.0151480687782168
-0.0140329152345657
-0.012801862321794
-0.011471651494503
-0.010072473436594
-0.008638753555715
-0.007202573120594
-0.0057893907651305
-0.0044163721613585
-0.0030936212278902
-0.0018248447449877
-0.0006058958824723
0.000573746394366
0.0017253800760954
0.0028593901079148
0.0039882031269371
0.00512082176283
0.0062475646845996
0.0073352390900254
0.0083410618826746
0.009228378534317
0.0099717956036329
0.0105581581592559
0.0109903365373611
0.0112888757139444
0.0114863915368914
0.0116195576265454
0.0117232464253902
0.0118254050612449
0.0119417048990726
0.0120730772614479
0.0122062638401985
0.0123052112758159
0.0122920386493206
0.0120437294244766
0.0114185288548469
0.0102955475449562
0.008607780560851
0.0063588069751858
0.0036248210817575
0.0005478099919855
-0.0026831778232008
-0.0058638537302613
-0.008806767873466
-0.0113625852391123
-0.0134296994656324
-0.0149520058184862
-0.0159094519913196
-0.0163149014115333
-0.0162194278091192
-0.0157113559544086
-0.0149035695940256
-0.0139156356453895
-0.0128550864756107
-0.0118039529770612
-0.0108155570924282
-0.0099165048450231
-0.0091080088168382
-0.0083681782707571
-0.0076573579572141
-0.006926130503416
-0.0061258943751454
-0.0052168127149343
-0.0041679930873215
-0.0029607613105326
-0.0016027418896555
-0.0001355232670903
0.0013767227064818
0.0028661703690886
0.0042752032168209
0.0055627287365496
0.0067050512880086
0.0076948991045355
0.0085396226495504
0.0092577692121267
0.0098744556307792
0.0104169938713312
0.0109114265069365
0.0113812685012817
0.0118510378524661
0.0123460702598094
0.0128785232082009
0.0134336920455098
0.0139734353870153
0.0144496979191899
0.0148167703300714
0.0150415729731321
0.0151104945689439
0.0150279765948653
0.0148106664419174
0.0144844911992549
0.0140822734683752
0.0136373685672879
0.0131738390773534
0.0126956589519977
0.0121792778372764
0.0115684755146503
0.0107707725837826
0.0096689686179161
0.0081529915332794
0.0061552608385682
0.0036738556809723
0.0007769712246954
-0.0024104102049022
-0.0057265618816018
-0.008992962539196
-0.0120378667488694
-0.0147196557372808
-0.0169403254985809
-0.0186481196433305
-0.0198295302689075
-0.0204939059913158
-0.020668352022767
-0.0204079989343881
-0.0197993945330381
-0.0189460851252079
-0.0179494712501764
-0.0168962739408016
-0.0158522427082061
-0.0148576907813549
-0.0139253986999392
-0.0130444355309009
-0.0121880108490586
-0.0113208489492535
-0.0104064587503671
-0.0094152223318815
-0.0083263693377375
-0.0071208928711712
-0.005781315267086
-0.0043073962442576
-0.0027272056322544
-0.0010882497299462
0.0005608645733445
0.0021904134191572
0.0038077489007264
0.0054617985151708
0.0072285030037164
0.0091805988922715
0.011351266875863
0.0137113761156797
0.0161712821573019
0.0185996666550636
0.0208495780825614
0.0227841772139072
0.0242923554033041
0.0252934042364358
0.0257433094084262
0.0256462898105382
0.0250578988343477
0.0240712109953165
0.022795895114541
0.0213427226990461
0.0198142435401678
0.0182970855385065
0.0168535746634006
0.0155155342072248
0.0142856147140264
0.0131434071809053
0.0120528070256114
0.0109698306769132
0.0098386080935597
0.0085730692371726
0.0070499423891305
0.0051287384703755
0.0026857247576117
-0.0003536939620971
-0.0039891460910439
-0.0081326588988304
-0.0126189244911074
-0.0172336790710687
-0.0217456817626953
-0.0259367432445287
-0.0296295899897813
-0.0327070727944374
-0.0351117588579654
-0.0368283726274967
-0.0378713272511959
-0.0382880307734012
-0.038160890340805
-0.0375938266515731
-0.036690916866064
-0.035540547221899
-0.0342080481350421
-0.0327345840632915
-0.0311418771743774
-0.0294397603720426
-0.0276316087692976
-0.0257165562361478
-0.0236919801682233
-0.0215572416782379
-0.0193127430975437
-0.016954893246293
-0.0144810397177934
-0.0119053842499852
-0.0092671001330018
-0.006623457185924
-0.004036758095026
-0.0015621446073055
0.0007609846070408
0.0029133129864931
0.0048947557806968
0.0067188702523708
0.0084074717015028
0.0099875386804342
0.0114872064441442
0.0129302004352211
0.0143337743356823
0.0157120302319526
0.0170743037015199
0.0184149406850337
0.0197084229439497
0.0209152474999427
0.0219912771135568
0.0228986758738756
0.0236159302294254
0.024140490218997
0.0244861021637916
0.0246805548667907
0.0247608944773674
0.0247645303606987
0.0247223414480686
0.0246547684073448
0.0245706234127283
0.0244731344282627
0.0243632942438125
0.0242232289165258
0.0239912290126085
0.0235561765730381
0.0227756649255752
0.0215067565441131
0.0196435786783695
0.0171520709991455
0.0140868257731199
0.0105862170457839
0.0068516805768013
0.0031148586422204
-0.0004007462412118
-0.0035098835360258
-0.0060776779428124
-0.0080186957493424
-0.0092991851270198
-0.0099450061097741
-0.0100380480289459
-0.0096959993243217
-0.0090483743697404
-0.0082177072763443
-0.0073079457506537
-0.0064000142738223
-0.0055512278340756
-0.0047954209148883
-0.0041446192190051
-0.0035929204896092
-0.0031202596146613
-0.0026951506733894
-0.0022771584335714
-0.0018200078047811
-0.0012829382903873
-0.0006501071620732
6.21420331299305e-05
0.0008166425395756
0.0015691799344494
0.0022760736756026
0.0028991382569074
0.0034117214381694
0.0038032296579331
0.0040783346630632
0.0042527792975306
0.0043485951609909
0.0043900702148675
0.0044014267623424
0.004407771397382
0.0044379658065736
0.0045188316144049
0.0046597649343311
0.004846116527915
0.0050473907031118
0.005229290574789
0.0053635984659194
0.0054327216930687
0.0054287128150463
0.0053520989604294
0.0052115591242909
0.00502185896039
0.004799042828381
0.0045556295663118
0.0042993579991161
0.0040337000973522
0.0037539284676313
0.0034312400966882
0.002992920577526
0.0023238752037286
0.0012965118512511
-0.0001911418512463
-0.0021856520324945
-0.0046598981134593
-0.0075108557939529
-0.010575745254755
-0.0136604709550738
-0.0165727399289608
-0.019149012863636
-0.0212690792977809
-0.0228617750108242
-0.0238983388990163
-0.0243744924664497
-0.0243046544492244
-0.0237357728183269
-0.0227542445063591
-0.0214740242809057
-0.020019806921482
-0.0185119826346635
-0.0170527175068855
-0.015715030953288
-0.0145364245399832
-0.013519013300538
-0.012635744176805
-0.0118386410176754
-0.0110664507374167
-0.0102539686486125
-0.0093439640477299
-0.0082955779507756
-0.0070904097519814
-0.0057411347515881
-0.0042927488684654
-0.0028108581900596
-0.0013671156484633
-2.872338518500328e-05
0.0011479336535558
0.0021206871606409
0.0028632548637688
0.0033664763905107
0.0036404633428901
0.003716659033671
0.0036449148319661
0.0034833059180527
0.0032896508928388
0.0031227739527821
0.00304213212803
0.0030944712925702
0.0033000656403601
0.0036521332804113
0.0041250474750995
0.0046847313642501
0.0052979821339249
0.0059351762756705
0.0065674968063831
0.0071685588918626
0.0077221780084073
0.0082257706671953
0.008685166016221
0.0091089503839612
0.0095079597085714
0.0098958294838666
0.0102758761495351
0.0106091145426034
0.0107923559844493
0.01067397557199
0.010097081772983
0.0089436285197734
0.0071627777069807
0.0047815120778977
0.0019019220490008
-0.0013139988295733
-0.0046700411476194
-0.0079627521336078
-0.0110040428116917
-0.0136401243507862
-0.0157616566866636
-0.0173032768070697
-0.0182446725666522
-0.0186153575778007
-0.0184890795499086
-0.0179662033915519
-0.0171554796397686
