bvp
-0.0178550295531749
-0.0201085601001977
-0.0214864872395992
-0.0219020806252956
-0.0213468968868255
-0.0198932811617851
-0.0176821053028106
-0.0149045120924711
-0.0117887714877724
-0.0085878521203994
-0.0055548888631165
-0.00290839956142
-0.000805074814707
0.000670944340527
0.0015084838960319
0.0017609661445021
0.0015272819437086
0.0009337174706161
0.0001248477492481
-0.0007481450447812
-0.0015442899893969
-0.002146131824702
-0.0024725452531129
-0.0024902576114982
-0.0022139027714729
-0.0016964303795248
-0.001016805646941
-0.0002631363458931
0.0004866637755185
0.0011768948752433
0.0017770418198779
0.0022796122357249
0.0026953439228236
0.0030487857293337
0.003371168160811
0.0036882078275084
0.0040094596333801
0.0043194438330829
0.0045664142817258
0.0046544065698981
0.0044440566562116
0.0037639117799699
0.002434663940221
0.0002994838869199
-0.0027470928616821
-0.0067300330847501
-0.0115712434053421
-0.0170870684087276
-0.0230088792741298
-0.0290168039500713
-0.03477269038558
-0.039951603859663
-0.0442739613354206
-0.0475293137133121
-0.0495891571044921
-0.050411432981491
-0.0500372424721717
-0.0485860891640186
-0.0462511703372001
-0.0432820469141006
-0.0399500131607055
-0.0365112349390983
-0.0331769660115242
-0.0300881098955869
-0.0272976867854595
-0.0247660595923662
-0.0223658327013254
-0.0198965668678283
-0.0171186923980712
-0.0138056315481662
-0.0097927562892436
-0.0050040818750858
0.0005415119230747
0.0067355372011661
0.0133958626538515
0.0202948227524757
0.0271919872611761
0.0338605120778083
0.0401049256324768
0.045773047953844
0.0507613308727741
0.055013258010149
0.0585137754678726
0.0612834617495536
0.0633721128106117
0.064847745001316
0.0657794773578643
0.066220499575138
0.0661976411938667
0.0657074823975563
0.0647219941020011
0.0632047727704048
0.0611297413706779
0.0584994181990623
0.0553643479943275
0.0518379732966423
0.0480990186333656
0.0443761348724365
0.0409177914261817
0.0379599183797836
0.0356971696019172
0.0342549942433834
0.0336672514677047
0.0338692888617515
0.0347079336643219
0.0359612703323364
0.0373650267720222
0.0386454686522483
0.0395489335060119
0.0398611240088939
0.0394229292869567
0.0381470136344432
0.0360280126333236
0.0331397838890552
0.0296236742287874
0.0256692729890346
0.0214841458946466
0.0172623917460441
0.0131651032716035
0.0093116573989391
0.0057772770524024
0.0025954637676477
-0.0002411529421806
-0.0027869287878274
-0.0051459018141031
-0.0074554234743118
-0.0098536517471075
-0.0124451909214258
-0.015268936753273
-0.01826998218894
-0.0212902221828699
-0.0240908917039632
-0.0264039617031812
-0.028002630919218
-0.0287748500704765
-0.0287718176841735
-0.0282164588570594
-0.0274791624397039
-0.027023933827877
-0.0273274276405572
-0.0287927128374576
-0.0316806137561798
-0.0360644795000553
-0.0418113134801387
-0.0485928691923618
-0.0559220612049102
-0.0632051602005958
-0.0698035806417465
-0.0751056522130966
-0.0786038339138031
-0.0799586623907089
-0.0790316462516784
-0.0758837461471557
-0.0707484781742096
-0.0639954507350921
-0.0560901835560798
-0.0475463047623634
-0.0388758331537246
-0.0305443964898586
-0.0229354035109281
-0.0163318272680044
-0.0109135173261165
-0.0067574493587017
-0.0038376245647668
-0.0020300559699535
-0.0011260397732257
-0.0008545871824026
-0.0009153522551059
-0.0010188836604356
-0.0009225625544786
-0.0004536695778369
0.0004773363471031
0.0018723625689744
0.0036543942987918
0.0056835860013961
0.0077744424343109
0.0097210444509983
0.011333130300045
0.0124706607311964
0.0130613334476947
0.0130941960960626
0.0125942155718803
0.0115905180573463
0.0100903566926717
0.0080666616559028
0.005466179922223
0.002238305285573
-0.0016304394230246
-0.0060908403247594
-0.0110158240422606
-0.0161981731653213
-0.0213667396456003
-0.0262177251279354
-0.0304480716586112
-0.0337793678045272
-0.0359766483306884
-0.036870177835226
-0.0363721176981925
-0.0344846174120903
-0.0313059948384761
-0.0270301289856433
-0.0219330303370952
-0.0163452550768852
-0.0106136370450258
-0.0050670006312429
9.411945939064026e-06
0.0043972991406917
0.0079618170857429
0.0106559377163648
0.0125192543491721
0.013672862201929
0.0143003594130277
0.0146141219884157
0.0148207433521747
0.0150955263525247
0.0155661087483167
0.01630549877882
0.0173320621252059
0.0186130665242671
0.020077358931303
0.0216354094445705
0.0231939200311899
0.0246629938483238
0.025960873812437
0.0270165037363767
0.0277716480195522
0.0281848423182964
0.0282298270612955
0.0278777014464139
0.0270711630582809
0.0257207192480564
0.0237333066761493
0.0210457425564527
0.0176450125873088
0.0135854706168174
0.0090057421475648
0.0041349790990352
-0.0007205922156572
-0.0052141388878226
-0.0090092858299613
-0.0118256527930498
-0.0134640065953135
-0.0138172945007681
-0.012877732515335
-0.0107361702248454
-0.0075738113373517
-0.003651674836874
0.0007101781666278
0.0051710307598114
0.0094142844900488
0.0131809767335653
0.0162864904850721
0.0186275988817214
0.0201825685799121
0.0210004728287458
0.0211853832006454
0.0208855215460062
0.0202838722616434
0.0195785164833068
0.0189520418643951
0.0185446999967098
0.0184432752430439
0.0186805371195077
0.0192375257611274
0.0200507659465074
0.0210256613790988
0.0220522694289684
0.0230211280286312
0.0238362643867731
0.0244212951511144
0.0247150510549545
0.0246548615396022
0.0241582505404949
0.023117309436202
0.0214079171419143
0.0189134199172258
0.0155574977397918
0.0113360192626714
0.0063413740135729
0.000766557175666
-0.0051164142787456
-0.0109869064763188
-0.0165020674467086
-0.0213253758847713
-0.0251622684299945
-0.0277910269796848
-0.029082192108035
-0.02901516482234
-0.0276878997683525
-0.0253083817660808
-0.0221682861447334
-0.0186034496873617
-0.0149506395682692
-0.0115099865943193
-0.0085176117718219
-0.0061319041997194
-0.0044291941449046
-0.0034038084559142
-0.0029790643602609
-0.0030323974788188
-0.0034201813396066
-0.0039894161745905
-0.0045860139653086
-0.0050715091638267
-0.0053398376330733
-0.00532310269773
-0.004987817723304
-0.0043297135271131
-0.0033727451227605
-0.0021688621491193
-0.0007944512180984
0.0006547956727445
0.0020704232156276
0.0033376272767782
0.0043346099555492
0.0049242246896028
0.0049521625041961
0.004264255054295
0.0027374513447284
0.0003100661560893
-0.0029995110817253
-0.0070812501944601
-0.0117231030017137
-0.0166188888251781
-0.0214046481996774
-0.0257049035280942
-0.0291756764054298
-0.0315440185368061
-0.0326366573572158
-0.0323942154645919
-0.0308752823621034
-0.0282464809715747
-0.0247574504464864
-0.020711101591587
-0.0164315085858106
-0.0122276665642857
-0.0083629377186298
-0.0050362045876681
-0.0023698825389146
-0.0004033998120576
0.0009035269031301
0.0016544103855267
0.0019907760433852
0.0020705042406916
0.0020538936369121
0.0020898021757602
0.0023025756236165
0.0027838281821459
0.0035831723362207
0.0047019869089126
0.0060996976681053
0.0077049257233738
0.00942312926054
0.011146480217576
0.0127677368000149
0.014185007661581
0.0152926500886678
0.015972800552845
0.0160982999950647
0.0155457351356744
0.0142156891524791
0.0120580028742551
0.0090970769524574
0.0054484084248542
0.0013181290123611
-0.0030152164399623
-0.0072303912602365
-0.0109987016767263
-0.0140212513506412
-0.0160613171756267
-0.0169656537473201
-0.016677726060152
-0.0152442948892712
-0.0128088742494583
-0.0095900762826204
-0.0058523202314972
-0.0018795384094119
0.0020428821444511
0.0056439395993947
0.0086922086775302
0.0110291531309485
0.0125938169658184
0.0134246088564395
0.0136385196819901
0.0134002305567264
0.0128925908356904
0.0122916828840971
0.0117459446191787
0.0113600306212902
0.0111858332529664
0.0112257543951272
0.0114489775151014
0.0118085611611604
0.0122483316808938
0.0127044115215539
0.0131109151989221
0.0134063996374607
0.0135307721793651
0.0134138651192188
0.0129658821970224
0.012079706415534
0.0106483064591884
0.0085916323587298
0.0058859111741185
0.002584071829915
-0.0011821063235402
-0.0052136210724711
-0.0092640314251184
-0.0130658624693751
-0.0163599774241447
-0.0189251005649566
-0.020603084936738
-0.0213115774095058
-0.0210408587008714
-0.0198427066206932
-0.0178215205669403
-0.0151290344074368
-0.0119568947702646
-0.0085215456783771
-0.0050428053364157
-0.0017237709835171
0.0012670801952481
0.0038121454417705
0.0058494373224675
0.0073670065030455
0.0084019862115383
0.0090422285720705
0.0094157652929425
0.0096666226163506
0.0099298143759369
0.0103161968290805
0.010904174298048
0.0117335589602589
0.0128064174205064
0.014093967154622
0.0155416578054428
0.0170743539929389
0.0186059176921844
0.0200484376400709
0.0213177390396595
0.0223358720541
0.0230275839567184
0.0233103167265653
0.0230845957994461
0.0222329031676054
0.0206324364989995
0.018182324245572
0.0148380789905786
0.0106406509876251
0.0057306042872369
0.0003439902793616
-0.0052098138257861
-0.0105827711522579
-0.0154262948781251
-0.0194282829761505
-0.0223477594554424
-0.0240405425429344
-0.0244700014591217
-0.0237046964466571
-0.0219040345400571
-0.0192928835749626
-0.0161350481212139
-0.0127132544293999
-0.0093092704191803
-0.0061793364584445
-0.0035304459743201
-0.0014996154932305
-0.0001382806804031
0.0005866538267582
0.0007739984430372
0.0005653940606862
0.000125155551359
-0.0003777192905545
-0.0007881335914134
-0.0009838608093559
-0.0008869527373462
-0.0004665222950279
0.0002636336721479
0.0012553439009934
0.0024407885503023
0.0037424964830279
0.0050795064307749
0.0063750478439033
0.0075635872781276
0.0085958950221538
0.0094433613121509
0.0100967399775981
0.010560730472207
0.0108510013669729
0.0109880622476339
0.0109821809455752
0.0108125703409314
0.0104090683162212
0.0096507938578724
0.0083886226639151
0.0064813075587153
0.0038295155391097
0.0004019644111394
-0.0037411656230688
-0.0084329070523381
-0.013407677412033
-0.0183340646326541
-0.0228610578924417
-0.0266644842922687
-0.0294821187853813
-0.0311358831822872
-0.0315454080700874
-0.0307321995496749
-0.0288123339414596
-0.0259831268340349
-0.0225061196833848
-0.0186800695955753
-0.0148071646690368
-0.01116175763309
-0.0079622212797403
-0.0053502968512475
-0.0033867466263473
-0.002059229882434
-0.0012924449983984
-0.0009605998639017
-0.0009073083056136
-0.0009728798177093
-0.0010201391996815
-0.0009460670407861
-0.0006783822900615
-0.0001702618319541
0.0005994937382638
0.001623751479201
0.0028633866459131
0.0042511411011219
0.0057115252129733
0.0071819997392594
0.0086166216060519
0.009976714849472
0.0112246256321668
0.0123250046744942
0.0132469329982995
0.0139636546373367
0.0144538329914212
0.0147075476124882
0.0147313121706247
0.0145449908450245
0.0141718480736017
0.0136250257492065
0.0128919221460819
0.0119216367602348
0.0106232445687055
0.008880516514182
0.0065823402255773
0.0036574322730302
0.0001020310446619
-0.0039996639825403
-0.0084660788998007
-0.0130320088937878
-0.0173831898719072
-0.0211983025074005
-0.0241916850209236
-0.0261483248323202
-0.0269457623362541
-0.0265638642013072
-0.025080332532525
-0.0226567797362804
-0.0195195265114307
-0.015932997688651
-0.0121732242405414
-0.0085061304271221
-0.0051643755286931
-0.0023226370103657
-8.130702190101147e-05
0.0015333795454353
0.0025564935058355
0.0030697141773998
0.0031915795989334
0.0030687227845191
0.0028590783476829
0.0027101808227598
0.0027452323120087
0.0030570016242563
0.0036989676300436
0.0046762665733695
0.0059497258625924
0.0074497768655419
0.0090876473113894
0.0107644693925976
0.0123816402629017
0.0138520011678338
0.0151118319481611
0.0161284450441598
0.0168955996632576
0.0174202844500541
0.0177141074091196
0.0177921503782272
0.0176731124520301
0.0173797588795423
0.0169411655515432
0.0163948610424995
0.0157839860767126
0.0151480669155716
0.0145123023539781
0.0138766430318355
0.0132022760808467
0.0124020129442214
0.011347159743309
0.0098933475092053
0.0079113747924566
0.0053100995719432
0.0020558680407702
-0.0018072319217026
-0.0061456500552594
-0.0107416752725839
-0.0153150428086519
-0.0195563435554504
-0.0231662672013044
-0.0258906185626983
-0.0275456849485635
-0.028037866577506
-0.0273765157908201
-0.0256718471646308
-0.0231158956885337
-0.0199554003775119
-0.0164661183953285
-0.0129279736429452
-0.0095968265086412
-0.0066771889105439
-0.0043062251061201
-0.0025492617860436
-0.0013997906353324
-0.0007872763089835
-0.0005960329435765
-0.0006848310586065
-0.0009004124440252
-0.0010903235524892
-0.0011174795217812
-0.0008737402968108
-0.0002917745150625
0.0006464566104114
0.0019080340862274
0.0034180937800556
0.0050797229632735
0.0067943995818495
0.0084722535684704
0.0100346002727746
0.0114170853048563
0.01257577072829
0.0134918121621012
0.0141708478331565
0.0146353561431169
0.0149118416011333
0.0150237949565052
0.0149952704086899
0.014852924272418
0.0146196456626057
0.0143092600628733
0.013931312598288
0.0134997563436627
0.0130302105098962
0.0125232804566621
0.0119485408067703
0.0112395640462636
0.0102950055152177
0.0089834192767739
0.0071641895920038
0.0047267451882362
0.0016282019205391
-0.0020859299693256
-0.0062788892537355
-0.010733114555478
-0.0151715204119682
-0.0192908570170402
-0.0228016451001167
-0.0254634898155927
-0.0271078646183013
-0.0276481322944164
-0.0270840115845203
-0.0255017019808292
-0.0230630002915859
-0.019983272999525
-0.0165083520114421
-0.012896186672151
-0.0093980720266699
-0.0062355594709515
-0.0035779878962785
-0.0015289455186575
-0.0001227678731083
0.0006734831258654
0.0009544878266751
0.0008650731761008
0.0005772714503109
0.0002613253891468
6.49825669825077e-05
0.0001031775027513
0.0004514497704803
0.0011408538557589
0.002155939117074
0.0034412879031151
0.0049185059033334
0.0065034432336688
0.0081156007945537
0.0096837356686592
0.0111491810530424
0.012465476989746
0.0135992467403411
0.0145324915647506
0.015260836109519
0.0157887898385524
0.0161268897354602
0.0162918046116828
0.0163065493106842
0.016198992729187
0.0160008948296308
0.0157471410930156
0.0154693387448787
0.015187625773251
0.0149103021249175
0.0146336602047085
0.0143305137753486
0.0139347836375236
0.0133363427594304
0.0123919434845447
0.0109503790736198
0.0088846869766712
0.0061232037842273
0.002673243638128
-0.0013675265945494
-0.0058130719698965
-0.0104027222841978
-0.0148266209289431
-0.0187641195952892
-0.0219289343804121
-0.0241054929792881
-0.0251702517271041
-0.0251006111502647
-0.0239676907658576
-0.0219153650104999
-0.0191405825316905
-0.0158826597034931
-0.0124107766896486
-0.0089986268430948
-0.0058927135542035
-0.0032857723999768
-0.0013012629933655
9.98296309262514e-06
0.0006681917002424
0.000761785893701
0.0004344559274613
-0.0001392147969454
-0.0007805345230735
-0.0013311369111761
-0.0016685961745679
-0.0017090286128222
-0.001404833048582
-0.0007448708638548
0.0002452577464282
0.0015084334881976
0.0029671732336282
0.0045344848185777
0.0061202887445688
0.0076355808414518
0.0089981248602271
0.010142651386559
0.0110314656049013
0.0116559388116002
0.0120289530605077
0.0121759930625557
0.0121304420754313
0.0119335893541574
0.0116318613290786
0.0112664736807346
0.010864034295082
0.0104355048388242
0.0099782859906554
0.0094757508486509
0.0088937189429998
0.0081723481416702
0.0072191478684544
0.0059169307351112
0.0041459621861577
0.0018090596422553
-0.0011435104534029
-0.004692917689681
-0.0087404754012823
-0.0131085589528083
-0.0175549611449241
-0.0217972211539745
-0.0255437735468149
-0.028530865907669
-0.03055414929986
-0.0314859896898269
-0.0312852673232555
-0.0300025064498186
-0.0277728363871574
-0.0247989334166049
-0.0213282667100429
-0.017624270170927
-0.013942795805633
-0.0105175180360674
-0.0075414711609482
-0.0051467535085976
-0.0033951413352042
-0.0022812779061496
-0.0017415630863979
-0.0016626479336991
-0.0018917609704658
-0.0022551785223186
-0.0025821721646934
-0.0027257250621914
-0.0025740563869476
-0.0020533883944153
-0.0011312430724501
0.0001759314909577
0.001801852369681
0.0036433301866054
0.0055804504081606
0.0074956631287932
0.0092867519706487
0.0108717279508709
0.0121919196099042
0.0132191553711891
0.0139610990881919
0.0144557859748601
0.0147558571770787
0.0149131640791893
0.0149700213223695
0.0149523373693227
0.0148635543882846
0.0146827716380357
0.0143641252070665
0.0138344755396246
0.0129959005862474
0.0117368111386895
0.0099454000592231
0.0075270440429449
0.0044316030107438
0.0006827751058153
-0.003601764794439
-0.0082078650593757
-0.0128488559275865
-0.0172083023935556
-0.0209795329719781
-0.0238961316645145
-0.0257590860128402
-0.0264552980661392
-0.025963082909584
-0.0243497043848037
-0.0217618197202682
-0.0184089597314596
-0.0145469596609473
-0.010462169535458
-0.0064475126564502
-0.0027687456458806
0.0003672074526548
0.0028297444805502
0.0045667286030948
0.0055990358814597
0.0060154455713927
0.0059639923274517
0.0056301606819033
0.0052057225257158
0.0048616253770887
0.0047316318377852
0.0049064140766859
0.0054368800483644
0.0063400515355169
0.0075985775329172
0.0091564049944281
0.0109210358932614
0.012776494026184
0.0146044176071882
0.0163063090294599
0.0178146790713071
0.0190896466374397
0.0201106835156679
0.0208713896572589
0.0213788822293281
0.0216530114412307
0.0217212680727243
0.0216144323348999
0.021365899592638
0.0210100021213293
0.0205758288502693
0.0200789403170347
0.0195153914391994
0.018857792019844
0.0180508494377136
0.0170060880482196
0.0156022924929857
0.0137025658041238
0.0111869079992175
0.0079861786216497
0.0041058342903852
-0.0003621836658567
-0.0052376990206539
-0.0102646593004465
-0.0151379518210887
-0.0195395927876234
-0.0231803990900516
-0.0258345156908035
-0.0273555740714073
-0.0276812836527824
-0.0268357750028371
-0.0249299518764019
-0.0221555829048156
-0.0187668353319168
-0.0150516163557767
-0.0113049186766147
-0.0078045353293418
-0.0047814231365919
-0.0023939500097185
-0.0007185908034443
0.0002481308765709
0.0005825869739055
0.0004188655875623
-7.350905798375607e-05
-0.0007110033184289
-0.0013134006876498
-0.001721303211525
-0.0018132531549781
-0.0015168313402682
-0.0008135600946843
0.0002625645138323
0.0016375316772609
0.0032187006436288
0.004912189207971
0.0066274581477046
0.0082768043503165
0.0097789606079459
0.0110655967146158
0.0120893716812133
0.012829391285777
0.0132867954671382
0.0134770134463906
0.0134305041283369
0.0131959477439522
0.0128322271630167
0.0123937735334038
0.0119228484109044
0.0114463819190859
0.0109661752358078
0.0104428026825189
0.0097865499556064
0.0088651943951845
0.0075239739380776
0.0056129153817892
0.0030214637517929
-0.0002876725047826
-0.0042560384608805
-0.0087226387113332
-0.0134345283731818
-0.0180740654468536
-0.0222986992448568
-0.0257863849401474
-0.0282763447612524
-0.0295966267585754
-0.0296780951321125
-0.0285590458661317
-0.0263797156512737
-0.0233625788241624
-0.019782043993473
-0.0159320160746574
-0.0120968762785196
-0.0085299750789999
-0.0054378411732614
-0.0029645403847098
-0.0011801522923633
-8.068858733167872e-05
0.000403108424507
0.0003922680334653
4.1747145587578416e-05
-0.0004776006098836
-0.0009952193358913
-0.001358795678243
-0.0014495139475911
-0.0011889820452779
-0.0005416622152552
0.0004863510839641
0.0018534580012783
0.0034898773301392
0.0053027183748781
0.0071814795956015
0.0090117324143648
0.010694365017116
0.0121584115549921
0.0133615266531705
0.0142811406403779
0.0149084357544779
0.0152504397556185
0.0153328096494078
0.0152002088725566
0.0149109009653329
0.0145231066271662
0.0140825491398572
0.0136139681562781
0.0131089715287089
0.0125130675733089
0.0117228310555219
0.010598724707961
0.0089930230751633
0.0067857848480343
0.0039154733531177
0.0004004524089396
-0.0036444952711462
-0.0080074565485119
-0.0124057997018098
-0.0165285281836986
-0.0200766678899526
-0.0227952450513839
-0.0244967453181743
-0.0250770896673202
-0.0245269760489463
-0.022935926914215
-0.0204821284860372
-0.0174078997224569
-0.0139882788062095
-0.010501648299396
-0.0072068502195179
-0.0043235416524112
-0.0020110020413994
-0.0003511941176839
0.000654537579976
0.0010757085401564
0.0010353382676839
0.0006891400553286
0.0002045371802523
-0.0002586951013654
-0.0005640145391225
-0.0006062122993171
-0.0003147886600345
0.0003413935191929
0.001351723098196
0.0026677576825022
0.0042116953991353
0.0058883847668766
0.0075980313122272
0.0092469630762934
0.0107574770227074
0.0120761170983314
0.013174682855606
0.014041407033801
0.0146725699305534
0.0150734996423125
0.0152627695351839
0.0152723342180252
0.0151441702619194
0.014925992116332
0.0146658169105649
0.0143997548148036
0.0141328554600477
0.0138237588107585
0.013381777331233
0.0126770474016666
0.0115596763789653
0.0098856501281261
0.0075504831038415
0.0045228484086692
0.000864531379193
-0.0032667347695678
-0.0076305950060486
-0.0119335846975445
-0.0158666688948869
-0.0191415324807167
-0.0215222556143999
-0.0228485278785228
-0.0230484586209058
-0.022144878283143
-0.0202556084841489
-0.0175807084888219
-0.0143766328692436
-0.0109268091619014
-0.0075135128572583
-0.004390231333673
-0.0017564985901117
0.000259596388787
0.0016068599652498
0.0023049337323755
0.002433665562421
0.0021215246524661
0.0015300579834729
0.0008343653753399
0.0002020748797804
-0.0002267663367092
-0.0003557777963578
-0.000137994182296
0.000433366280049
0.0013357610441744
0.0025155076291412
0.003886780468747
0.0053475340828299
0.0068004713393747
0.0081635685637593
0.0093740541487932
0.0103908013552427
0.0111917648464441
0.0117670726031064
0.0121153257787227
0.012247359380126
0.0121896024793386
0.0119779240339994
0.0116482246667146
0.0112334117293357
0.0107595743611454
0.0102344937622547
0.0096374666318297
0.008914235047996
0.0079745948314666
0.0066984770819544
0.0049571953713893
0.0026490371674299
-0.0002656569704413
-0.0037484532222151
-0.0076834550127387
-0.0118837095797061
-0.0161056406795978
-0.0200741719454526
-0.023513289168477
-0.0261770598590374
-0.0278787761926651
-0.0285139307379722
-0.0280705075711011
-0.0266251377761364
-0.0243299417197704
-0.0213975012302398
-0.0180844515562057
-0.0146663226187229
-0.0114064933732151
-0.0085276644676923
-0.0061878459528088
-0.0044669397175312
-0.003370122751221
-0.0028402940370142
-0.0027687042020261
-0.0030056904070079
-0.0033789402805268
-0.0037177237682044
-0.0038749298546463
-0.0037437456194311
-0.0032684246543794
-0.0024431459605693
-0.0012983323540538
0.0001135163474828
0.001723947469145
0.0034497859887778
0.0051962709985673
0.00686662690714
0.0083767464384436
0.0096691623330116
0.0107189808040857
0.0115285143256187
0.012117363512516
0.012513630092144
0.0127457957714796
0.0128361070528626
0.0127899199724197
0.0125771183520555
0.0121220909059047
0.0113162528723478
0.0100442171096801
0.0082101067528128
0.0057602231390774
0.0027054925449192
-0.0008605908369645
-0.004762103781104
-0.0087580671533942
-0.0125649059191346
-0.0158850736916065
-0.0184475500136613
-0.0200481824576854
-0.0205727703869342
-0.0200066976249218
-0.0184391345828771
-0.0160502176731824
-0.0130767384544014
-0.0097758807241916
-0.0064006755128502
-0.003182194661349
-0.0003131600096821
0.0020648995414376
0.0038687805645167
0.0050761341117322
0.0057245763018727
0.0059054093435406
0.0057488866150379
0.0054058004170656
0.0050323870964348
0.0047747534699738
0.0047492966987192
0.0050264257006347
0.0056266854517161
0.0065298066474497
0.007687116973102
0.0090294126421213
0.010474088601768
0.0119357723742723
0.0133354421705007
0.0146041437983512
0.0156837403774261
0.0165295526385307
0.0171176251024007
0.0174495540559291
0.0175468791276216
0.0174408983439207
0.0171666890382766
0.0167603604495525
0.0162565410137176
0.0156842432916164
0.0150561910122632
0.0143518662080168
0.0135054904967546
0.0124077387154102
0.0109219253063201
0.00891525298357
0.0062984721735119
0.0030583478510379
-0.0007248160545714
-0.0048750075511634
-0.009137850254774
-0.0132181346416473
-0.0168248619884252
-0.0197068601846694
-0.0216738227754831
-0.0226120166480541
-0.0224978476762771
-0.021397303789854
-0.0194504857063293
-0.0168537981808185
-0.0138405226171016
-0.0106558054685592
-0.0075338063761591
-0.0046826689504086
-0.0022697555832564
-0.0004043164663016
0.0008716552983969
0.0015802539419382
0.0018005273304879
0.0016579770017415
0.0013053780421614
0.0009011595975607
0.0005921919364482
0.0004980645608156
0.0006973289418965
0.001222877530381
0.0020665328484028
0.0031867637299001
0.0045188101939857
0.0059863231144845
0.0075090872123837
0.0090062459930777
0.0103994812816381
0.0116179836913943
0.0126056857407093
0.0133293215185403
0.0137829026207327
0.0139855807647109
0.0139722405001521
0.0137832099571824
0.0134608410298824
0.0130485547706484
0.0125860543921589
0.0121030891314148
0.0116111356765031
0.0110889272764325
0.0104694534093141
0.0096416901797056
0.0084691038355231
0.0068173790350556
0.0045833806507289
0.0017218273133039
-0.0017306027002632
-0.0056402953341603
-0.0097858300432562
-0.013893024995923
-0.01767542026937
-0.0208656843751668
-0.0232422444969415
-0.0246539376676082
-0.0250357706099748
-0.0244106091558933
-0.0228807926177978
-0.0206161327660083
-0.0178371220827102
-0.014791514724493
-0.0117295421659946
-0.0088805463165044
-0.0064307004213333
-0.0045055542141199
-0.0031606587581336
-0.002381338737905
-0.002092694863677
-0.0021771227475255
-0.0024908711202442
-0.0028765378519892
-0.0031772048678249
-0.0032553160563111
-0.0030134713742882
-0.0024071168154478
-0.0014418370556086
-0.0001630026381462
0.0013534639729186
0.0030111079104244
0.004707308486104
0.0063481456600129
0.0078571084886789
0.0091776838526129
0.0102745834738016
0.0111340917646884
0.0117606297135353
0.0121714333072304
0.0123927826061844
0.0124563099816441
0.0123936682939529
0.0122306803241372
0.0119849275797605
0.0116702932864427
0.0113013507798314
0.0108865862712264
0.0104163382202386
0.0098552890121936
0.0091355657204985
0.0081556849181652
0.0067983674816787
0.0049593425355851
0.0025719087570905
-0.0003742291592061
-0.0038148101884871
-0.0075987172313034
-0.0114989299327135
-0.0152486823499202
-0.018581349402666
-0.0212607141584157
-0.0231056679040193
-0.0240086801350116
-0.0239410195499658
-0.0229489803314209
-0.0211480185389518
-0.0187122784554958
-0.015857920050621
-0.0128209488466382
-0.0098334429785609
-0.0071050282567739
-0.0048062498681247
-0.003049487248063
-0.0018760573584586
-0.0012559490278363
-0.0010951494332402
-0.0012484008911997
-0.0015421186108142
-0.0018040697323158
-0.0018877371912822
-0.0016862013144418
-0.0011383759556338
-0.000229523400776
0.001012458698824
0.0025204874109476
0.0041930358856916
0.0059099360369145
0.0075584114529192
0.0090533504262566
0.0103409206494688
0.0113918632268905
0.0121976677328348
0.0127723328769207
0.013149463571608
0.0133699467405676
0.0134688159450888
0.0134696001186966
0.0133874742314219
0.0132361715659499
0.0130324680358171
0.0127967642620205
0.0125491702929139
0.0123021230101585
0.0120522240176796
0.0117718111723661
0.011400518938899
0.0108396410942077
0.0099594350904226
0.0086228074505925
0.0067116045393049
0.0041529084555804
0.0009505981579422
-0.0027938149869441
-0.0068869013339281
-0.0110707376152277
-0.0150596527382731
-0.0185763537883758
-0.021381951868534
-0.023297905921936
-0.0242209900170564
-0.024132190272212
-0.0230958275496959
-0.0212462358176708
-0.0187682434916496
-0.0158789418637752
-0.0128094321116805
-0.0097859995439648
-0.0070129884406924
-0.0046551609411835
-0.0028200191445648
-0.0015463836025446
-0.0008047044975683
-0.0005079472903162
-0.0005281448829919
-0.0007162687834352
-0.0009226195979863
-0.0010151849128305
-0.0008927916642278
-0.0004898724146187
0.0002235090360045
0.0012418850092217
0.0025246660225093
0.0040001408196985
0.0055785924196243
0.0071712778881192
0.0087035819888114
0.010116864927113
0.011364703066647
0.0124111007899045
0.0132325273007154
0.0138206630945205
0.0141838463023304
0.0143454326316714
0.0143360197544097
0.0141854863613843
0.0139233916997909
0.0135831059888005
0.0131994504481554
0.0128002725541591
0.0124001577496528
0.0119979381561279
0.0115758432075381
0.0110965957865118
0.0104962773621082
0.0096826963126659
0.0085452161729335
0.0069716852158308
0.0048707062378525
0.0021948833018541
-0.0010391063988208
-0.0047353114932775
-0.0087163764983415
-0.012741913087666
-0.0165422484278678
-0.0198502466082572
-0.0224252697080373
-0.024079805240035
-0.0247056726366281
-0.0242881625890731
-0.022905858233571
-0.0207179952412843
-0.0179435405880212
-0.0148351900279521
-0.0116533767431974
-0.0086439996957778
-0.006014241836965
-0.003907757345587
-0.0023946578148752
-0.0014800295466557
-0.0011132135987281
-0.001190401148051
-0.0015627115499228
-0.0020561006385833
-0.002499067923054
-0.0027489806525409
-0.0027042129077017
-0.0023030724842101
-0.0015228234697133
-0.0003795796073973
0.0010753873502835
0.0027600147295743
0.0045677423477172
0.006381063722074
0.0080914702266454
0.0096164569258689
0.0109031833708286
0.0119221825152635
0.0126641876995563
0.0131398271769285
0.0133744096383452
0.0134011972695589
0.013259126804769
0.0129924770444631
0.0126474592834711
0.012268204241991
0.0118950959295034
0.0115602863952517
0.0112801287323236
0.0110497698187828
0.0108395786955952
0.0105923935770988
0.0102215129882097
0.0096117425709962
0.0086297467350959
0.0071454788558185
0.0050612529739737
0.0023402944207191
-0.000975236762315
-0.0047590765170753
-0.0088074207305908
-0.0128594189882278
-0.0166302397847175
-0.0198481120169162
-0.0222872141748666
-0.0237898249179124
-0.0242758654057979
-0.0237469710409641
-0.0222881771624088
-0.0200623497366905
-0.0172928851097822
-0.0142352599650621
-0.011146125383675
-0.0082570370286703
-0.0057525988668203
-0.003755273297429
-0.0023213948588818
-0.0014466533903032
-0.0010743595194071
-0.0011011322494596
-0.001384038478136
-0.0017581495922058
-0.0020622999873012
-0.0021636835299432
-0.0019731507636606
-0.0014461504761129
-0.000575854210183
0.0006097019650042
0.0020463271066546
0.0036415348295122
0.0052951802499592
0.0069175772368907
0.008437430486083
0.0098039051517844
0.0109847262501716
0.0119628589600324
0.0127350110560655
0.0133095951750874
0.013701245188713
0.0139260962605476
0.014002026990056
0.0139514645561575
0.0138017246499657
0.013581532984972
0.0133193591609597
0.0130448471754789
0.0127845099195837
0.0125520061701536
0.0123413186520338
0.0121207851916551
0.0118276514112949
0.0113703850656747
0.0106359617784619
0.0094986371695995
0.0078389439731836
0.0055745090357959
0.002689329907298
-0.0007498632185161
-0.0045926924794912
-0.0086184134706854
-0.0125617580488324
-0.0161475483328104
-0.0191247034817934
-0.0212907660752534
-0.0225080288946628
-0.0227155704051256
-0.0219346210360527
-0.0202635750174522
-0.0178644526749849
-0.0149478744715452
-0.0117606222629547
-0.0085657760500907
-0.0056095169857144
-0.0030907071195542
-0.0011454238556325
0.0001600086688995
0.0008310285047627
0.000938061333727
0.0006021434091962
-2.161972224712372e-05
-0.0007615707581862
-0.0014503353741019
-0.0019434511195868
-0.0021305009722709
-0.0019452058477327
-0.0013735051034018
-0.000450434454251
0.0007516692858189
0.0021371468901634
0.0036037152167409
0.0050599351525306
0.0064340359531342
0.0076722605153918
0.0087366634979844
0.0096050705760717
0.0102677047252655
0.0107202986255288
0.0109600396826863
0.0109907621517777
0.0108320284634828
0.0105192456394433
0.0100949397310614
0.0096002714708447
0.0090674255043268
0.0085106724873185
0.0079200910404324
0.0072599332779645
0.0064673172309994
0.005451510194689
0.0041028135456144
0.0023144748993217
1.1280644685029984e-05
-0.0028210175223648
-0.0061153275892138
-0.009725609794259
-0.013445490039885
-0.0170269273221492
-0.0202054101973772
-0.0227369647473096
-0.0244311243295669
-0.0251695681363344
-0.0249125510454177
-0.0236968286335468
-0.0216305814683437
-0.0188876930624246
-0.0156960096210241
-0.0123155768960714
-0.0090105701237916
-0.006021274253726
-0.003539226250723
-0.0016860128380358
-0.000498445238918
7.188250310719013e-05
0.0001401114277541
-0.0001383505295962
-0.000590281561017
-0.0010474259033799
-0.0013693110086023
-0.0014541037380695
-0.0012377714738249
-0.000689881388098
0.0001895865425467
0.0013701375573873
0.002792828483507
0.0043809870257973
0.0060551185160875
0.007742166519165
0.0093747293576598
0.0108873378485441
0.0122190220281481
0.0133207999169826
0.0141610447317361
0.0147266602143645
0.0150254759937524
0.0150885432958602
0.0149603635072708
0.0146774500608444
0.0142479501664638
0.0136400628834962
0.0127812642604112
0.0115674547851085
0.0098828487098217
0.0076309968717396
0.004769489634782
0.0013366222847253
-0.0025376242119818
-0.0066388892009854
-0.0106951175257563
-0.0144156161695718
-0.0175277404487133
-0.0198056232184171
-0.0210927240550518
-0.0213150344789028
-0.0204853527247905
-0.0187029056251049
-0.0161450449377298
-0.0130476411432027
-0.0096770729869604
-0.0062993895262479
-0.0031518163159489
-0.0004213033244013
0.0017655878327786
0.0033439863473176
0.004310687072575
0.004722835496068
0.0046896236017346
0.0043570245616137
0.003888139501214
0.0034423405304551
0.0031588966958224
0.0031443061307072
0.0034619499929249
0.004129534587264
0.0051247756928205
0.0063930945470929
0.0078549487516283
0.0094152176752686
0.0109761077910661
0.0124509427696466
0.0137722874060273
0.0148911932483315
0.0157731585204601
0.0163988452404737
0.0167700499296188
0.0169122032821178
0.0168658234179019
0.0166728273034095
0.0163697469979524
0.015986131504178
0.0155385555699467
0.0150202196091413
0.0143907815217971
0.0135717969387769
0.0124526647850871
0.0109051000326871
0.00880519580096
0.0060642249882221
0.0026603951118886
-0.0013400081079453
-0.0057774344459176
-0.0104108992964029
-0.0149444341659545
-0.0190620329231023
-0.0224666558206081
-0.0249188598245382
-0.0262665022164583
-0.0264578070491552
-0.0255389455705881
-0.0236429590731859
-0.0209725741297006
-0.017776895314455
-0.0143253533169627
-0.0108835641294717
-0.0076921773143112
-0.0049443552270531
-0.0027637176681309
-0.0011964933946728
-0.0002209327649325
0.0002387857530266
0.0002994386013597
0.0001042480580508
-0.0001908144913613
-0.0004305206239223
-0.0004781503230333
-0.0002343370579183
0.0003514685668051
0.0012806430459022
0.0025116417091339
0.0039682113565504
0.0055529531091451
0.0071665127761662
0.0087230447679758
0.0101561155170202
0.0114206001162529
0.0124946609139442
0.0133760189637541
0.0140718398615717
0.0145911574363708
0.0149432886391878
0.0151374666020274
0.0151822911575436
0.0150873661041259
0.0148658053949475
0.0145336734130978
0.0141014195978641
0.0135575011372566
0.0128530533984303
0.0118962405249476
0.0105617381632328
0.00871535949409
0.0062478268519043
0.0031112320721149
-0.0006524813361465
-0.0049027404747903
-0.0094136586412787
-0.013903179205954
-0.0180676728487014
-0.0216164514422416
-0.0243052449077367
-0.0259646549820899
-0.0265179257839918
-0.0259835012257099
-0.0244644302874803
-0.0221298057585954
-0.0191924199461936
-0.0158912148326635
-0.0124781662598252
-0.0091960234567523
-0.0062484210357069
-0.0037812869995832
-0.0018796984804794
-0.0005678636953234
0.000189412254258
0.0004776288405992
0.0004186346195638
0.0001560781383886
-0.0001599695533514
-0.0003889186191372
-0.0004122217651456
-0.0001401503104716
0.0004821624606847
0.0014656363055109
0.0027716399636119
0.0043192384764552
0.0060041323304176
0.0077194836921989
0.0093706594780087
0.0108798313885927
0.0121837751939892
0.0132343955338001
0.0140037573873996
0.0144856302067637
0.0146925402805209
0.0146553311496973
0.014422689564526
0.0140535710379481
0.0136048914864659
0.0131205115467309
0.0126250749453902
0.0121205504983663
0.0115795983001589
0.0109371375292539
0.0100878374651074
0.008896904066205
0.0072261686436831
0.004966645501554
0.0020671733655035
-0.0014435914345085
-0.005444549024105
-0.009727637283504
-0.0140237808227539
-0.0180367901921272
-0.0214761458337306
-0.0240905229002237
-0.0256996061652898
-0.0262147784233093
-0.0256428271532058
-0.0240780003368854
-0.0216902624815702
-0.0187086500227451
-0.0153965773060917
-0.0120222922414541
-0.0088327471166849
-0.0060354536399245
-0.0037836916744709
-0.0021628348622471
-0.0011834760662168
-0.0007851588306948
-0.0008491584449075
-0.0012158672325313
-0.0017053443007171
-0.0021415636874735
-0.0023753023706376
-0.0023007448762655
-0.0018629974219948
-0.0010554083855822
8.652545511722565e-05
0.0014906743308529
0.0030591608956456
0.0046858889982104
0.0062739471904933
0.0077490326948463
0.0090646240860223
0.0101932706311345
0.0111135076731443
0.0118089970201253
0.012276291847229
0.012527429498732
0.0125880492851138
0.0124953323975205
0.0122927566990256
0.0120229516178369
0.0117224240675568
0.0114160571247339
0.0111077539622783
0.0107669057324528
0.0103172343224287
0.0096406890079379
0.008600509725511
0.0070708426646888
0.0049625704996287
0.002247093245387
-0.0010243481956422
-0.0047148065641522
-0.0086119985207915
-0.0124507332220673
-0.0159463286399841
-0.0188342500478029
-0.0209011249244213
-0.0220038648694753
-0.0220850482583045
-0.0211805365979671
-0.0194090325385332
-0.016948614269495
-0.0140164531767368
-0.0108557203784585
-0.007717739790678
-0.0048323925584554
-0.0023808293044567
-0.0004841089248657
0.0008017711224965
0.0014906717697158
0.0016611398896202
0.0014410550938919
0.0009909193031489
0.0004850755212828
8.598424028605223e-05
-8.207326754927635e-05
5.393475294113159e-05
0.0005205000052228
0.0013107386184856
0.0023919646628201
0.0037044996861368
0.00516506889835
0.006681737024337
0.0081688202917575
0.0095545733347535
0.0107844453305006
0.0118196457624435
0.0126341450959444
0.0132158258929848
0.0135663282126188
0.0136959245428442
0.013622305355966
