bvp
0.0090464260429143
0.0090984515845775
0.0090977465733885
0.0090421782806515
0.0088936081156134
0.00857665669173
0.0079987086355686
0.0070719667710363
0.0057258494198322
0.0039195804856717
0.001658011926338
-0.0009960975730791
-0.0039182626642286
-0.0069324523210525
-0.0098338210955262
-0.0124120330438017
-0.0144708417356014
-0.0158513020724058
-0.0164579655975103
-0.0162740740925073
-0.015356951393187
-0.0138203436508774
-0.0118150729686021
-0.0095136733725667
-0.0070972554385662
-0.0047402991913259
-0.0025957918260246
-0.0007827569497749
0.0006258889916352
0.0016080338973551
0.0021847009193152
0.0024106900673359
0.0023680548183619
0.0021522298920899
0.0018532646354287
0.0015461461152881
0.0012884149327874
0.00112138944678
0.001077456632629
0.0011814874596893
0.0014396420447155
0.0018305722624063
0.0023090071044862
0.0028201378881931
0.0033186837099492
0.0037780010607093
0.0041806953959167
0.004502504132688
0.0047095422632992
0.004773577209562
0.0046911677345633
0.0044935620389878
0.0042419750243425
0.0040091513656079
0.0038540246896445
0.00379856582731
0.0038165338337421
0.0038381647318601
0.0037655418273061
0.0034907939843833
0.0029158848337829
0.0019761186558753
0.0006614353042095
-0.0009758805390447
-0.0028316651005297
-0.004771374631673
-0.0066526411101222
-0.0083439731970429
-0.0097364680841565
-0.0107508758082985
-0.0113468468189239
-0.0115312030538916
-0.0113540878519415
-0.0108925681561231
-0.0102338623255491
-0.0094641949981451
-0.0086620226502418
-0.0078945327550172
-0.0072107589803636
-0.0066287689842283
-0.0061280853115022
-0.0056564770638942
-0.0051481388509273
-0.0045422641560435
-0.0037896218709647
-0.0028504943475127
-0.0016993056051433
-0.000333905685693
0.0012235161848366
0.0029317075386643
0.0047345021739602
0.0065680765546858
0.0083717321977019
0.0100935148075222
0.0116902533918619
0.0131268389523029
0.0143769169226288
0.0154244825243949
0.0162615720182657
0.0168824344873428
0.0172798726707696
0.017444584518671
0.0173656120896339
0.0170280467718839
0.0164091102778911
0.0154817458242177
0.014226097613573
0.0126418666914105
0.0107585834339261
0.008641387335956
0.0063910246826708
0.0041354848071932
0.0020118399988859
0.0001484169915784
-0.0013453672872856
-0.0023871350567787
-0.0029306912329047
-0.0029722647741436
-0.0025519737973809
-0.0017507642041891
-0.0006808815523982
0.0005296079907566
0.0017502362607046
0.0028551910072565
0.0037327301688492
0.0043009966611862
0.0045199980959296
0.0043947072699666
0.0039734933525323
0.0033405038993805
0.0025982637889683
0.001848270650953
0.0011805142275989
0.0006696903146803
0.0003715762868523
0.0003198133781552
0.0005233590491116
0.0009633186273276
0.0015917969867587
0.0023369509726762
0.0031160418875515
0.003855450078845
0.0045083598233759
0.0050562480464577
0.0054972060024738
0.0058376174420118
0.0060868905857205
0.0062437923625111
0.0062805758789181
0.0061395373195409
0.0057426113635301
0.0050057834014296
0.0038534300401806
0.0022345073521137
0.0001431740820407
-0.00236386526376
-0.0051641445606946
-0.0080811474472284
-0.0109066227450966
-0.0134318089112639
-0.0154810473322868
-0.0169343408197164
-0.0177335105836391
-0.0178783424198627
-0.0174211766570806
-0.0164615176618099
-0.0151352789252996
-0.0135983992367982
-0.0120095610618591
-0.010514648631215
-0.0092371376231312
-0.0082746399566531
-0.0076929624192416
-0.007517285645008
-0.0077311289496719
-0.0082832984626293
-0.0090929800644516
-0.0100519396364688
-0.0110319005325436
-0.0118970181792974
-0.0125145725905895
-0.012768018990755
-0.012576462700963
-0.0119113661348819
-0.0107997693121433
-0.0093153864145278
-0.0075704618357121
-0.0057076383382081
-0.0038801650516688
-0.0022285161539912
-0.0008673383854329
0.0001191534101963
0.0006789183244109
0.0007908809930086
0.0004574353806674
-0.0003096088767051
-0.0014996801037341
-0.0031003903131932
-0.0050857486203312
-0.0074061527848243
-0.0099809877574443
-0.012691518291831
-0.0153794474899768
-0.0178582500666379
-0.0199346262961626
-0.0214312206953763
-0.0222070161253213
-0.0221764221787452
-0.0213240757584571
-0.0197080243378877
-0.0174495968967676
-0.0147157572209835
-0.0116983139887452
-0.0085945148020982
-0.0055912677198648
-0.0028494242578744
-0.0004882374778389
0.0014247698709368
0.0028757266700267
0.0039014471694827
0.0045851720497012
0.0050470540300011
0.0054230531677603
0.0058399140834808
0.0064004231244325
0.007174183614552
0.0081870034337043
0.0094187594950199
0.010813576169312
0.0122943883761763
0.0137767298147082
0.0151806818321347
0.016440887004137
0.0175129491835832
0.0183737371116876
0.0190185997635126
0.0194605216383934
0.0197276473045349
0.0198548231273889
0.019873097538948
0.0197980962693691
0.0196160115301609
0.0192764289677143
0.0187000725418329
0.0177972111850976
0.0164899062365293
0.0147336665540933
0.0125361578539013
0.0099698286503553
0.0071680173277854
0.004301169887185
0.0015502786263823
-0.0009090835228562
-0.0029170289635658
-0.0043394640088081
-0.0050817923620343
-0.0051073264330625
-0.004447678104043
-0.0031942520290613
-0.0014798725023865
0.0005372008308768
0.00268922932446
0.0048170629888772
0.006783191114664
0.0084809614345431
0.009843299165368
0.0108450148254632
0.0114985043182969
0.0118458280339837
0.0119478739798069
0.0118749048560857
0.0116979526355862
0.0114797828719019
0.0112709756940603
0.0111105665564537
0.011024996638298
0.0110243260860443
0.0111008193343877
0.0112348645925521
0.0114030903205275
0.0115810446441173
0.0117423981428146
0.0118574956431984
0.0118941664695739
0.0118253603577613
0.0116378311067819
0.0113321002572774
0.0109156239777803
0.010396622121334
0.0097791478037834
0.0090554626658558
0.0081952847540378
0.0071389703080058
0.0058058532886207
0.0041187782771885
0.002030337229371
-0.0004597953520715
-0.0032949768938124
-0.0063611730001866
-0.009499967098236
-0.0125297140330076
-0.0152671784162521
-0.017545323818922
-0.019225837662816
-0.0202102046459913
-0.0204513296484947
-0.0199598893523216
-0.0188006646931171
-0.0170853864401578
-0.0149706080555915
-0.0126490704715251
-0.0103215724229812
-0.0081655047833919
-0.006319083739072
-0.004876535385847
-0.0038829748518764
-0.0033283452503383
-0.0031486162915825
-0.003242113161832
-0.003494547214359
-0.0037946961820125
-0.0040392410010099
-0.0041415374726057
-0.0040475013665854
-0.003745314432308
-0.0032568555325269
-0.0026201964356005
-0.00188057590276
-0.0010881670750677
-0.0002953833900392
0.0004457682371139
0.0010893950238823
0.0016058813780546
0.0019866600632667
0.0022374615073204
0.002370118163526
0.0024046329781413
0.0023760562762618
0.0023336838930845
0.0023322785273194
0.0024193953722715
0.0026204343885183
0.0029275501146912
0.0032955268397927
0.0036420114338397
0.003854458220303
0.0038086688145995
0.0033975755795836
0.0025602234527468
0.0012993682175874
-0.0003155274316668
-0.002155072055757
-0.0040425034239888
-0.0057753920555114
-0.0071547827683389
-0.008007438853383
-0.0081934742629528
-0.0076053622178733
-0.0061667333357036
-0.0038338718004524
-0.0005942014977335
0.0035432372242212
0.0085586765781044
0.0144239971414208
0.0210981667041778
0.0285214427858591
0.0366055630147457
0.0452246740460395
0.05421694368124
0.0633860975503921
0.072494700551033
0.0812655389308929
0.0894011855125427
0.0966114401817321
0.102635808289051
0.1072576344013214
0.1103120744228363
0.1116888746619224
0.1113305240869522
0.1092318743467331
0.1054475232958793
0.1000983938574791
0.0933630988001823
0.0854576304554939
0.0766175687313079
0.0670820027589798
0.0570717751979827
0.04676965624094
0.036312036216259
0.0257903933525085
0.0152587071061134
0.0047468245029449
-0.0057257935404777
-0.016142800450325
-0.0264852643013
-0.0367213562130928
-0.0467962250113487
-0.0566257536411285
-0.066093735396862
-0.0750602930784225
-0.083382099866867
-0.0909289866685867
-0.0975933894515037
-0.1033016294240951
-0.108023889362812
-0.1117736846208572
-0.1146021634340286
-0.1166004389524459
-0.1179040372371673
-0.1186824664473533
-0.1191182136535644
-0.1193906441330909
-0.1196630299091339
-0.1200647205114364
-0.1206726431846618
-0.1214999631047248
-0.1224958151578903
-0.1235590949654579
-0.124561958014965
-0.1253693252801895
-0.1258483827114105
-0.1258743107318878
-0.1253362894058227
-0.1241465508937835
-0.1222509294748306
-0.119629293680191
-0.1162825375795364
-0.1122195124626159
-0.1074523702263832
-0.1019965410232544
-0.0958755388855934
-0.0891323238611221
-0.0818389877676963
-0.0740944147109985
-0.0660093426704406
-0.0576883107423782
-0.0492201149463653
-0.0406803525984287
-0.0321391560137271
-0.0236683301627635
-0.0153503492474555
-0.0072872387245297
0.0003979280591011
0.0075646601617336
0.0140584660694003
0.0197197087109088
0.0244021769613027
0.0279949828982353
0.030442664399743
0.0317607559263706
0.0320413447916507
0.0314467921853065
0.030194204300642
0.0285323038697242
0.0267123710364103
0.0249535553157329
0.0234072171151638
0.0221358463168144
0.0211163274943828
0.0202627889811992
0.019460167735815
0.0185981132090091
0.0175970047712326
0.0164236165583133
0.015096440911293
0.0136815458536148
0.0122798457741737
0.0110084787011146
0.0099843889474868
0.0093161985278129
0.0090987607836723
0.0094027146697044
0.0102640464901924
0.0116841122508049
0.0136400982737541
0.0160962119698524
0.0190101563930511
0.022337220609188
0.0260316580533981
0.0300440117716789
0.0343174561858177
0.0387858375906944
0.0433735400438308
0.0479993298649787
0.0525836274027824
0.0570519641041755
0.0613318681716918
0.065347820520401
0.0690147876739502
0.0722278580069542
0.0748541876673698
0.0767394676804542
0.077731505036354
0.0777095854282379
0.0766075849533081
0.0744280815124511
0.0712452083826065
0.0671966224908828
0.0624715834856033
0.0572978854179382
0.0519296750426292
0.0466365441679954
0.041684865951538
0.0373104289174079
0.033694215118885
0.0309487953782081
0.029115192592144
0.0281694829463958
0.028039738535881
0.0286263152956962
0.0298144295811653
0.0314810052514076
0.033505268394947
0.0357905328273773
0.0382957682013511
0.0410555899143219
0.0441673919558525
0.0477551035583019
0.051939707249403
0.0568312667310237
0.0625306814908981
0.0691201016306877
0.0766332000494003
0.0850204229354858
0.094133548438549
0.1037380844354629
0.1135430634021759
0.1232323348522186
0.132491260766983
0.1410296112298965
0.1485957503318786
0.1549794673919677
0.1600114703178405
0.1635669618844986
0.1655687689781189
0.1659755557775497
0.1647533923387527
0.1618512123823166
0.1571972519159317
0.1507154554128646
0.1423536092042923
0.1321132928133011
0.1200704872608184
0.1063811779022216
0.0912719815969467
0.0750225335359573
0.0579477921128273
0.0403787195682525
0.0226383656263351
0.00502260774374
-0.0122047066688537
-0.0288072004914283
-0.0445742830634117
-0.0593254603445529
-0.0729162395000457
-0.085242785513401
-0.0962448269128799
-0.1059082597494125
-0.1142686903476715
-0.1214132159948349
-0.1274743676185608
-0.132615864276886
-0.1370165646076202
-0.1408545523881912
-0.1442871838808059
-0.1474273800849914
-0.1503259837627411
-0.1529707461595535
-0.1553034037351608
-0.1572465151548385
-0.1587265431880951
-0.1596859842538833
-0.1600881218910217
-0.159917339682579
-0.1591757237911224
-0.1578815728425979
-0.1560713648796081
-0.153798833489418
-0.1511302441358566
-0.1481418907642364
-0.144920527935028
-0.1415605545043945
-0.1381599009037017
-0.1348215788602829
-0.1316561102867126
-0.1287762075662613
-0.1262856125831604
-0.1242666989564895
-0.1227672845125198
-0.121786817908287
-0.1212630122900009
-0.1210620775818824
-0.1209785342216491
-0.120746836066246
-0.1200655773282051
-0.1186337023973465
-0.1161857321858406
-0.1125159710645675
-0.1074974164366722
-0.1011020690202713
-0.0934171602129936
-0.0846409425139427
-0.0750510692596435
-0.0649642050266265
-0.0547056943178176
-0.0445824265480041
-0.0348487198352813
-0.0256769433617591
-0.0171469114720821
-0.009251981973648
-0.0019156783819198
0.0049906447529792
0.0116360336542129
0.0182208493351936
0.0249719507992267
0.0321389585733413
0.0399695970118045
0.0486587435007095
0.0582948923110961
0.0688243731856346
0.0800429731607437
0.0916177257895469
0.1031295731663703
0.1141236126422882
0.1241581663489341
0.1328497231006622
0.1399106830358505
0.1451686918735504
0.1485602259635925
0.1501079797744751
0.1498946249485016
0.1480371803045272
0.1446646451950073
0.1399080753326416
0.1339094042778015
0.126839131116867
0.1189115270972251
0.110395036637783
0.1016108691692352
0.0929148197174072
0.0846685469150543
0.0772068351507186
0.0708050429821014
0.0656507462263107
0.0618244893848896
0.0592961460351944
0.0579360648989677
0.0575356408953666
0.0578373670578002
0.0585711374878883
0.0594882369041442
0.0603889264166355
0.0611405372619628
0.0616776160895824
0.0619797855615615
0.0620381087064743
0.0618296302855014
0.0613116957247257
0.0604312866926193
0.0591370239853858
0.0573897324502468
0.0551739409565925
0.0525066331028938
0.0494380667805671
0.0460492819547653
0.0424519926309585
0.0387848168611526
0.0352010279893875
0.0318532399833202
0.0288780704140663
0.026378683745861
0.0244018789380788
0.022912049666047
0.021773736923933
0.0207518264651298
0.0195326283574104
0.0177647769451141
0.0151121616363525
0.0113073997199535
0.006194083020091
-0.0002435483038425
-0.0078614205121994
-0.0163596142083406
-0.0253153555095195
-0.0342302694916725
-0.0425808243453502
-0.0498724244534969
-0.0556961856782436
-0.0597793832421302
-0.0620171017944812
-0.0624791756272316
-0.061393879354
-0.0591121613979339
-0.0560604892671108
-0.0526891574263572
-0.0494171008467674
-0.0465798377990722
-0.0443921312689781
-0.0429272651672363
-0.0421122573316097
-0.041749183088541
-0.0415676012635231
-0.0412889048457145
-0.0406801141798496
-0.0395928658545017
-0.0379870198667049
-0.0359323099255561
-0.033587459474802
-0.0311659984290599
-0.0288979485630989
-0.0269928202033042
-0.0256110969930887
-0.0248497743159532
-0.0247378535568714
-0.0252352356910705
-0.0262387879192829
-0.0276038665324449
-0.0291813258081674
-0.0308584161102771
-0.0325837358832359
-0.034364640712738
-0.0362474247813224
-0.0382946878671646
-0.0405591242015361
-0.0430519618093967
-0.0457160100340843
-0.0484154000878334
-0.0509500056505203
-0.0530890151858329
-0.0546026825904846
-0.0552855692803859
-0.0549819469451904
-0.0536101311445236
-0.0511741861701011
-0.0477601252496242
-0.0435201302170753
-0.0386529564857482
-0.0333841107785701
-0.0279423557221889
-0.022536601871252
-0.0173448100686073
-0.0125156342983245
-0.0081680146977305
-0.0043797018006443
-0.0011756750755012
0.001470249146223
0.0036239773035049
0.0053799981251358
0.0068503469228744
0.0081485966220498
0.0093755517154932
0.0106136295944452
0.0119237843900918
0.0133439432829618
0.0148929469287395
0.0165755525231361
0.0183827951550483
0.0202875267714262
0.0222447328269481
0.0242038667201995
0.0261222496628761
0.027967594563961
0.0297096706926822
0.0313064977526664
0.0326934456825256
0.0337818935513496
0.0344666726887226
0.0346361733973026
0.0341834686696529
0.033023115247488
0.0311123803257942
0.0284694693982601
0.0251843426376581
0.0214174222201108
0.0173863265663385
0.0133491018787026
0.0095846038311719
0.0063637690618634
0.0039137951098382
0.0023890240117907
0.001859355950728
0.0023101556580513
0.0036459271796047
0.005699869710952
0.008252085186541
0.0110567677766084
0.0138730350881814
0.0164889805018901
0.0187338571995496
0.0204830486327409
0.0216648131608963
0.0222678799182176
0.0223382003605365
0.0219612494111061
0.0212426483631134
0.0203012321144342
0.0192652437835931
0.0182561930269002
0.0173711068928241
0.0166744999587535
0.0161947440356016
0.0159250907599926
0.0158297326415777
0.0158496797084808
0.015909943729639
0.0159306619316339
0.0158409625291824
0.0155928982421755
0.0151702361181378
0.0145850870758295
0.0138615854084491
0.013021096587181
0.0120810475200414
0.0110574215650558
0.0099584553390741
0.0087712816894054
0.0074501819908618
0.0059161521494388
0.0040702447295188
0.0018145069479942
-0.0009238943457603
-0.004169525578618
-0.0078819599002599
-0.0119500514119863
-0.0162002518773078
-0.020414724946022
-0.0243530683219432
-0.0277777425944805
-0.0304823592305183
-0.0323141776025295
-0.0331880860030651
-0.0330992527306079
-0.0321292765438556
-0.0304348152130842
-0.0282214656472206
-0.0257124695926904
-0.0231246817857027
-0.0206565223634243
-0.0184763725847005
-0.0167053863406181
-0.0154039980843663
-0.0145699894055724
-0.0141477212309837
-0.0140445213764905
-0.0141467554494738
-0.0143320923671126
-0.0144831286743283
-0.0145026473328471
-0.0143252871930599
-0.0139242596924304
-0.0133094228804111
-0.0125149507075548
-0.0115864602848887
-0.0105742504820227
-0.0095281945541501
-0.0084907971322536
-0.0074912486597895
-0.0065449448302388
-0.0056602153927087
-0.0048487111926078
-0.0041295811533927
-0.0035205781459808
-0.0030244998633861
-0.0026264823973178
-0.0023034829646348
-0.0020346334204077
-0.0018100356683135
-0.0016435422003269
-0.0015843026340007
-0.0017142817378044
-0.0021304590627551
-0.0029220022261142
-0.0041500604711472
-0.0058312807232141
-0.0079257590696215
-0.010334369726479
-0.0129066314548254
-0.0154510829597711
-0.0177499558776617
-0.0195890590548515
-0.0207935571670532
-0.0212518870830535
-0.0209265016019344
-0.0198523420840501
-0.0181209314614534
-0.0158593840897083
-0.0132178710773587
-0.0103632612153887
-0.0074675218202173
-0.0046916827559471
-0.0021710647270083
-9.504146873950958e-07
0.0017714430578052
0.0031442050822079
0.0041549103334546
0.0048696408048272
0.0053646056912839
0.0057168798521161
0.0060066985897719
0.0063129002228379
0.0066990656778216
0.0072043947875499
0.0078455302864313
0.0086228670552372
0.0095232492312788
0.0105183515697717
0.011564421467483
0.0126100210472941
0.0136079899966716
0.0145210539922118
0.0153239667415618
0.0160080902278423
0.016581654548645
0.0170622039586305
0.0174663159996271
0.0178000889718532
0.0180532038211822
0.0181957576423883
0.0181739181280136
0.0179109051823616
0.0173217579722404
0.0163347907364368
0.0149067696183919
0.0130300866439938
0.010739816352725
0.0081213368102908
0.0053097107447683
0.0024776579812169
-0.0001832423731684
-0.0024852827191352
-0.0042675575241446
-0.0054121762514114
-0.0058545600622892
-0.0055909119546413
-0.0046784318983554
-0.0032255323603749
-0.0013772137463092
0.0006975028663873
0.0028158882632851
0.004797838628292
0.0064925593324005
0.0078019332140684
0.0086866188794374
0.009160416200757
0.0092793256044387
0.009124887175858
0.0087868981063365
0.0083536384627223
0.0079104229807853
0.0075373640283942
0.0073002888821065
0.0072407275438308
0.0073721553198993
0.0076821940019726
0.0081357033923268
0.0086789820343256
0.0092505924403667
0.009796630591154
0.0102816987782716
0.0106898611411452
0.0110167330130934
0.0112589430063962
0.0114089520648121
0.011461229994893
0.0114215882495045
0.011303543113172
0.0111162438988685
0.0108587443828582
0.0105173289775848
0.0100590363144874
0.0094259204342961
0.0085378931835293
0.0073070535436272
0.005656648427248
0.0035403287038207
0.0009623544756323
-0.0020121671259403
-0.0052626403048634
-0.0086210099980235
-0.0118814911693334
-0.0148270148783922
-0.017267633229494
-0.0190638732165098
-0.0201276838779449
-0.0204210132360458
-0.019960319623351
-0.0188161171972751
-0.0171034485101699
-0.0149701600894331
-0.0125855971127748
-0.0101272100582718
-0.0077658738009631
-0.0056499168276786
-0.0038863997906446
-0.0025278758257627
-0.0015753121115267
-0.0009908485226333
-0.0007079918868839
-0.0006401138380169
-0.000691242981702
-0.0007666377350687
-0.0007822415791451
-0.0006743287667632
-0.0004058857448399
3.544660285115242e-05
0.00064561329782
0.0014095755759626
0.0022991811856627
0.0032713639084249
0.0042753308080136
0.0052615860477089
0.0061861383728682
0.0070144054479897
0.0077246567234396
0.0083097703754901
0.0087766870856285
0.0091393310576677
0.0094089079648256
0.0095889223739504
0.0096743982285261
0.0096506010740995
0.0094875413924455
0.0091322641819715
0.0085073783993721
0.0075212526135146
0.0060864542610943
0.0041394233703613
0.0016555339097976
-0.0013386853970587
-0.0047511607408523
-0.0084186065942049
-0.0121229905635118
-0.0156200025230646
-0.0186666268855333
-0.0210487116128206
-0.0226057935506105
-0.0232479441910982
-0.0229618195444345
-0.0218037627637386
-0.0198876708745956
-0.0173757448792457
-0.0144697707146406
-0.011397298425436
-0.0083884559571743
-0.0056464755907654
-0.0033210343681275
-0.0014933785423636
-0.0001772833056747
0.0006703780964016
0.0011346791870892
0.0013238983228802
0.0013539944775402
0.0013414388522505
0.0013977400958538
0.0016200426034629
0.0020806449465453
0.0028163651004433
0.0038204072043299
0.0050462973304092
0.006422406528145
0.0078647304326295
0.0092874150723218
0.0106155630201101
0.0117937317118048
0.0127859069034457
0.0135730113834142
0.0141507629305124
0.0145262107253074
0.0147154182195663
0.0147447157651185
0.0146506819874048
0.0144719900563359
0.0142372595146298
0.013959439471364
0.0136341778561472
0.0132342567667365
0.0127023383975029
0.0119490781798958
0.0108629940077662
0.0093299420550465
0.0072532091289758
0.0045728953555226
0.0012879469431936
-0.0025218301452696
-0.0066849696449935
-0.0109501257538795
-0.0150185702368617
-0.0185845680534839
-0.0213754512369632
-0.0231881570070981
-0.0239129811525344
-0.0235409326851367
-0.0221599452197551
-0.0199398826807737
-0.0171068105846643
-0.0139112491160631
-0.0105991959571838
-0.0073937908746302
-0.0044816131703555
-0.0019990713335573
-2.6296591386199e-05
0.0014091172488406
0.0023275497369468
0.0027961623854935
0.0029237917624413
0.0028481599874794
0.0027169256936758
0.0026639392599463
0.0027897113468497
0.0031546342652291
0.00377948442474
0.004648279864341
0.0057166973128914
0.0069228457286953
0.0081951916217803
0.00945963896811
0.0106458161026239
0.0116917695850133
0.0125500699505209
0.013193717226386
0.0136171001940965
0.0138331465423107
0.0138697242364287
0.013764776289463
0.0135585069656372
0.0132834641262888
0.0129578877240419
0.0125837922096252
0.0121443234384059
0.011596443131566
0.0108617562800645
0.0098276417702436
0.0083666006103158
0.0063654910773038
0.0037554050795733
0.0005369423888623
-0.0032080900855362
-0.0073208082467317
-0.0115795023739337
-0.0157203823328018
-0.0194616112858057
-0.0225317850708961
-0.0247037280350923
-0.0258238613605499
-0.0258299075067043
-0.0247561279684305
-0.0227264687418937
-0.0199405755847692
-0.0166508294641971
-0.0131279593333601
-0.0096304547041654
-0.006386921275407
-0.003583108074963
-0.0013508122647181
0.0002386614214628
0.0011781260836869
0.001526775304228
0.0014063232811167
0.0009850163478404
0.0004506147233769
-2.0656967535614967e-05
-0.0002892577322199
-0.0002663035411387
8.305278606712818e-05
0.0007496065227314
0.0016995131736621
0.0028856222052127
0.0042453031055629
0.0056993630714714
0.0071591567248106
0.0085359374061226
0.0097509333863854
0.0107458308339118
0.0114856967702507
0.0119546670466661
0.0121571999043226
0.0121234599500894
0.0119055304676294
0.0115629425272345
0.0111453598365187
0.0106841120868921
0.0101963095366954
0.0096845524385571
0.0091214161366224
0.0084346886724233
0.0075116725638508
0.0062213246710598
0.0044417819008231
0.0020867744460701
-0.0008690832182765
-0.0043691745959222
-0.008265258744359
-0.0123276356607675
-0.0162777546793222
-0.0198308583348989
-0.0227287616580724
-0.0247583463788032
-0.0257676914334297
-0.0256858076900243
-0.024538030847907
-0.0224447771906852
-0.0196024905890226
-0.016259191557765
-0.0126880528405308
-0.0091552697122097
-0.0058930022642016
-0.003083995077759
-0.0008508525788784
0.0007490237476304
0.0017228802898898
0.0021415902301669
0.0021312958560884
0.001851323293522
0.0014681427273899
0.0011361361248418
0.0009822086431086
0.0010907812975347
0.0014958624960854
0.0021856785751879
0.0031168297864496
0.0042290980927646
0.0054546073079109
0.0067225517705082
0.0079634403809905
0.0091167213395237
0.01013776473701
0.0109959356486797
0.0116699682548642
0.0121496422216296
0.0124389696866273
0.0125550739467144
0.0125238168984651
0.0123753705993294
0.0121403066441416
0.0118447840213775
0.0115049351006746
0.0111167300492525
0.0106398500502109
0.0099906381219625
0.0090562663972377
0.0077194571495056
0.0058804396539926
0.0034770644269883
0.0005068751052021
-0.0029543179553002
-0.0067473743110895
-0.0106440391391515
-0.0143773015588521
-0.0176756102591753
-0.0202913302928209
-0.0220248475670814
-0.0227467361837625
-0.0224136728793382
-0.0210740845650434
-0.0188629943877458
-0.0159851592034101
-0.0126902116462588
-0.0092478385195136
-0.0059221838600933
-0.0029408151749521
-0.0004664394655264
0.0014159802813082
0.0026946351863443
0.003416292136535
0.0036720915231853
0.0035844366066157
0.0032930066809058
0.0029447830747812
0.0026826024986803
0.0026230223011225
0.0028331659268587
0.0033254197333008
0.0040720766410231
0.0050228456966578
0.0061148591339588
0.0072805392555892
0.0084548909217119
0.0095772631466388
0.0105908820405602
0.011446276679635
0.0121051287278532
0.0125413294881582
0.0127446614205837
0.0127262705937027
0.0125149153172969
0.0121457986533641
0.0116574577987194
0.0110927717760205
0.0104839401319623
0.0098269321024417
0.0090693496167659
0.0081190979108214
0.0068663153797388
0.0052077546715736
0.0030672554858028
0.0004156087525188
-0.0027102602180093
-0.0061985859647393
-0.009869311004877
-0.0134917749091982
-0.0168093107640743
-0.0195696949958801
-0.0215605348348617
-0.0226393900811672
-0.0227446407079696
-0.0218918435275554
-0.020171083509922
-0.0177425239235162
-0.0148186972364783
-0.0116377249360084
-0.0084365885704755
-0.0054268524982035
-0.0027779978699982
-0.0006093477131798
0.0010168504668399
0.0020971444901078
0.0026768003590404
0.0028376972768455
0.0026910034939646
0.002369393594563
0.0020127405878156
0.001747119706124
0.0016682699788361
0.0018374070059508
0.0022824583575129
0.0029997685924172
0.0039591258391737
0.0051091858185827
0.0063779037445783
0.0076750610023736
0.0089050205424427
0.0099849114194512
0.0108596552163362
0.0115046268329024
0.0119164586067199
0.0121059287339448
0.0120939267799258
0.0119054028764367
0.0115681439638137
0.0111155593767762
0.0105844223871827
0.010006858035922
0.009398846887052
0.0087474090978503
0.0080042956396937
0.0070922155864536
0.0059184697456657
0.0043885363265872
0.0024214251898229
-2.788938581943512e-05
-0.0029435034375637
-0.006232863292098
-0.0097270617261528
-0.0131981978192925
-0.0163908693939447
-0.0190589427947998
-0.0209983102977275
-0.0220711138099432
-0.0222171936184167
-0.0214521493762731
-0.0198600087314844
-0.0175848416984081
-0.0148183265700936
-0.0117819551378488
-0.0087040560320019
-0.0057932906784117
-0.0032181721180677
-0.0011002751998603
0.0004878492909483
0.0015286277048289
0.0020641321316361
0.0021919780410826
0.0020493078045547
0.0017893844051286
0.0015584726352244
0.0014771308051422
0.0016290257917717
0.0020556882955133
0.0027527762576937
0.0036729068960994
0.0047419285401701
0.0058803893625736
0.0070166811347007
0.0080901430919766
0.0090510128065943
0.0098626855760812
0.0105048539116978
0.0109730903059244
0.0112751135602593
0.0114262802526354
0.0114448387175798
0.0113481106236577
0.0111502334475517
0.0108588188886642
0.0104719903320074
0.0099803702905774
0.0093726431950926
0.0086383474990725
0.007760458625853
0.0067018223926424
0.005401263013482
0.0037828071508556
0.0017721701879054
-0.0006780605763196
-0.003557470627129
-0.0067767659202218
-0.0101726502180099
-0.0135364821180701
-0.0166463777422904
-0.0192907229065895
-0.0212862007319927
-0.0224914345890283
-0.0228176563978195
-0.022241661325097
-0.0208175126463174
-0.0186783429235219
-0.0160221718251705
-0.0130820358172059
-0.010094997473061
-0.0072784293442964
-0.0048074899241328
-0.0027970485389232
-0.0012934925034642
-0.0002764782402664
0.0003268481232225
0.0006214836612343
0.0007277806289494
0.0007645888254046
0.000831389799714
0.0010033487342298
0.0013394230045378
0.0018841449636965
0.0026592358481138
0.0036546485498547
0.0048249270766973
0.0060969884507358
0.0073860799893736
0.0086101032793521
0.0097019635140895
0.0106192715466022
0.0113453166559338
0.0118838492780923
0.0122555010020732
0.0124937575310468
0.0126340510323643
0.0126976436004042
0.0126789221540093
0.0125440321862697
0.0122381811961531
0.0116918161511421
0.0108263827860355
0.0095689138397574
0.00787337962538
0.0057376883924007
0.0032126461155712
0.000403955229558
-0.0025348509661853
-0.0054195607081055
-0.0080555276945233
-0.0102550704032182
-0.0118571743369102
-0.0127504570409655
-0.012889171950519
-0.01229530852288
-0.0110502820461988
-0.0092845484614372
-0.0071644615381956
-0.0048725316300988
-0.0025881454348564
-0.0004716617986559
0.0013520617503672
0.0028054541908204
0.0038608296308666
0.0045366692356765
0.0048849643208086
0.0049732141196727
0.0048782140947878
0.0046884501352906
0.0044950218871235
0.0043729594908654
0.0043686903081834
0.004498329013586
0.0047523863613605
0.005105354823172
0.0055292900651693
0.0060005648992955
0.0064933793619275
0.0069743520580232
0.0074097430333495
0.0077762184664607
0.0080640371888875
0.0082724131643772
0.0084015997126698
0.0084459511563181
0.0083891386166214
0.0081988852471113
0.0078242290765047
0.0072005735710263
0.0062576122581958
0.0049281874671578
0.0031645197886973
0.0009566531516611
-0.0016596766654402
-0.004603671375662
-0.00774942105636
-0.0109280832111835
-0.0139394029974937
-0.0165734235197305
-0.0186377074569463
-0.0199818275868892
-0.0205144695937633
-0.0202105455100536
-0.0191078968346118
-0.0173021703958511
-0.0149420984089374
-0.0122156860306859
-0.0093284249305725
-0.0064841415733098
-0.003868696745485
-0.001629231730476
0.0001462921500205
0.0014348507393151
0.0022687916643917
0.0027224537916481
0.0028987519908696
0.002913118340075
0.0028778829146176
0.0028926513623446
0.0030382091645151
0.0033686386886984
0.0039041573181748
0.0046311193145811
0.0055120987817645
0.0065013207495212
0.0075536631047725
0.0086225420236587
0.0096559338271617
0.0105992211028933
0.0114027913659811
0.0120278121903538
0.0124490922316908
0.0126587310805916
0.0126687632873654
0.0125064551830291
0.0122007355093956
0.0117633668705821
0.0111730983480811
0.0103726256638765
0.0092792008072137
0.0078030042350292
0.005870159715414
0.0034451847895979
0.0005455273203551
-0.0027521883603185
-0.0063124326989054
-0.009948132559657
-0.0134354010224342
-0.0165358521044254
-0.019023248925805
-0.0207105502486228
-0.0214757155627012
-0.0212793089449405
-0.0201656352728605
-0.0182504262775182
-0.0157047994434833
-0.0127384345978498
-0.0095820846036076
-0.0064705312252044
-0.0036214445717632
-0.0012103392509743
0.0006496857968159
0.0019217991502955
0.0026490180753171
0.0029369636904448
0.0029222099110484
0.0027450560592114
0.0025331678334623
0.0023921891115605
0.0024029477499425
0.0026211575604975
0.0030703346710652
0.0037348100449889
0.0045673563145101
0.0055061392486095
0.0064872959628701
0.0074523692019283
0.0083526214584708
0.0091477343812584
0.0098026664927601
0.0102902650833129
0.0105996802449226
0.0107394745573401
0.010728015564382
0.0105820847675204
0.0103110112249851
0.0099074654281139
0.0093352878466248
0.0085275499150156
0.0073997224681079
0.0058716027997434
0.0038899667561054
0.0014465507119894
-0.0014099120162427
-0.0045703072100877
-0.0078765973448753
-0.0111419381573796
-0.0141649907454848
-0.0167399458587169
-0.0186732094734907
-0.0198088437318801
-0.0200555995106697
-0.0194049086421728
-0.0179320964962244
-0.0157817229628562
-0.0131455026566982
-0.0102396355941891
-0.0072837364859879
-0.0044812834821641
-0.0020021598320454
2.988002961501479e-05
0.0015447852201759
0.0025307408068329
0.0030334610491991
0.0031456635333597
0.0029889135621488
0.0026960184331983
0.0023957814555615
0.0021992472466081
0.0021898332051932
0.0024174873251467
0.0028963934164494
0.0036079187411814
0.0045083751901984
0.005534925032407
0.006608581636101
0.0076445923186838
0.0085673136636614
0.0093172686174511
0.0098559875041246
0.0101739205420017
0.0102908946573734
0.0102458205074071
0.0100837275385856
0.0098463855683803
0.0095663107931613
0.0092607187107205
0.0089226476848125
0.0085076577961444
0.0079276580363512
0.0070657753385603
0.0058042551390826
0.0040552872233092
0.0017882995307445
-0.0009591616690158
-0.0040821870788931
-0.0074112671427428
-0.0107272006571292
-0.0137913879007101
-0.0163787528872489
-0.0183022040873765
-0.0194294359534978
-0.0196969434618949
-0.019115200266242
-0.0177624113857746
-0.0157728418707847
-0.0133213065564632
-0.0106063811108469
-0.0078341299667954
-0.0051995008252561
-0.0028688595630228
-0.0009683203534223
0.0004267512704245
0.001302636694163
0.0017096588853746
0.0017491581384092
0.0015517136780545
0.0012591299600899
0.0010088228154927
0.000913594441954
0.001046891324222
0.0014429362490773
0.0021006632596254
0.0029859088826924
0.0040402426384389
0.0051929256878793
0.0063678785227239
0.0074916305020451
0.008504893630743
0.0093670254573225
0.0100495368242263
0.0105291036888957
0.0107876285910606
0.0108170183375477
0.0106256315484642
0.0102435257285833
0.009721640497446
0.0091229146346449
0.0085076112300157
0.007914351299405
0.0073390062898397
0.0067226565442979
0.0059607299044728
0.0049323765560984
0.003536264412105
0.001715984661132
-0.0005290242843329
-0.0031408905051648
-0.0060066459700465
-0.0089679341763257
-0.0118381539359688
-0.01442417409271
-0.0165446363389492
-0.018044551834464
-0.0188112761825323
-0.0187884047627449
-0.0179829839617013
-0.0164687521755695
-0.0143826585263013
-0.011907460168004
-0.0092466454952955
-0.0066020456142723
-0.0041542337276041
-0.0020455440972
-0.0003688505385071
0.0008367681875824
0.0015848143957555
0.0019376503769308
0.0019985283724963
0.0018957739230245
0.0017624713946133
0.0017161115538328
0.0018422099528834
0.0021875156089663
0.0027620194014161
0.0035436844918876
0.0044835726730525
0.005512211471796
0.0065490235574543
0.0075155911035835
0.0083514172583818
0.0090289721265435
0.0095559563487768
0.0099564539268612
0.0102466559037566
0.0104264356195926
0.010488785803318
0.0104336999356746
0.0102738849818706
0.0100300023332238
0.0097188055515289
0.0093395989388227
0.0088647240772843
0.0082356557250022
0.0073672323487699
0.0061618033796548
0.0045328955166041
0.0024367382284253
-0.0001050524879246
-0.0030037632677704
-0.006110168993473
-0.0092266285791993
-0.0121310465037822
-0.0146026294678449
-0.0164463520050048
-0.0175195094197988
-0.0177498646080493
-0.0171404089778661
-0.0157665386795997
-0.013768495991826
-0.0113396774977445
-0.0087052350863814
-0.0060901381075382
-0.0036909079644829
-0.0016568817663937
-7.786700734868646e-05
0.0010180594399571
0.0016570554580539
0.0019092948641628
0.0018778434023261
0.0016842293553054
0.0014508559834212
0.0012834626249969
0.0012583795469254
0.0014188525965437
0.0017781640635803
0.002324413973838
0.0030253096483647
0.0038328203372657
0.0046896860003471
0.0055385511368513
0.0063316482119262
0.0070372251793742
0.0076370029710233
0.0081167910248041
0.0084621263667941
0.0086659016087651
0.0087387729436159
0.0087073761969804
0.0086013115942478
0.008443284779787
0.0082471650093793
0.0080169290304183
0.007746691815555
0.0074266474694013
0.0070491065271198
0.0066070239990949
0.0060858596116304
0.0054516177624464
0.0046445420011878
0.0035904515534639
0.0022197696380317
0.0004798797890543
-0.0016528703272342
-0.0041572316549718
-0.0069549987092614
-0.0099099203944206
-0.0128408689051866
-0.0155465435236692
-0.0178339555859565
-0.0195425823330879
-0.020558413118124
-0.0208205226808786
-0.020327903330326
-0.0191418230533599
-0.0173750892281532
-0.0151760997250676
-0.0127152549102902
-0.0101702818647027
-0.0077112726867198
-0.0054880785755813
-0.0036163639742881
-0.0021620169281959
-0.0011335718445479
-0.0004893734585493
-0.0001534102484583
-3.008404746651649e-05
-1.5502329915761948e-05
-7.632188498973846e-06
8.454825729131699e-05
0.0003320057876408
0.0007764534093439
0.0014278986491262
0.0022714673541486
0.003273740876466
0.00438515515998
0.0055477637797594
0.0067072249948978
0.0078160064294934
0.0088306469842791
0.0097154360264539
0.0104495994746685
0.0110291140154004
0.0114604588598012
0.0117507930845022
0.011904745362699
0.0119285285472869
0.0118327010422945
0.0116332024335861
0.0113542228937149
0.0110264755785465
0.0106774866580963
0.0103246048092842
0.0099715292453765
0.0095982886850833
0.0091515202075243
0.0085455374792218
0.0076723494566977
0.0064220004715025
0.0047112414613366
0.0025064616929739
-0.0001638808462303
-0.0032031608279794
-0.0064539774321019
-0.0097232405096292
-0.0128096854314208
-0.0155222713947296
-0.0176931787282228
-0.019187381491065
-0.0199113506823778
-0.0198248904198408
-0.0189479645341634
-0.017357287928462
-0.0151814501732587
-0.0125943627208471
-0.0097973737865686
-0.0069949603639543
-0.0043739303946495
-0.0020843097008764
-0.0002239062450826
0.0011663022451102
0.0020996103994548
0.0026373367290943
0.0028756987303495
0.0029292055405676
0.0029160361737012
0.0029441609513014
0.003097029402852
0.0034238004591315
0.0039373701438307
0.0046180882491171
0.0054250564426183
0.0063129034824669
0.0072421785444021
0.0081789679825305
0.0090898908674716
0.0099411727860569
0.0107035599648952
0.0113545022904872
0.0118763893842697
0.0122562488541007
0.0124868433922529
0.0125702153891325
0.0125209959223866
0.0123600205406546
0.0121029280126094
0.0117603400722146
0.0113478396087884
0.0108885392546653
0.0104055814445018
0.0099169369786977
