bvp
0.0158420000225305
0.0154279069975018
0.0144562646746635
0.0128114195540547
0.010406563989818
0.0072200214490294
0.0033284709788858
-0.0010826976504176
-0.0057375961914658
-0.010305487550795
-0.0144430976361036
-0.0178372133523225
-0.0202412512153387
-0.0215003155171871
-0.0215604808181524
-0.0204650796949863
-0.0183448977768421
-0.0154023841023445
-0.0118901832029223
-0.0080870818346738
-0.0042703505605459
-0.0006882129237055
0.0024587251245975
0.0050259595736861
0.0069308946840465
0.0081608900800347
0.0087744817137718
0.0088869174942374
0.0086474921554327
0.008219520561397
0.0077641755342483
0.0074236243963241
0.0073052858933806
0.0074750473722815
0.0079589607194066
0.0087446104735136
0.0097812414169311
0.0109880659729242
0.012272766791284
0.0135483825579285
0.0147394984960556
0.0157824419438838
0.0166281070560216
0.0172496885061264
0.0176492370665073
0.017853045836091
0.0178967379033565
0.0178109891712665
0.0176126584410667
0.0172979272902011
0.0168318953365087
0.0161379110068082
0.0150998644530773
0.0135829113423824
0.0114643489941954
0.0086625069379806
0.005158195272088
0.0010118465870618
-0.0036256683524698
-0.0085196215659379
-0.0133757498115301
-0.0178715121001005
-0.0216920841485261
-0.0245707519352436
-0.0263233054429292
-0.0268664378672838
-0.0262200254946947
-0.0244996100664138
-0.0218977946788072
-0.018650583922863
-0.0150049161165952
-0.0112015306949615
-0.0074630575254559
-0.003980416804552
-0.0008995849639177
0.001690977718681
0.0037642505485564
0.0053438171744346
0.0064895800314843
0.0072912885807454
0.0078655295073986
0.0083466153591871
0.0088685844093561
0.009544301778078
0.0104504516348242
0.0116227325052022
0.0130596049129962
0.0147288516163825
0.0165739599615335
0.0185217875987291
0.0204891972243785
0.02238704636693
0.0241270866245031
0.0256335288286209
0.0268529187887907
0.0277577377855777
0.0283451601862907
0.0286336541175842
0.0286546684801578
0.0284335166215896
0.0279658716171979
0.0272048581391572
0.0260604284703731
0.0244076177477836
0.0221094172447919
0.0190539583563804
0.0151903769001364
0.0105495806783437
0.0052508329972624
-0.0005027297884225
-0.0064412401989102
-0.0122554125264287
-0.0176300536841154
-0.0222790203988552
-0.0259727984666824
-0.0285573825240135
-0.0299675539135932
-0.0302307903766632
-0.029461096972227
-0.0278448835015296
-0.0256176367402076
-0.0230366252362728
-0.0203582700341939
-0.017819844186306
-0.0156209608539938
-0.0139073282480239
-0.0127628110349178
-0.0122075118124485
-0.0121972383931279
-0.0126280300319194
-0.0133524555712938
-0.0142051577568054
-0.0150252832099795
-0.0156696233898401
-0.016021478921175
-0.0160001367330551
-0.0155680961906909
-0.0147308371961116
-0.0135324252769351
-0.0120516875758767
-0.0103936661034822
-0.0086711654439568
-0.0069841742515563
-0.0054079596884548
-0.0039882259443402
-0.0027387011796236
-0.0016465652734041
-0.000689985230565
0.00013929605484
0.0008169719949364
0.0012739952653646
0.0013953112065792
0.0010350933298468
5.007348954677582e-05
-0.00165540818125
-0.0040913517586886
-0.0071682771667838
-0.0107050156220793
-0.0144504215568304
-0.0181169267743825
-0.0214169807732105
-0.0240916665643453
-0.0259280782192945
-0.0267723370343446
-0.026548720896244
-0.0252756457775831
-0.023063676431775
-0.0201014354825019
-0.0166351255029439
-0.0129385264590382
-0.0092799924314022
-0.005894168280065
-0.0029596141539514
-0.0005885679274797
0.0011693043634295
0.002322596963495
0.0029404684901237
0.0031497306190431
0.0031164125539362
0.0030179149471223
0.0030169864185154
0.0032435450702905
0.0037852488458156
0.0046835648827254
0.0059338933788239
0.0074910395778715
0.0092803351581096
0.0112110106274485
0.0131869902834296
0.0151173714548349
0.0169267859309911
0.0185583066195249
0.0199688710272312
0.021123930811882
0.0219901055097579
0.0225193239748477
0.0226331986486911
0.0222255289554595
0.0211817361414432
0.0194036550819873
0.0168373323976993
0.0134994415566325
0.0094934310764074
0.0050129508599638
0.000331686809659
-0.004224581643939
-0.0083216587081551
-0.0116610759869217
-0.0140129821375012
-0.0152382655069231
-0.0152970701456069
-0.014243577606976
-0.0122144315391778
-0.009411453269422
-0.0060808192938566
-0.0024938341230154
0.0010767569765448
0.0043860441073775
0.0072404192760586
0.0095116961747407
0.0111427083611488
0.0121434591710567
0.0125814992934465
0.0125675946474075
0.0122383031994104
0.0117413196712732
0.0112216565757989
0.010807666927576
0.0106029035523533
0.010681988671422
0.0110857421532273
0.0118169281631708
0.012840730138123
0.0140926484018564
0.015488427132368
0.0169335193932056
0.0183372925966978
0.0196248106658458
0.0207380875945091
0.0216358434408903
0.0222952999174594
0.0227027498185634
0.0228274632245302
0.022596200928092
0.0218893513083457
0.0205636918544769
0.0184908937662839
0.0155951883643865
0.0118816746398806
0.007454945705831
0.0025230762548744
-0.0026206506881862
-0.0076366504654288
-0.0121860522776842
-0.0159725937992334
-0.0187739450484514
-0.0204603169113397
-0.0209986120462417
-0.0204454585909843
-0.0189342591911554
-0.0166586153209209
-0.0138542670756578
-0.0107789449393749
-0.0076886741444468
-0.0048149083741009
-0.0023454171605408
-0.0004086304397787
0.0009350331965833
0.0016926462994888
0.0019294676603749
0.0017518706154078
0.0012883055023849
0.0006756021175533
4.984124097973108e-05
-0.0004670586204156
-0.0007833301206119
-0.0008418849902227
-0.0006160605698823
-0.0001097372733056
0.0006430076900869
0.0015859524719417
0.0026506993453949
0.0037657257635146
0.0048657767474651
0.0058969627134501
0.0068141110241413
0.0075735682621598
0.0081242378801107
0.0083982702344655
0.0083051640540361
0.0077331913635134
0.0065610716119408
0.0046818917617201
0.0020367447286844
-0.00135129224509
-0.0053566149435937
-0.0097563108429312
-0.0142604354768991
-0.0185516215860843
-0.0223202742636203
-0.0252940654754638
-0.02726368047297
-0.0281008034944534
-0.0277671460062265
-0.0263177044689655
-0.0238934457302093
-0.0207008607685565
-0.0169873759150505
-0.0130189349874854
-0.0090577704831957
-0.0053403070196509
-0.00206177867949
0.0006301107350736
0.0026412983424961
0.0039421413093805
0.0045736543834209
0.0046403156593441
0.004293005913496
0.0037077369634062
0.0030617869924753
0.0025121141225099
0.0021816836670041
0.0021542196627706
0.0024729748256504
0.0031406448688358
0.0041228551417589
0.0053543727844953
0.0067446576431393
0.0081857247278094
0.0095661832019686
0.0107887517660856
0.0117832608520984
0.0125091392546892
0.0129479244351387
0.0130864381790161
0.0128940185531973
0.0123054087162017
0.0112220142036676
0.0095353554934263
0.0071605322882533
0.0040672356262803
0.0003057462163269
-0.0039812922477722
-0.0085691763088107
-0.0131767094135284
-0.0174975842237472
-0.0212323628365993
-0.0241205710917711
-0.0259693711996078
-0.0266689714044332
-0.0261959210038185
-0.0246115289628505
-0.0220550633966922
-0.0187327340245246
-0.0149013940244913
-0.0108402259647846
-0.0068147927522659
-0.0030487093608826
0.0002924918953794
0.0031089899130165
0.0053640129044651
0.0070717502385377
0.0082846283912658
0.0090835038572549
0.0095670083537697
0.0098403077572584
0.0100043630227446
0.0101466281339526
0.0103366188704967
0.0106234373524785
0.0110338702797889
0.0115727446973323
0.0122233424335718
0.0129528837278485
0.0137233100831508
0.0144950803369283
0.0152241140604019
0.015862176194787
0.0163621753454208
0.0166840031743049
0.0167982503771781
0.0166850499808788
0.0163254421204328
0.0156880747526884
0.0147155672311782
0.0133171696215868
0.0113807190209627
0.0088035995140671
0.0055249389261007
0.0015495093539357
-0.0030344342812895
-0.0080459294840693
-0.0132211316376924
-0.018246442079544
-0.0228032115846872
-0.0266071427613496
-0.0294357296079397
-0.0311453975737094
-0.0316788628697395
-0.0310654770582914
-0.0294190272688865
-0.0269258134067058
-0.0238177627325058
-0.0203439015895128
-0.0167495310306549
-0.0132575258612632
-0.0100515447556972
-0.0072667598724365
-0.0049848644994199
-0.0032303871121257
-0.0019729458726942
-0.0011356341419741
-0.0006071953102946
-0.0002580002183094
4.387996159493923e-05
0.0004183931741863
0.0009580532787367
0.0017149810446426
0.0026991155464202
0.0038859734777361
0.0052259676158428
0.0066537521779537
0.0080978078767657
0.0094900056719779
0.0107751432806253
0.0119148017838597
0.0128846485167741
0.0136734656989574
0.0142836896702647
0.0147294998168945
0.0150344483554363
0.0152255315333604
0.015319000929594
0.015301764011383
0.015117815695703
0.0146670751273632
0.0138155575841665
0.0124156922101974
0.0103408331051468
0.0075267916545271
0.0040031392127275
-9.53851267695427e-05
-0.0045398427173495
-0.0090367700904607
-0.0132680023089051
-0.0169341620057821
-0.0197911914438009
-0.0216694418340921
-0.0224793180823326
-0.0222113523632287
-0.0209331698715686
-0.0187851972877979
-0.0159695614129304
-0.0127253793179988
-0.0092979799956083
-0.0059132608585059
-0.0027614273130893
1.233397051692009e-05
0.0023166921455413
0.0041179293766617
0.0054315607994794
0.0063103791326284
0.0068357642740011
0.0071069551631808
0.0072269099764525
0.0072912792675197
0.00738185364753
0.0075598387047648
0.0078608319163322
0.0082976603880524
0.0088684167712926
0.0095601771026849
0.0103461984544992
0.0111862607300281
0.0120356027036905
0.0128535721451044
0.0136061944067478
0.0142661426216363
0.0148117449134588
0.0152263632044196
0.0154993198812007
0.0156240863725543
0.0155859673395752
0.0153399985283613
0.0147978235036134
0.0138385472819209
0.012335930019617
0.0101906526833772
0.0073599843308329
0.0038753640837967
-0.0001533185131847
-0.0045430031605064
-0.0090527404099702
-0.0134073616936802
-0.0173260699957609
-0.0205540768802166
-0.0228900741785764
-0.0242023132741451
-0.0244389679282903
-0.0236369520425796
-0.0219181273132562
-0.019468318670988
-0.0165124852210283
-0.0132951736450195
-0.0100606773048639
-0.0070281927473843
-0.0043690614402294
-0.0021937398705631
-0.0005506684537976
0.0005634337430819
0.0011911235051229
0.0014093081699684
0.001328362384811
0.0010847843950614
0.0008231874089688
0.000674732029438
0.0007413697894662
0.0010902790818363
0.0017568145412951
0.0027481284923851
0.0040410906076431
0.0055790124461054
0.0072765173390507
0.0090320566669106
0.0107420198619365
0.0123139955103397
0.0136755378916859
0.014776773750782
0.0155913224443793
0.0161137878894805
0.0163441617041826
0.0162625201046466
0.0158123895525932
0.014902701601386
0.0134274754673242
0.0112974606454372
0.0084698554128408
0.0049693654291331
0.0009026231709867
-0.0035394830629229
-0.0080980435013771
-0.0124779138714075
-0.0163843426853418
-0.019555689767003
-0.0217917654663324
-0.0229755658656358
-0.023082060739398
-0.0221737641841173
-0.0203858129680156
-0.0179040879011154
-0.0149451158940792
-0.0117417760193347
-0.0085279326885938
-0.0055177700705826
-0.0028855111449956
-0.0007514619501307
0.0008251832332462
0.0018455327954143
0.0023595066741108
0.0024496882688254
0.0022214520722627
0.0017983255675062
0.001312073552981
0.0008862351533025
0.0006245170952752
0.0006086191860958
0.0008963006548583
0.0015162194613367
0.0024646925739943
0.0037067520897835
0.0051810410805046
0.0068061677739024
0.0084886783733963
0.0101341968402266
0.0116564035415649
0.0129808895289897
0.0140440361574292
0.0147809628397226
0.0151100531220436
0.0149323446676135
0.0141453314572572
0.0126635711640119
0.0104425372555851
0.007497664541006
0.0039151674136519
-0.0001446390524506
-0.0044537610374391
-0.0087340744212269
-0.0126872733235359
-0.0160332806408405
-0.0185443721711635
-0.0200659241527318
-0.02052485011518
-0.0199317913502454
-0.0183800775557756
-0.0160358138382434
-0.0131159555166959
-0.0098636820912361
-0.0065281772986054
-0.0033451048657298
-0.0005160204600542
0.0018085056217387
0.0035386565141379
0.0046492852270603
0.0051779518835246
0.0052129598334431
0.0048736976459622
0.0042937439866364
0.003608941566199
0.0029466128908097
0.0024185450747609
0.0021167716477066
0.0021075848489999
0.0024251595605164
0.0030665674712508
0.0039922608993947
0.0051340786740183
0.0064050122164189
0.0077105062082409
0.008962320163846
0.0100851701572537
0.0110083557665348
0.0116511853411793
0.0119175342842936
0.0117013491690158
0.0108977276831865
0.0094224251806736
0.0072370576672255
0.0043676933273673
0.0009158372413367
-0.0029370852280408
-0.0069421706721186
-0.0108136031776666
-0.0142648499459028
-0.0170404370874166
-0.018941530957818
-0.0198485068976879
-0.019734589383006
-0.0186591241508722
-0.0167473070323467
-0.0141726257279515
-0.0111436555162072
-0.007889867760241
-0.0046457648277282
-0.0016324764583259
0.0009640150237828
0.0030144280754029
0.0044600372202694
0.0053152367472648
0.0056597329676151
0.0056186188012361
0.0053364564664661
0.0049592643044888
0.0046244412660598
0.0044488157145679
0.004513076506555
0.0048507023602724
0.0054498706012964
0.0062660933472216
0.0072360401973128
0.0082879876717925
0.0093491226434707
0.0103506408631801
0.0112329423427581
0.0119485668838024
0.0124567337334156
0.0127105982974171
0.012642353773117
0.0121544823050498
0.0111281173303723
0.0094475336372852
0.0070325783453881
0.0038721435703337
4.810269456356764e-05
-0.0042603793554008
-0.0087946308776736
-0.013247687369585
-0.0172971524298191
-0.0206365976482629
-0.0230060666799545
-0.0242197774350643
-0.024188945069909
-0.0229340512305498
-0.0205792337656021
-0.0173332784324884
-0.0134664140641689
-0.0092844609171152
-0.0051002921536564
-0.0012042713351547
0.0021641843486577
0.0048380438238382
0.0067302975803613
0.0078317588195204
0.0082076340913772
0.00798917748034
0.0073541989549994
0.0065025156363844
0.005633985158056
0.0049270768649876
0.0045179375447332
0.0044867754913866
0.0048537300899624
0.0055845510214567
0.0066081625409424
0.0078395847231149
0.0091954953968524
0.010597538203001
0.0119696399196982
0.0132366344332695
0.0143232140690088
0.0151483099907636
0.0156151177361607
0.0156035916879773
0.0149750560522079
0.0135950203984975
0.011368497274816
0.008273784071207
0.0043840478174388
-0.000127054285258
-0.0049965502694249
-0.0099020916968584
-0.0145053006708621
-0.0184915177524089
-0.0215956140309572
-0.0236207693815231
-0.0244592539966106
-0.0241084061563015
-0.0226667113602161
-0.0203107930719852
-0.0172681882977485
-0.0137926805764436
-0.010141747072339
-0.0065577812492847
-0.0032505362760275
-0.0003769802860915
0.0019724497105926
0.0037701413966715
0.0050382385961711
0.0058368132449686
0.0062534790486097
0.0063979127444326
0.0063968831673264
0.0063779223710298
0.0064483503811061
0.0066842082887887
0.0071301525458693
0.007804281078279
0.0087012508884072
0.0097910799086093
0.0110192960128188
0.0123118720948696
0.0135838650166988
0.0147510953247547
0.0157394036650657
0.0164884384721517
0.016954043880105
0.0171045009046793
0.0169031266123056
0.0162880104035139
0.0151664912700653
0.0134309278801083
0.0109908236190676
0.0078068505972623
0.0039142742753028
-0.0005648164078593
-0.0054199742153286
-0.0103681134060025
-0.0150872580707073
-0.0192570928484201
-0.0225962437689304
-0.0248931031674146
-0.0260256920009851
-0.0259674321860075
-0.0247827507555484
-0.0226149540394544
-0.0196681972593069
-0.0161895621567964
-0.0124515406787395
-0.0087295155972242
-0.0052739935927093
-0.0022842250764369
0.0001079486100934
0.0018399369437247
0.0029125886503607
0.0033862069249153
0.0033761723898351
0.0030390815809369
0.0025480119511485
0.0020664173644036
0.0017307756934314
0.0016409072559326
0.0018545412458479
0.0023876978084445
0.0032208000775426
0.0043091289699077
0.0055922772735357
0.0069990484043955
0.0084534920752048
0.0098809842020273
0.0112083982676267
0.0123657276853919
0.0132969375699758
0.0139734242111444
0.0143984304741024
0.0145980883389711
0.0146059682592749
0.0144479479640722
0.0141265885904431
0.0136045981198549
0.0127948774024844
0.0115683786571025
0.0097790826112031
0.0072992560453712
0.0040625459514558
0.0001008776016533
-0.004444639198482
-0.0093381181359291
-0.0142771918326616
-0.0189314298331737
-0.0229844115674495
-0.0261678043752908
-0.0282816551625728
-0.0292041879147291
-0.028900358825922
-0.0274297464638948
-0.0249418206512928
-0.0216557290405035
-0.0178370401263237
-0.0137773072347044
-0.0097697805613279
-0.006079189479351
-0.0029139274265617
-0.0004069876740686
0.0013926129322499
0.0025134142488241
0.0030430848710238
0.0031125415116548
0.0028855793643742
0.0025422186590731
0.0022544427774846
0.0021668691188097
0.0023882295936346
0.0029871072620153
0.0039855325594544
0.0053548607975244
0.0070233214646577
0.0088928984478116
0.0108547396957874
0.012802381068468
0.0146450409665703
0.0163121689110994
0.0177475269883871
0.0189046114683151
0.0197473149746656
0.020255085080862
0.0204308312386274
0.020300718024373
0.0199049841612577
0.0192906334996223
0.0185063760727643
0.0175943057984113
0.0165747813880443
0.0154258031398057
0.0140718091279268
0.0123938135802745
0.0102538410574197
0.0075269229710102
0.0041386364027857
9.65707004070282e-05
-0.0044951792806386
-0.0094392234459519
-0.0144635057076811
-0.0192514490336179
-0.0234791301190853
-0.0268557015806436
-0.0291606076061725
-0.0302700698375701
-0.0301680378615856
-0.0289423670619726
-0.0267694648355245
-0.023889061063528
-0.0205724686384201
-0.0170904789119958
-0.0136877764016389
-0.0105669386684894
-0.007880525663495
-0.0057271467521786
-0.0041466890834271
-0.0031194384209811
-0.0025731909554451
-0.0023915620986372
-0.0024281730875372
-0.0025329559575766
-0.0025745700113475
-0.0024469373747706
-0.0020702809561043
-0.0013978532515466
-0.0004245744785293
0.0008148466004058
0.0022606851998716
0.0038418297190219
0.0054814117029309
0.0071034980937838
0.0086432332172989
0.0100520178675651
0.0112942811101675
0.0123435780405998
0.0131858279928565
0.013822236098349
0.0142631810158491
0.0145201263949275
0.0146016012877225
0.0145132057368755
0.0142607074230909
0.0138489063829183
0.0132723022252321
0.0125017184764146
0.0114758219569921
0.0101053919643163
0.0082861594855785
0.005917967762798
0.0029350374825298
-0.0006611989811062
-0.0047841840423643
-0.0092628747224807
-0.0138529036194086
-0.0182569790631532
-0.0221540015190839
-0.0252327006310224
-0.0272321067750453
-0.0279822014272212
-0.0274268444627523
-0.0256260205060243
-0.0227459203451871
-0.0190385654568672
-0.0148104894906282
-0.0103875556960701
-0.0060831867158412
-0.0021707694977521
0.0011368942214176
0.0036973394453525
0.0054406141862273
0.0063686701469123
0.0065560149960219
0.0061480081640183
0.0053432090207934
0.0043619195930659
0.0034178528003394
0.0026962396223098
0.0023337523452937
0.0024054406676441
0.0029258960857987
0.0038590163458138
0.0051256087608635
0.0066117318347096
0.0081861838698387
0.0097212027758359
0.0111076487228274
0.0122665930539369
0.0131562491878867
0.0137686561793088
0.01411849912256
0.0142322359606623
0.0141424667090177
0.0138864107429981
0.0135058844462037
0.0130472779273986
0.0125590870156884
0.0120860058814287
0.0116606689989566
0.0112915877252817
0.0109467729926109
0.0105412323027849
0.0099409902468323
0.0089839715510606
0.007507006637752
0.0053760856389999
0.0025197300128638
-0.0010430207476019
-0.0051876464858651
-0.0096846604719758
-0.0142193008214235
-0.0184334125369787
-0.0219812579452991
-0.0245799329131841
-0.0260401517152786
-0.0262804813683033
-0.0253303702920675
-0.0233162883669137
-0.0204354804009199
-0.0169331859797239
-0.0130837196484208
-0.0091675445437431
-0.005447709467262
-0.0021520985756069
0.0005416183266788
0.0025227474980056
0.0037592409644275
0.0042952084913849
0.0042359963990747
0.0037284032441675
0.0029423600062727
0.0020574606023728
0.001250104047358
0.0006746549624949
0.0004442011704668
0.000619349302724
0.0012050189543515
0.0021563360933214
0.0033913715742528
0.0048053399659693
0.0062867207452654
0.0077328239567577
0.0090610925108194
0.0102144852280616
0.0111588602885603
0.0118775404989719
0.0123691149055957
0.0126471389085054
0.0127393994480371
0.0126843797042965
0.012524357996881
0.0122975315898656
0.0120306937023997
0.0117354076355695
0.0114050982519984
0.0110058253630995
0.0104664051905274
0.0096779819577932
0.0085052354261279
0.0068083447404205
0.0044716233387589
0.0014336197637021
-0.0022858618758618
-0.0065687391906976
-0.0111986938863992
-0.0158829763531684
-0.020291032269597
-0.0240943226963281
-0.0270020067691802
-0.0287950709462165
-0.0293525643646717
-0.0286643374711275
-0.0268273390829563
-0.0240252465009689
-0.0205017607659101
-0.0165358632802963
-0.0124182933941483
-0.008430091664195
-0.0048230867832899
-0.0017986284801736
0.0005105700111016
0.0020474181510508
0.0028292629867792
0.0029411972500383
0.0025238099042326
0.0017596133984625
0.0008553685620427
1.854286529123783e-05
-0.0005652587860822
-0.0007523263338953
-0.0004570679739117
0.0003413381054997
0.0016025465447455
0.0032360325567424
0.0051190508529543
0.0071173934265971
0.0090992022305727
0.0109433680772781
0.0125514846295118
0.0138603588566184
0.0148479659110307
0.0155275352299213
0.015931325033307
0.016099490225315
0.0160771589726209
0.0159096792340278
0.015639990568161
0.01530915312469
0.0149478781968355
0.0145590109750628
0.014103926718235
0.0134992757812142
0.0126235671341419
0.0113353030756115
0.0095013575628399
0.0070241820067167
0.0038600955158472
3.5295961424708366e-05
-0.0043367254547774
-0.0090485289692878
-0.0138152632862329
-0.0183117371052503
-0.0222169402986764
-0.0252526327967643
-0.0272092930972576
-0.0279610063880682
-0.0274737477302551
-0.0258093234151601
-0.0231263656169176
-0.0196723286062479
-0.0157527942210435
-0.0116851506754755
-0.0077612125314772
-0.0042260005138814
-0.00126668298617
0.0009938795119524
0.0025035392027348
0.0032853640150278
0.003434183076024
0.0031019710004329
0.002475646091625
0.0017534748185425
0.0011216106358915
0.0007320586591959
0.0006879055872559
0.0010392875410616
0.001787248533219
0.0028919326141476
0.0042834435589611
0.0058743339031934
0.0075692245736718
0.0092670014128088
0.0108657730743289
0.0122813768684864
0.0134661123156547
0.0144118424504995
0.0151401199400424
0.01568503677845
0.0160738974809646
0.0163165107369422
0.0164083987474441
0.016343118622899
0.0161242969334125
0.0157648902386426
0.0152708627283573
0.0146216880530118
0.0137571040540933
0.0125743467360734
0.0109443189576268
0.0087460065260529
0.0059036649763584
0.0024146542418748
-0.0016380737069994
-0.0060922531411051
-0.0107235657051205
-0.0152641851454973
-0.0194265432655811
-0.0229360852390527
-0.0255639292299747
-0.0271507054567337
-0.0276173241436481
-0.0269622206687927
-0.025255300104618
-0.0226354226469993
-0.0193047448992729
-0.0155128538608551
-0.0115329641848802
-0.0076396102085709
-0.0040887366048991
-0.0010934316087514
0.0011996005196124
0.0027250531129539
0.0035047349520027
0.0036405043210834
0.0032919140066951
0.0026453121099621
0.0018880625721067
0.001193611882627
0.0007101900409907
0.0005486540030688
0.0007724766619503
0.0013953174930065
0.0023868037387728
0.0036797842476516
0.0051797204650938
0.0067812399938702
0.0083863176405429
0.0099163688719272
0.0113164335489273
0.0125529142096638
0.0136057073250412
0.0144567843526601
0.0150856375694274
0.015479271300137
0.015645544975996
0.0156135968863964
0.0154185090214014
0.0150823248550295
0.0146062616258859
0.0139696728438138
0.0131232161074876
0.0119824046269059
0.0104351500049233
0.0083645107224583
0.005677418783307
0.0023329439572989
-0.0016327616758644
-0.0060922894626855
-0.0108299935236573
-0.0155613776296377
-0.0199622847139835
-0.0237038563936948
-0.02649518661201
-0.0281250271946191
-0.028484096750617
-0.027567671611905
-0.0254731494933366
-0.0223933309316635
-0.0185970198363065
-0.0143985506147146
-0.0101227490231394
-0.0060715861618518
-0.0024972856044769
0.0004172457847744
0.0025682956911623
0.0039326134137809
0.0045638442970812
0.0045790197327733
0.0041350359097123
0.0034086969681084
0.0025849104858934
0.0018432738725095
0.0013395079877227
0.0011881981045007
0.0014528159517794
0.0021463502198457
0.0032385836821049
0.0046616923063993
0.0063172597438097
0.0080921500921249
0.0098762605339288
0.0115715451538562
0.0130955623462796
0.0143852308392524
0.0153993405401706
0.0161203686147928
0.0165558792650699
0.0167353264987468
0.0167010314762592
0.0164971631020307
0.0161607768386602
0.0157158523797988
0.0151674291118979
0.0144919641315937
0.0136271230876445
0.0124729704111814
0.0109102455899119
0.0088258814066648
0.0061351498588919
0.0028004646301269
-0.0011497661471366
-0.005603002384305
-0.0103546436876058
-0.0151233356446027
-0.0195881519466638
-0.0234329178929328
-0.026385985314846
-0.0282491594552993
-0.0289134830236434
-0.0283647887408733
-0.0266835391521453
-0.024039477109909
-0.0206754896789789
-0.0168788023293018
-0.0129461456090211
-0.0091513562947511
-0.0057241437025368
-0.0028405035845935
-0.0006147557869553
0.000907999346964
0.001749992952682
0.0019900458864867
0.0017506980802863
0.0011838319478556
0.0004559743683785
-0.0002662120386958
-0.0008314818842336
-0.0011157169938087
-0.0010291184298694
-0.0005244549829512
0.000398576259613
0.0016989499563351
0.0032999436371028
0.0050919144414365
0.0069471355527639
0.0087445732206106
0.0103849414736032
0.0117938108742237
0.012925031594932
0.01376548781991
0.0143304364755749
0.0146493138745427
0.0147535651922225
0.0146666606888175
0.014388813637197
0.0138808451592922
0.0130605576559901
0.0118181183934211
0.0100425304844975
0.007650273386389
0.0046124141663312
0.0009728097356855
-0.0031434053089469
-0.0075291544198989
-0.0119133554399013
-0.0159988347440958
-0.0195014271885156
-0.0221778023988008
-0.0238465536385774
-0.0244050547480583
-0.0238351356238126
-0.0221993159502744
-0.019636558368802
-0.0163548775017261
-0.012614962644875
-0.0087051820009946
-0.0049102893099188
-0.0014815258327871
0.0013858404709026
0.0035681205336004
0.0050176866352558
0.0057549034245312
0.0058610755950212
0.0054767290130257
0.0047886203974485
0.0039983391761779
0.0032863286323845
0.0027905576862394
0.0026061278767883
0.0027897898107767
0.0033567319624125
0.0042789080180227
0.0054919458925724
0.0069055818021297
0.0084160575643181
0.0099198026582598
0.0113244578242301
0.0125582013279199
0.0135758500546216
0.0143556781113147
0.0148920295760035
0.0151939978823065
0.0152866728603839
0.015203109011054
0.0149637032300233
0.0145509289577603
0.0138938166201114
0.0128728495910763
0.0113438628613948
0.0091746803373098
0.0062867272645235
0.002688996028155
-0.0015081095043569
-0.0061001488938927
-0.0108073987066745
-0.0153055302798748
-0.0192717444151639
-0.0224290061742067
-0.0245748218148946
-0.0255979169160127
-0.0254819132387638
-0.0242972131818532
-0.0221880227327346
-0.0193541459739208
-0.0160292107611894
-0.0124611817300319
-0.0088936854153871
-0.0055475942790508
-0.0026051953900605
-0.0001953761093318
0.0016160777304321
0.0028242729604244
0.0034776777029037
0.0036726244725286
0.0035422691144049
0.0032361161429435
0.0029007084667682
0.002666026353836
0.002632517600432
0.0028635659255087
0.0033890134654939
0.0042093056254088
0.0052934726700186
0.006579759530723
0.0079862410202622
0.0094276359304785
0.0108268419280648
0.0121157933026552
0.013235374353826
0.0141405900940299
0.0148042291402816
0.0152170490473508
0.0153900207951664
0.0153551585972309
0.0151552930474281
0.0148281930014491
0.0143969655036926
0.0138626098632812
0.0131922047585248
0.012311358936131
0.0111095132306218
0.0094534587115049
0.007209270261228
0.0042780735529959
0.0006344490684568
-0.0036479085683822
-0.0083903800696134
-0.0133269885554909
-0.0181387159973382
-0.0224946290254592
-0.0260930210351943
-0.0286926291882991
-0.0301320999860763
-0.0303429532796144
-0.0293531771749258
-0.0272795017808675
-0.0243119709193706
-0.0206946488469839
-0.0167068820446729
-0.0126424012705683
-0.0087785702198743
-0.0053431754931807
-0.00249601341784
-0.0003239922225475
0.0011602856684476
0.0020137554965913
0.0023469529114663
0.0023006494157016
0.0020279421005398
0.00168598361779
0.0014244718477129
0.0013704327866435
0.0016191967297345
0.0022261443082243
0.0031969617120921
0.0044874083250761
0.0060165044851601
0.007687316276133
0.0094046099111437
0.0110820159316062
0.0126419998705387
0.014015819877386
0.0151486080139875
0.0160076767206192
0.0165869817137718
0.0169033948332071
0.0169882103800773
0.0168816819787025
0.0166296530514955
0.016276653856039
0.0158573128283023
0.0153889115899801
0.0148621937260031
0.0142281521111726
0.0133889224380254
0.0122063308954238
0.0105266291648149
0.0082109160721302
0.0051698177121579
0.0013993214815855
-0.0029963459819555
-0.0078066485002636
-0.0127397868782281
-0.0174635164439678
-0.0216546058654785
-0.0250412113964557
-0.0274248253554105
-0.0286873262375593
-0.0287941060960292
-0.0277950726449489
-0.0258187670260667
-0.023056361824274
-0.0197390615940094
-0.016115928068757
-0.0124366283416748
-0.0089355120435357
-0.0058103902265429
-0.0032017971388995
-0.001184609835036
0.0002278022002428
0.0010763256577774
0.0014498274540528
0.0014738336903974
0.0012924567563459
0.001050871098414
0.0008837420027703
0.0009074250701814
0.0012098406441509
0.0018398744286969
0.0028035703580826
0.004067073110491
0.0055635329335927
0.0072038029320538
0.0088905878365039
0.0105334250256419
0.0120586343109607
0.0134119382128119
0.0145572917535901
0.0154742300510406
0.0161536186933517
0.0165934842079877
0.0167994331568479
0.0167887415736913
0.0165915265679359
0.0162482596933841
0.015805073082447
0.0153043800964951
0.0147714093327522
0.0141999395564198
0.0135396812111139
0.012690408155322
0.0115081779658794
0.0098276156932115
0.007501230109483
0.004444767255336
0.0006705820560455
-0.0037006246857345
-0.0084495143964886
-0.013286467641592
-0.0178920105099678
-0.0219541899859905
-0.0251981914043426
-0.0274184085428714
-0.0285028219223022
-0.0284331645816564
-0.027271831408143
-0.0251496545970439
-0.0222553871572017
-0.0188219305127859
-0.0151041615754365
-0.0113549409434199
-0.0078082480467855
-0.0046653575263917
-0.0020789452828466
-0.0001369175733998
0.001146932831034
0.001827539759688
0.0020111962221562
0.0018366425065323
0.0014604529133066
0.0010442588245496
0.0007402746705338
0.0006776636000722
0.0009507629438303
0.0016065910458564
0.0026371078565716
0.0039852084591984
0.0055605922825634
0.0072559593245387
0.0089636724442243
0.0105904452502727
0.0120594818145036
0.0133036142215132
0.0142661826685071
0.0149142649024724
0.01525045838207
0.0153093608096241
0.0151448789983987
0.0148214614018797
0.0144066549837589
0.0139584662392735
0.0135133881121873
0.0130844861268997
0.0126631176099181
0.0122109549120068
0.0116483001038432
0.0108537711203098
0.0096800811588764
0.007981663569808
0.005646196193993
0.0026242998428642
-0.0010461434721946
-0.005226656794548
-0.0096845012158155
-0.0141233708709478
-0.0182284656912088
-0.0217093415558338
-0.0243326239287853
-0.0259430762380361
-0.0264735277742147
-0.0259457640349864
-0.0244629476219415
-0.0221939757466316
-0.019349630922079
-0.0161551423370838
-0.0128311645239591
-0.0095846056938171
-0.0065978956408798
-0.0040143537335097
-0.0019295013044029
-0.0003920455055776
0.0005962253781035
0.0010852095438167
0.001172475866042
0.0009873989038169
0.0006718209479004
0.0003605033853091
0.0001666226307861
0.000176080444362
0.0004472566361073
0.0010118969948962
0.001872802618891
0.003000424709171
0.0043373689986765
0.0058106179349124
0.0073414943180978
0.0088496133685112
0.0102537404745817
0.0114759188145399
0.0124540925025939
0.0131544061005115
0.0135739566758275
0.0137372622266411
0.0136892925947904
0.0134849762544035
0.0131785795092582
0.012818930670619
0.0124470358714461
0.0120848855003714
0.0117181940004229
0.0112866843119263
0.0106874406337738
0.0097878836095333
0.0084470380097627
0.0065453452989459
0.0040142424404621
0.0008565671741962
-0.0028436698485165
-0.0069235325790941
-0.011154456064105
-0.0152663718909025
-0.0189823284745216
-0.0220521576702594
-0.0242768861353397
-0.0255260095000267
-0.02574341930449
-0.0249424763023853
-0.0232033040374517
-0.0206717457622289
-0.0175488982349634
-0.0140732787549495
-0.0104998014867305
-0.0070728245191276
-0.0039997706189751
-0.0014357460895553
0.0005234315758571
0.0018463786691427
0.0025673282798379
0.0027779578231275
0.0026115872897207
0.0022247498854994
0.001777907134965
0.0014189697103574
0.0012719795340672
0.0014280756004154
0.0019372234819456
0.0028024122584611
0.0039802328683435
0.00539036327973
0.0069315703585743
0.0084991240873932
0.0099986307322978
0.0113562466576695
0.0125257596373558
0.0134855825453996
0.0142271090298891
0.0147475032135844
0.015050683170557
0.0151512054726481
0.0150756137445569
0.0148598868399858
0.0145423682406544
0.0141514232382178
0.0136951729655265
0.0131550319492816
0.01247881911695
0.0115784835070371
0.0103357601910829
0.0086191296577453
0.0063181831501424
0.0033843601122498
-0.0001441692002117
-0.0041424822993576
-0.0084133883938193
-0.0127043351531028
-0.0167313627898693
-0.0202140212059021
-0.0229074414819479
-0.0246247760951519
-0.0252570379525423
-0.0247877798974514
-0.0232948418706655
-0.0209384988993406
-0.0179376397281885
-0.0145426746457815
-0.0110161677002906
-0.0076172235421836
-0.0045822439715266
-0.0021018302068114
-0.0002969321503769
0.0007938640192151
0.001210366259329
0.001059339614585
0.0004979094373993
-0.0002905645233113
-0.0011208793148398
-0.0018236590549349
-0.0022599333897233
-0.00233601545915
-0.0020112404599785
-0.001293018227443
-0.0002251530531793
0.001123665831983
0.0026690470986068
0.0043179858475923
0.005974918603897
0.0075461128726601
0.0089448522776365
0.0101027693599462
0.0109821362420916
0.0115786828100681
0.0119152422994375
0.0120331086218357
0.0119826477020978
0.0118079045787453
0.0115260509774088
0.0111143700778484
0.0105122085660696
0.0096316719427704
0.0083694979548454
0.0066207773052155
0.0043053068220615
0.0014056477230042
-0.0020093775819987
-0.0057873874902725
-0.0097077693790197
-0.0135057615116238
-0.0169042628258466
-0.0196429193019866
-0.0215032864362001
-0.0223337821662426
-0.0220702439546585
-0.0207471828907728
-0.0184952840209007
-0.0155249712988734
-0.0121015394106507
-0.0085145402699708
-0.0050457208417356
-0.0019398517906665
0.0006210217252373
0.0025351755321025
0.0037830853834748
0.0044136298820376
0.0045233354903757
0.004238111898303
0.0037018028087913
0.0030682177748531
0.0024896501563489
0.0020995375234633
0.0019944463856518
0.0022223987616598
0.0027809836901724
0.0036269535776227
0.0046929824165999
0.0059009995311498
0.0071696122176945
0.00842154212296
0.0095917508006095
0.0106323976069688
0.0115143982693552
0.0122266411781311
0.0127740856260061
0.0131773315370082
0.0134687395766377
0.0136754149571061
0.0137929376214742
0.0137653751298785
0.013482466340065
0.0127951195463538
0.0115454783663153
0.0096076708287
0.006929432041943
0.0035578876268118
-0.0003602934884838
-0.0046009132638573
-0.0088932421058416
-0.0129474997520446
-0.0164807345718145
-0.0192481111735105
-0.0210733786225318
-0.0218669679015874
-0.0216279532760381
-0.0204337406903505
-0.0184258222579956
-0.015795387327671
-0.0127648841589689
-0.0095663368701934
-0.0064223650842905
-0.0035298252478241
-0.0010449956171214
0.0009268084540963
0.0023379256017506
0.0032006911933422
0.0035814268048852
0.0035910289734601
0.0033742161467671
0.0030881764832884
0.002875056117773
0.0028452221304178
0.0030735018663108
0.0035988807212561
0.0044227810576558
0.0055078621953725
0.0067846844904124
0.0081683723255991
0.0095739662647247
0.0109229553490877
0.0121455937623977
0.0131831280887126
0.0139929894357919
0.014557983726263
0.0148908300325274
0.0150264240801334
0.0150059834122657
0.0148576023057103
0.0145740490406751
0.0140962703153491
0.0133152166381478
0.0120940124616026
0.0103006288409233
0.0078411875292658
0.0046919034793972
0.0009234664030373
-0.0032968330197036
-0.0077240848913788
-0.012063905596733
-0.0160091966390609
-0.0192814916372299
-0.0216621458530426
-0.0230085812509059
-0.0232631471008062
-0.0224566049873828
-0.0207031778991222
-0.018189312890172
-0.0151553330942988
-0.0118667259812355
-0.008584126830101
-0.0055420449934899
-0.002928749192506
-0.0008643814362585
0.000607207417488
0.001507815439254
0.0019084329251199
0.0019160974770784
0.0016625048592686
0.0012904554605484
0.0009376723319292
0.0007223710417747
0.0007355818524956
0.001037954352796
0.0016568535938858
0.0025861815083771
0.0037907250225543
0.0052126958034932
0.0067793000489473
0.0084092402830719
0.0100180283188819
0.011528555303812
0.012884572148323
0.0140540665015578
0.015022175386548
0.0157844275236129
0.0163438096642494
0.0167060457170009
0.0168665461242198
0.0167936719954013
0.0164193287491798
0.0156393721699714
0.0143265323713421
0.0123576540499925
0.0096451500430703
0.0061659552156925
0.0019864600617438
-0.0027258386835455
-0.0077119329944252
-0.0126495957374572
-0.017193216830492
-0.0210185665637254
-0.0238643381744623
-0.0255619641393423
-0.026049617677927
-0.0253691915422678
-0.023649975657463
-0.0210872739553451
-0.0179195683449506
-0.0144064342603087
-0.0108104581013321
-0.0073794489726424
-0.0043258816003799
-0.0018099779263138
6.915535777807236e-05
0.0012791932094842
0.0018601797055453
0.0019217163790017
0.0016236735973507
0.0011484290007501
0.0006755727808922
0.0003602635115385
0.0003171905409544
0.0006130000110715
0.0012664266396313
0.0022533666342496
0.0035138765815645
0.0049625504761934
0.0065023405477404
0.0080381734296679
0.0094898752868175
0.010802156291902
0.011948850005865
