bvp
-0.0007034677546471
0.0004242077411618
0.0017078897217288
0.003105403156951
0.0045681479386985
0.0060411761514842
0.0074641252867877
0.0087754651904106
0.009921140037477
0.010859876871109
0.0115590058267116
0.0119829252362251
0.0120826913043856
0.0117978304624557
0.0110693611204624
0.0098504116758704
0.0081163151189684
0.0058852420188486
0.0032389694824814
0.0003265965206082
-0.0026502071414142
-0.0054640593007206
-0.0078926626592874
-0.0097432788461446
-0.0108687467873096
-0.0111815175041556
-0.010663203895092
-0.0093645490705966
-0.0074000712484121
-0.0049369898624718
-0.0021765315905213
0.0006658087950199
0.003378455992788
0.005774388089776
0.0077117700129747
0.0091040506958961
0.0099181421101093
0.0101738218218088
0.0099450666457414
0.009349500760436
0.0085293762385845
0.0076364520937204
0.0068181864917278
0.0062019727192819
0.0058820322155952
0.0059111295267939
0.0062970034778118
0.007002767175436
0.007953149266541
0.0090494276955723
0.0101886829361319
0.0112790763378143
0.0122458580881357
0.0130299450829625
0.0135848056524991
0.0138729223981499
0.0138588296249508
0.0134981283918023
0.0127288773655891
0.0114770978689193
0.0096788350492715
0.0073040379211306
0.0043733143247663
0.0009709906298667
-0.0027491862419992
-0.0065705953165888
-0.0102325351908802
-0.0134632214903831
-0.0160195361822843
-0.0177171193063259
-0.0184471476823091
-0.0181860141456127
-0.0169968325644731
-0.0150190684944391
-0.0124493446201086
-0.0095207206904888
-0.0064839692786335
-0.0035862787626683
-0.0010438174940645
0.0009848268236964
0.0024130889214575
0.003225163090974
0.0034656003117561
0.0032265190966427
0.0026324517093598
0.0018247424159199
0.0009499746956862
0.0001488331472501
-0.0004584308480843
-0.0007848773384466
-0.0007840039324946
-0.000451844302006
0.0001760465675033
0.0010343913454562
0.0020437166094779
0.0031256442889571
0.004213286563754
0.005255333147943
0.0062111383303999
0.0070408042520284
0.0077019608579576
0.008150415495038
0.008332259953022
0.0081744724884629
0.0075879339128732
0.0064811995252966
0.0047812610864639
0.0024612010456621
-0.0004342636093497
-0.0037792588118463
-0.0073772203177213
-0.0109850764274597
-0.0143423397094011
-0.0171976014971733
-0.0193342696875333
-0.0205990672111511
-0.0209205504506826
-0.0203070398420095
-0.0188370328396558
-0.0166530925780534
-0.0139504857361316
-0.0109546771273016
-0.0078953485935926
-0.0049851932562887
-0.0024027624167501
-0.0002786573022603
0.0013127762358635
0.0023610084317624
0.0029250900261104
0.0031254375353455
0.0031192628666758
0.0030700075440108
0.003119803732261
0.0033698743209242
0.0038721370510756
0.0046304399147629
0.0056096110492944
0.0067516826093196
0.0079885171726346
0.0092443963512778
0.010440282523632
0.0115053160116076
0.012389488518238
0.0130708822980523
0.0135529888793826
0.0138585427775979
0.014023040421307
0.0140790119767189
0.014033455401659
0.0138526121154427
0.013462190516293
0.0127616813406348
0.0116439200937747
0.0100137712433934
0.0078138634562492
0.005056289024651
0.0018373972270637
-0.0016717952676117
-0.0052462927997112
-0.0086346352472901
-0.0115942452102899
-0.013926793821156
-0.0155009254813194
-0.0162577163428068
-0.0162091087549924
-0.0154352793470025
-0.0140716759487986
-0.0122873317450284
-0.0102671524509787
-0.0081955874338746
-0.0062390444800257
-0.0045364745892584
-0.0031938573811203
-0.0022724084556102
-0.001777991768904
-0.001660821144469
-0.0018250577850267
-0.0021452053915709
-0.00248324428685
-0.0027039977721869
-0.0026918058283627
-0.0023671914823353
-0.0016992763848975
-0.0007092113373801
0.0005379148060455
0.0019474439322948
0.0034114425070583
0.0048242667689919
0.0060927206650376
0.0071432301774621
0.0079300627112388
0.0084388926625251
0.0086802197620272
0.0086788414046168
0.0084668174386024
0.0080765103921294
0.0075294086709618
0.0068262298591434
0.0059440857730805
0.0048391832970082
0.0034539327025413
0.0017308350652456
-0.0003654169850051
-0.0028229171875864
-0.0055676084011793
-0.0084656700491905
-0.0113383699208498
-0.0139827663078904
-0.0161963514983654
-0.0178024917840957
-0.0186694748699665
-0.0187229346483945
-0.0179557912051677
-0.0164329204708337
-0.0142884775996208
-0.0117133157327771
-0.0089275576174259
-0.0061503518372774
-0.0035824589431285
-0.0013948800042271
0.0002862210385501
0.0013954117894172
0.0019378848373889
0.0019863059278577
0.0016643982380628
0.0011265296489
0.0005381070077419
5.515199154615402e-05
-0.000193023122847
-0.000113558024168
0.0003451481461524
0.001191817689687
0.0023953798227012
0.0038923453539609
0.0055979983881115
0.0074185053817927
0.0092567699030041
0.0110152326524257
0.0126054231077432
0.0139606110751628
0.0150439348071813
0.0158495213836431
0.0163944996893405
0.0167037583887577
0.0167911853641271
0.0166440121829509
0.0162173155695199
0.0154383722692728
0.0142201408743858
0.0124846640974283
0.0101928357034921
0.0073712444864213
0.0041259378194808
0.0006386294262483
-0.0028537546750158
-0.0060900603421032
-0.0088175255805253
-0.0108189964666962
-0.0119343232363462
-0.0120799597352743
-0.0112601853907108
-0.0095625845715403
-0.0071446616202592
-0.0042148754000663
-0.001006108475849
0.0022503612563014
0.0053403060883283
0.0080742016434669
0.01029734313488
0.0119054075330495
0.0128589533269405
0.013188493438065
0.0129848001524806
0.0123746460303664
0.0114946505054831
0.0104756476357579
0.0094318240880966
0.0084510138258337
0.007593389134854
0.0068947505205869
0.0063667013309895
0.0059998584911227
0.0057744160294532
0.0056675146333873
0.00564999692142
0.0056812232360243
0.0057144565507769
0.0057102376595139
0.0056423707865178
0.0054938630200922
0.0052541508339345
0.0049204053357243
0.0044955722987651
0.0039779534563422
0.003346380777657
0.0025505805388092
0.0015122769400477
0.0001380369067192
-0.0016568535938858
-0.0039189038798213
-0.0066328393295407
-0.0097132856026291
-0.0130115821957588
-0.0163317192345857
-0.0194514486938714
-0.0221509337425231
-0.0242441482841968
-0.0255979672074317
-0.0261389035731554
-0.0258578732609748
-0.0248131062835454
-0.0231266468763351
-0.0209690742194652
-0.0185342319309711
-0.0160180311650037
-0.0136054884642362
-0.0114570138975977
-0.0096922069787979
-0.0083753997460007
-0.0075068222358822
-0.0070271356962621
-0.0068364548496901
-0.0068142525851726
-0.0068319654092192
-0.0067642978392541
-0.0065030069090425
-0.0059713004156947
-0.0051365075632929
-0.0040145814418792
-0.0026613257359713
-0.001155226258561
0.0004203569842502
0.0019873729906976
0.0034726655576378
0.0048101209104061
0.0059520746581256
0.0068777138367295
0.0075896526686847
0.0081010162830352
0.0084195835515856
0.0085329208523035
0.0083995750173926
0.0079541131854057
0.0071226642467081
0.0058413427323102
0.004075211007148
0.001834787777625
-0.0008104758453555
-0.0037248225416988
-0.0067150834947824
-0.0095565821975469
-0.0120222745463252
-0.0139063755050301
-0.0150469560176134
-0.0153475012630224
-0.0147895896807312
-0.0134338466450572
-0.0114103443920612
-0.0089011443778872
-0.0061180065385997
-0.0032791676931083
-0.0005895043723285
0.0017771911807358
0.0036947205662727
0.005097416229546
0.0059857345186173
0.0064191748388111
0.006499957293272
0.0063571250066161
0.0061300955712795
0.0059475870802998
0.0059093842282891
0.00607814732939
0.0064803943969309
0.0071139954961836
0.0079553565010428
0.008960953913629
0.0100696608424186
0.0112129738554358
0.0123270489275455
0.0133577175438404
0.0142625365406274
0.0150161366909742
0.0156115908175706
0.0160485133528709
0.0163130722939968
0.0163618493825197
0.0161159895360469
0.0154680907726287
0.0143024213612079
0.012524863705039
0.010094067081809
0.007043617311865
0.0034902850165963
-0.0003704630071297
-0.0042826542630791
-0.0079642189666628
-0.0111477943137288
-0.01361093390733
-0.0151928756386041
-0.0158056057989597
-0.015442444011569
-0.0141809079796075
-0.0121735110878944
-0.0096258828416466
-0.006772028747946
-0.0038528870791196
-0.0010940385982394
0.0013180649839341
0.0032553919591009
0.0046563856303691
0.0055194292217493
0.0058897491544485
0.0058505870401859
0.0055165123194456
0.0050232796929776
0.004513535182923
0.0041169952601194
0.0039293253794312
0.0039993450045585
0.0043283607810735
0.0048801125958561
0.0055956933647394
0.0064061051234602
0.0072424504905939
0.008047648705542
0.0087832789868116
0.0094246827065944
0.0099537139758467
0.0103540318086743
0.0105998525395989
0.0106394151225686
0.0103873098269104
0.0097358785569667
0.0085820090025663
0.0068530738353729
0.0045227659866213
0.0016242486890405
-0.0017374649178236
-0.0053866514936089
-0.0090948734432458
-0.0126043772324919
-0.0156538132578134
-0.0180108658969402
-0.0195064041763544
-0.0200587455183267
-0.0196792855858802
-0.0184603780508041
-0.0165570173412561
-0.0141676357015967
-0.0115116415545344
-0.008808335289359
-0.0062616681680083
-0.0040459795854985
-0.0022889696992933
-0.001054678694345
-0.0003341049596201
-5.128764314576984e-05
-8.077092934399843e-05
-0.000268340751063
-0.0004571217577904
-0.0005161066656
-0.0003569371183402
6.453308742493391e-05
0.000753017142415
0.0016789413057267
0.0027838535606861
0.0039902008138597
0.0052168536931276
0.0063956347294151
0.0074800727888941
0.0084395594894886
0.0092467926442623
0.0098708625882864
0.0102765262126922
0.0104258228093385
0.0102793546393513
0.0097948098555207
0.0089236656203866
0.0076143760234117
0.0058301649987697
0.0035743019543588
0.0009086995851248
-0.002040097489953
-0.005088466219604
-0.0080155273899436
-0.0105930715799331
-0.0126199489459395
-0.0139475995674729
-0.014490176923573
-0.0142278019338846
-0.0132101960480213
-0.0115545773878693
-0.0094287674874067
-0.0070258569903671
-0.0045455615036189
-0.002181596122682
-0.0001034448796417
0.0015646524261683
0.0027547453064471
0.0034544009249657
0.003702592337504
0.003585928119719
0.0032267211936414
0.0027588144876062
0.002304890891537
0.0019659555982798
0.0018164690118283
0.0018994866404682
0.0022272013593465
0.0027877970132976
0.0035513152834028
0.0044714664109051
0.0054850559681653
0.006515032146126
0.0074814623221755
0.0083126490935683
0.0089491913095116
0.0093417391180992
0.0094433948397636
0.0092028742656111
0.0085634374991059
0.0074650738388299
0.0058549074456095
0.00370953255333
0.0010596429929137
-0.0019943735096603
-0.0052849585190415
-0.008596115745604
-0.0116860261186957
-0.0143127897754311
-0.0162648744881153
-0.0173855256289243
-0.0175872594118118
-0.0168611276894807
-0.0152786606922745
-0.0129842907190322
-0.0101796351373195
-0.0071007860824465
-0.0039911321364343
-0.0010738251730799
0.0014682200271636
0.003503052983433
0.0049577159807085
0.0058227968402206
0.0061499546281993
0.0060408883728086
0.0056298431009054
0.0050669889897108
0.0045013981871306
0.0040610521100461
0.0038379735779017
0.0038822782225906
0.0042018708772957
0.0047688125632703
0.0055309748277068
0.0064208805561065
0.0073610972613096
0.0082725342363119
0.0090833026915788
0.0097300633788108
0.0101528447121381
0.0102885570377111
0.0100643346086144
0.0093975318595767
0.0082107055932283
0.0064560412429273
0.0041372715495526
0.0013230449985712
-0.0018498392309993
-0.0051839570514857
-0.0084431478753685
-0.0113880168646574
-0.0138077549636363
-0.0155358901247382
-0.0164619628340005
-0.0165452640503644
-0.0158179011195898
-0.014376938343048
-0.0123744690790772
-0.0100025152787566
-0.0074728792533278
-0.0049991197884082
-0.002777783665806
-0.0009629488340578
0.0003565202932804
0.0011637188727036
0.0015068296343088
0.0014856898924335
0.0012324589770287
0.0008904919959604
0.0005971406935714
0.0004668968031182
0.0005734643200412
0.0009416164830327
0.0015562021872028
0.0023787219543009
0.0033568700309842
0.0044276546686887
0.0055238753557205
0.006582710891962
0.0075474246405065
0.0083615835756063
0.0089633278548717
0.0092828217893838
0.0092420447617769
0.0087613416835665
0.0077758887782692
0.0062539968639612
0.0042096036486327
0.0017148570623248
-0.0010881521739065
-0.0039950036443769
-0.0067672617733478
-0.0091627649962902
-0.010964510962367
-0.0120110725983977
-0.0122185051441192
-0.0115874027833342
-0.0101972389966249
-0.0081928437575697
-0.0057676900178194
-0.0031410881783813
-0.0005315377493388
0.0018624081276357
0.0038728793151676
0.0053739883005619
0.0062947552651166
0.0066266064532101
0.0064236652106046
0.0057966206222772
0.0048969141207635
0.0038928783033043
0.0029459476936608
0.0021906921174377
0.0017192274099215
0.0015743863768875
0.0017559248954057
0.0022354931570589
0.0029672954697161
0.0038918883074074
0.004943074658513
0.0060555222444236
0.0071654100902378
0.0082050962373614
0.0090943984687328
0.0097353942692279
0.0100170820951461
0.0098272990435361
0.0090682059526443
0.0076752649620175
0.0056397654116153
0.0030264367815107
-2.6048626750707623e-05
-0.0033192678820341
-0.0066147097386419
-0.0096583440899848
-0.0122096538543701
-0.0140676945447921
-0.0150900026783347
-0.0152066648006439
-0.0144285624846816
-0.0128473183140158
-0.0106268189847469
-0.0079837348312139
-0.0051593123935163
-0.002393678529188
9.313342161476612e-05
0.0021184291690587
0.0035559986717998
0.0043553812429308
0.004549503326416
0.0042405375279486
0.0035722963511943
0.0027060227002948
0.0018037108238786
0.0010107338894158
0.0004362696781754
0.0001426909584552
0.0001492872834205
0.000439713243395
0.0009670536965131
0.0016639109235256
0.0024588534142822
0.0032898567151278
0.0041086347773671
0.0048775449395179
0.0055621545761823
0.0061207162216305
0.0064944075420498
0.0066062086261808
0.0063721043989062
0.0057183345779776
0.0045975446701049
0.0030031893402338
0.0009795972146093
-0.0013779094442725
-0.0039309589192271
-0.0065087350085377
-0.0089224614202976
-0.0109851760789752
-0.0125320982187986
-0.0134371276944875
-0.0136265084147453
-0.013091143220663
-0.0118921566754579
-0.0101521154865622
-0.0080356011167168
-0.0057304017245769
-0.0034305406734347
-0.0013170308666303
0.0004615028155967
0.0018047955818474
0.0026689628139138
0.0030635760631412
0.0030431225895881
0.0026968214660882
0.0021369508467614
0.0014876005006954
0.0008716013981029
0.0003956947475671
0.0001383953494951
0.0001421775668859
0.0004146698629483
0.0009359982796013
0.0016624017152935
0.002530792960897
0.0034692431800067
0.0044060796499252
0.0052743665874004
0.0060167014598846
0.0065912208519876
0.0069701606407761
0.0071291215717792
0.0070392810739576
0.0066685266792774
0.0059870476834475
0.004974365234375
0.0036251086276024
0.0019513275474309
-1.3649463653564451e-05
-0.0022037716116756
-0.0045095756649971
-0.0067832763306796
-0.0088582197204232
-0.0105698304250836
-0.0117759332060813
-0.0123801082372665
-0.0123493308201432
-0.0117151699960231
-0.0105627039447426
-0.0090163499116897
-0.0072244037874042
-0.0053408816456794
-0.0035074015613645
-0.0018413453362882
-0.0004297865671105
0.0006769977044314
0.0014698442537337
0.0019764266908168
0.0022509950213134
0.0023644897155463
0.0023942694533616
0.0024125636555254
0.0024787026923149
0.0026353802531957
0.0029069921001791
0.0032997773960232
0.0037999127525836
0.0043742107227444
0.0049830484203994
0.0055936514399945
0.0061794212087988
0.0067185871303081
0.0072004841640591
0.0076264035888016
0.0080036744475364
0.0083394674584269
0.0086324028670787
0.0088650099933147
0.009003946557641
0.0090061342343688
0.0088217025622725
0.0083895558491349
0.0076375119388103
0.0065001510083675
0.0049445866607129
0.0029875990003347
0.0007030104752629
-0.0017816172912716
-0.0043027205392718
-0.0066817384213209
-0.0087391901761293
-0.0103112803772091
-0.0112736253067851
-0.0115605071187019
-0.0111728329211473
-0.0101747596636414
-0.0086811035871505
-0.0068437187001109
-0.0048407698050141
-0.0028610867448151
-0.0010778286959975
0.0003778671089094
0.0014267954975366
0.002036714926362
0.0022182899992913
0.0020250433590263
0.0015462713781744
0.000891771458555
0.0001771690440364
-0.000490331556648
-0.0010253173531964
-0.0013671352062374
-0.0014742341591045
-0.0013204948045313
-0.0008973848307505
-0.0002213255356764
0.0006596727762371
0.0016684198053553
0.0027107608038932
0.0036919999402016
0.0045323143713176
0.0051764203235507
0.0055944067426025
0.0057772346772253
0.0057317512109875
0.0054736556485295
0.0050158565863966
0.0043580243363976
0.0034835189580917
0.0023606279864907
0.0009489707881584
-0.0007816151482984
-0.0028247598093003
-0.005121074616909
-0.0075594102963805
-0.0099882641807198
-0.01223109010607
-0.0141072757542133
-0.0154564585536718
-0.016157291829586
-0.016138544306159
-0.0153890298679471
-0.013967040926218
-0.0119991535320878
-0.0096601797267794
-0.0071443943306803
-0.004645945969969
-0.0023467750288546
-0.0004001699853688
0.0010866292286664
0.0020628017373383
0.0025364249013364
0.0025690565817058
0.0022651734761893
0.0017573861405253
0.0011862271931022
0.0006819139234721
0.0003518899902701
0.0002694674767553
0.0004691760987043
0.0009537022560834
0.00170204997994
0.0026726787909865
0.0038052168674767
0.0050260624848306
0.0062610665336251
0.007448211312294
0.0085410056635737
0.0095044216141104
0.0103099662810564
0.0109307579696178
0.0113334897905588
0.0114695355296134
0.0112719954922795
0.0106617547571659
0.0095625091344118
0.0079235937446355
0.005743620917201
0.0030849196482449
7.603317499160767e-05
-0.0030965479090809
-0.0062104305252432
-0.009039219468832
-0.0113792549818754
-0.0130651937797665
-0.0139821525663137
-0.0140799712389707
-0.0133836530148983
-0.0119906179606914
-0.0100570041686296
-0.0077798538841307
-0.0053725922480225
-0.0030364049598574
-0.0009401957504451
0.0007892604917287
0.0020740251056849
0.0028902813792228
0.0032695811241865
0.0032916823402047
0.0030701062642037
0.0027356911450624
0.0024189432151615
0.0022305701859295
0.0022439830936491
0.0024886345490813
0.0029565002769231
0.003612495958805
0.0044044023379683
0.0052731083706021
0.0061601134948432
0.0070127132348716
0.0077887661755084
0.008459759876132
0.0090138046070933
0.0094573637470602
0.0098091373220086
0.0100834015756845
0.0102681620046496
0.0103100631386041
0.0101144518703222
0.0095592672005295
0.0085203498601913
0.0069025037810206
0.0046648001298308
0.0018374237697571
-0.0014689844101667
-0.005068133585155
-0.0087191183120012
-0.0121556837111711
-0.0151148084551095
-0.0173639357089996
-0.0187283288687467
-0.0191120374947786
-0.0185101814568042
-0.0170126110315322
-0.0147903300821781
-0.0120673645287752
-0.0090933609753847
-0.0061216596513986
-0.0033874399960041
-0.0010847458615899
0.0006536832079291
0.0017713969573378
0.0022931965067982
0.0023162299767136
0.001992642879486
0.0015085255727171
0.001058286987245
0.0008159577846527
0.000910336151719
0.001411166973412
0.0023272167891263
0.0036109099164605
0.0051648099906742
0.0068561173975467
0.0085473004728555
0.0101262461394071
0.0115129146724939
0.0126535445451736
0.0135220624506473
0.014121307991445
0.0144754191860556
0.0146209998056292
0.0145979989320039
0.0144325159490108
0.014115709811449
0.0135920774191617
0.0127661041915416
0.011525759473443
0.0097677335143089
0.0074166976846754
0.0044490443542599
0.0009207483381032
-0.0030178106389939
-0.0071309055201709
-0.0111268498003482
-0.0146956210955977
-0.0175461564213037
-0.0194427166134119
-0.0202361568808555
-0.0198808461427688
-0.0184363778680562
-0.016059823334217
-0.012988980859518
-0.0095151681452989
-0.0059492904692888
-0.0025868159718811
0.0003243121318519
0.0026089255698025
0.004179848358035
0.0050423182547092
0.0052853459492325
0.0050578527152538
0.0045386869460344
0.0039127105847001
0.00335233961232
0.0030003627762198
0.0029568364843726
0.0032738277222961
0.0039583453908562
0.0049802530556917
0.0062810848467051
0.0077837486751377
0.0094031076878309
0.0110533758997917
0.0126509740948677
0.0141173005104064
0.0153862303122878
0.0164129212498664
0.0171751603484153
0.0176670588552951
0.0178907178342342
0.0178526099771261
0.0175669435411691
0.0170543622225523
0.0163301359862089
0.0153894964605569
0.0141939967870712
0.0126654217019677
0.0106987562030553
0.0081944279372692
0.0050959251821041
0.001417564228177
-0.0027418958488851
-0.0071983453817665
-0.0116967111825943
-0.0159392487257719
-0.0196199268102645
-0.0224614180624485
-0.0242502801120281
-0.0248632170259952
-0.0242844559252262
-0.0226105935871601
-0.0200341828167438
-0.0168136730790138
-0.013245590031147
-0.0096385972574353
-0.0062832552939653
-0.003424777649343
-0.0012441908475011
0.0001602326519787
0.0007883626967668
0.0007333336398005
0.000156725756824
-0.0007403257768601
-0.0017432391177862
-0.0026480022352188
-0.0032830939162522
-0.0035280967131257
-0.0033262236975133
-0.002687020227313
-0.001673866296187
-0.0003786517772823
0.0011006300337612
0.002670775167644
0.0042475303635001
0.0057567129842936
0.0071343872696161
0.0083266934379935
0.0092892562970519
0.0099919699132442
0.0104279741644859
0.0106132961809635
0.0105758141726255
0.010346608236432
0.0099570397287607
0.0094309588894248
0.0087645994499325
0.0079089989885687
0.006775626912713
0.005258210003376
0.0032560918480157
0.0007019182667136
-0.0024083275347948
-0.0059961304068565
-0.0098996823653578
-0.0138913597911596
-0.0177042558789253
-0.0210604909807443
-0.0237051621079444
-0.025439579039812
-0.0261409543454647
-0.0257696751505136
-0.0243688765913248
-0.0220595449209213
-0.0190330017358064
-0.0155360018834471
-0.0118463709950447
-0.0082419831305742
-0.0049685765989124
-0.0022166057024151
-0.0001107407733798
0.0012939572334289
0.0020122793503105
0.0021251691505312
0.0017733692657202
0.0011444087140262
0.0004464457742869
-0.00012599513866
-0.0004223301075398
-0.0003521076869219
0.0001170008908957
0.000970872817561
0.0021573712583631
0.0035915137268602
0.0051659690216183
0.0067667718976736
0.008287651464343
0.0096405055373907
0.0107612498104572
0.0116116469725966
0.0121829053387045
0.0124997273087501
0.0126129677519202
0.0125818597152829
0.0124587919563055
0.0122796753421425
0.0120553858578205
0.0117628555744886
0.0113414153456687
0.0106973890215158
0.0097135379910469
0.0082697132602334
0.0062754764221608
0.0036983862519264
0.0005810083821415
-0.0029534273780882
-0.0067099244333803
-0.0104416580870747
-0.0138792842626571
-0.0167680270969867
-0.0188963003456592
-0.0201088394969701
-0.0203204210847616
-0.0195348896086215
-0.017854019999504
-0.0154657624661922
-0.0126138841733336
-0.0095609314739704
-0.0065585207194089
-0.0038273828104138
-0.0015431601786985
0.0001733617391437
0.0012655933387577
0.0017499949317425
0.0017133688088506
0.0012931243982166
0.0006510124076157
-4.63658943772316e-05
-0.0006413634400814
-0.001001366181299
-0.0010333321988582
-0.0006918240687809
1.822353806346655e-05
0.0010465262457728
0.0023088618181645
0.0036997043062001
0.0051074381917715
0.0064327451400458
0.0076031889766454
0.0085766538977622
0.0093358131125569
0.009882440790534
0.0102354511618614
0.0104272160679101
0.01049430295825
0.0104699060320854
0.0103818448260426
0.0102470591664314
0.0100577222183346
0.0097694294527173
0.0093013802543282
0.0085469558835029
0.0073935063555836
0.0057505457662045
0.0035774153657257
0.0008997493423521
-0.0021880909334868
-0.0055291899479925
-0.0089172543957829
-0.0121179986745119
-0.0148934982717037
-0.0170274581760168
-0.0183521937578916
-0.0187710970640182
-0.0182699151337146
-0.0169168822467327
-0.0148549042642116
-0.0122838811948895
-0.0094321724027395
-0.0065280166454613
-0.0037807035259902
-0.0013671829365193
0.0005808325950056
0.0019849990494549
0.002824957948178
0.0031433417461812
0.003040122333914
0.0026502762921154
0.002120872028172
0.0015977318398654
0.0012113717384636
0.0010596613865345
0.001200039172545
0.0016520825447514
0.0023995423689484
0.0033917436376214
0.0045517310500144
0.0057903844863176
0.0070192134007811
0.008158529177308
0.0091429557651281
0.0099270660430192
0.0104903141036629
0.0108361653983592
0.0109846489503979
0.0109645575284957
0.0108091589063405
0.0105520291253924
0.0102183148264884
0.0098143443465232
0.0093214260414242
0.0086940852925181
0.0078640952706336
0.0067532751709222
0.0052905972115695
0.0034271124750375
0.0011521242558956
-0.0014886173885315
-0.0043876045383512
-0.0073890769854187
-0.0103087974712252
-0.0129513498395681
-0.0151258017867803
-0.0166639182716608
-0.0174446012824773
-0.0174179673194885
-0.0166127886623144
-0.0151253575459122
-0.0131040895357728
-0.0107344528660178
-0.0082195810973644
-0.0057596368715167
-0.0035352853592485
-0.0016925074160099
-0.000326720852172
0.0005282430211082
0.0009012645459733
0.0008741639903746
0.0005646386998705
0.0001087648706743
-0.0003563807113096
-0.0007117287605069
-0.0008695771102793
-0.0007781645981594
-0.0004236357053741
0.0001729183131828
0.0009660006035119
0.001895981025882
0.0028957366012036
0.0038954867050051
0.0048273522406816
0.0056345020420849
0.0062839114107191
0.0067712096497416
0.0071122776716947
0.0073306611739099
0.0074486141093075
0.007480732165277
0.0074284896254539
0.0072739301249384
0.0069748815149068
0.0064692022278904
0.0056863017380237
0.0045606084167957
0.0030499445274472
0.0011563363950699
-0.0010627064621075
-0.003497751429677
-0.0060009718872606
-0.0084021501243114
-0.0105221765115857
-0.0121875433251261
-0.0132525889202952
-0.013624494895339
-0.0132777653634548
-0.0122531335800886
-0.0106450365856289
-0.0085875978693366
-0.0062478450126945
-0.0038182043936103
-0.0014958358369767
0.0005468029994517
0.0021863961592316
0.0033591990359127
0.0040568192489445
0.0043153916485607
0.0042070299386978
0.0038318673614412
0.0033078656997531
0.002758796326816
0.002299120882526
0.0020219008438289
0.0019922056235373
0.0022396105341613
0.0027539352886378
0.0034913411363959
0.0043874606490135
0.0053707659244537
0.0063725765794515
0.0073346532881259
0.0082153491675853
0.0089908204972743
0.00964857917279
0.010177681222558
0.0105620678514242
0.0107788620516657
0.0107987429946661
0.010584857314825
0.0100892754271626
0.0092493584379553
0.0079918913543224
0.0062535218894481
0.004012709017843
0.0013135430635884
-0.0017317812889814
-0.0049536898732185
-0.0081399232149124
-0.0110595328733325
-0.0134942466393113
-0.0152653688564896
-0.0162536017596721
-0.0164102036505937
-0.0157559439539909
-0.0143749322742223
-0.0124102281406521
-0.0100537920370697
-0.0075234044343233
-0.0050355931743979
-0.0027842798735946
-0.0009218764025717
0.0004580477252602
0.0013269656337797
0.0017133140936493
0.0016902878414839
0.0013661924749612
0.0008749181870371
0.0003606842365115
-4.5569147914648056e-05
-0.0002469290047883
-0.000187620986253
0.0001483215019106
0.0007423588540405
0.0015525643248111
0.0025252001360058
0.0036007228773087
0.0047177295200526
0.0058166934177279
0.0068424120545387
0.007749599404633
0.0085113029927015
0.0091222617775201
0.0095936506986618
0.0099400309845805
0.0101631172001361
0.01024139393121
0.0101290810853242
0.009758673608303
0.0090449452400207
0.007895522750914
0.0062269675545394
0.0039840857498347
0.0011652651010081
-0.0021560774184763
-0.0058285165578126
-0.0096337683498859
-0.0133067145943641
-0.0165683757513761
-0.0191635470837354
-0.0208914391696453
-0.0216280482709407
-0.0213377084583044
-0.0200732368975877
-0.0179684795439243
-0.0152224414050579
-0.0120764095336198
-0.0087903179228305
-0.005618386901915
-0.002781381830573
-0.0004433393478393
0.0012984476052224
0.0024163108319044
0.0029529691673815
0.0030119828879833
0.0027388939633965
0.002303582150489
0.0018803621642291
0.0016213804483413
0.001635352615267
0.0019818022847175
0.0026747933588922
0.0036871377378702
0.0049564316868782
0.0063959509134292
0.007906905375421
0.0093899648636579
0.0107569228857755
0.0119408927857875
0.0129031185060739
0.0136337336152791
0.0141433663666248
0.0144520737230777
0.0145854959264397
0.014573473483324
0.0144417248666286
0.0141985025256872
0.0138222780078649
0.0132549507543444
0.0124038308858871
0.0111541831865906
0.0093934182077646
0.0070425863377749
0.0040877186693251
0.0006035760743543
-0.0032425140962004
-0.0072105540893971
-0.0110171549022197
-0.0143663557246327
-0.0169878117740154
-0.0186768267303705
-0.0193220861256122
-0.0189147312194108
-0.0175385065376758
-0.0153521131724119
-0.0125752426683902
-0.009469699114561
-0.0063071767799556
-0.0033347071148455
-0.0007491861470043
0.0013189306482672
0.0028099922928959
0.0037266153376549
0.0041247312910854
0.0041097151115536
0.0038251113146543
0.0034273194614797
0.0030603487975895
0.0028457823209464
0.0028812629170715
0.0032320069149136
0.0039177401922643
0.004909174516797
0.006136895623058
0.007506308145821
0.0089151803404092
0.0102691845968365
0.0114889880642294
0.012509667314589
0.0132796354591846
0.0137640424072742
0.0139503795653581
0.0138514004647731
0.0135042564943432
0.0129656288772821
0.0123022636398673
0.0115783875808119
0.0108390254899859
0.0100885089486837
0.0092766741290688
0.0083065321668982
0.0070560118183493
0.0054025594145059
0.003252389607951
0.0005701994523406
-0.0026009329594671
-0.0061324383132159
-0.0098200198262929
-0.0134121216833591
-0.0166450943797826
-0.0192724913358688
-0.0210890378803014
-0.0219543799757957
-0.021813916042447
-0.0207079369574785
-0.0187650527805089
-0.0161844491958618
-0.0132126677781343
-0.0101159559562802
-0.0071501303464174
-0.0045334724709391
-0.002427842002362
-0.0009300148230977
-6.837723776698112e-05
0.0001985512208193
-2.3713801056146625e-05
-0.0005808976129628
-0.0012906467309221
-0.0019665211439132
-0.0024427250027656
-0.0025929384864866
-0.0023403619416058
-0.0016619700472801
-0.0005856450879946
0.000819893728476
0.0024583283811807
0.0042198193259537
0.0059914793819189
0.0076650562696158
0.0091465599834918
0.01036521140486
0.0112800514325499
0.0118844173848629
0.0122035834938287
0.0122832190245389
0.0121727781370282
0.0119110848754644
0.0115186879411339
0.0109925046563148
0.0102962907403707
0.0093547850847244
0.0080661121755838
0.0063296905718743
0.00407698424533
0.001298485789448
-0.0019420851022005
-0.0055105732753872
-0.0092127323150634
-0.0128089934587478
-0.0160402823239564
-0.018663128837943
-0.0204821452498435
-0.0213706456124782
-0.0212787054479122
-0.0202327892184257
-0.0183324851095676
-0.0157457925379276
-0.0126963201910257
-0.0094373151659965
-0.006222965195775
-0.0032878518104553
-0.0008272549603134
0.0010254397056996
0.0022128710988909
0.0027538163121789
0.0027344215195626
0.0022933578584343
0.0015996492002159
0.000828985357657
0.0001474933233112
-0.0003019243013113
-0.0004194064531475
-0.0001651020720601
0.0004418848548084
0.001342547358945
0.0024596853181719
0.0037092471029609
0.0050059109926223
0.0062698880210518
0.0074307909235358
0.0084293121472001
0.0092230988666415
0.0097922123968601
0.0101369023323059
0.010273010469973
0.0102304238826036
0.0100484732538461
0.0097632575780153
0.00939317420125
0.0089280381798744
0.0083212042227387
0.0074920807965099
0.006342289969325
0.0047761728055775
0.0027250461280345
0.0001748795621097
-0.0028147455304861
-0.0061083547770977
-0.0095073115080595
-0.0127719407901167
-0.0156494118273258
-0.0179068855941295
-0.0193642638623714
-0.0199157055467367
-0.0195363946259021
-0.018280928954482
-0.0162767991423606
-0.0137108694761991
-0.0108113680034875
-0.0078275287523865
-0.0050019761547446
-0.0025373152457177
-0.0005717602325603
0.0008273107232525
0.0016607611905783
0.0019918468315154
0.0019318194827064
0.0016217766096815
0.0012178365141153
0.000873269571457
0.0007146408897824
0.0008198553696274
0.0012095876736566
0.0018581710755825
0.0027135545387864
0.0037111367564648
0.0047805071808397
0.0058508273214101
0.0068551674485206
0.0077344174496829
0.0084422715008258
0.008947848342359
0.0092359380796551
0.0093112112954258
0.0092038474977016
0.0089666815474629
0.00866365339607
0.0083559928461909
0.0080898208543658
0.0078871082514524
0.0077388896606862
0.007598252967
0.007375206798315
0.0069403741508722
0.0061443923041224
0.0048488704487681
0.00295778689906
0.0004466576501727
-0.0026137314271181
-0.0060512437485158
-0.0096122594550251
-0.0130021441727876
-0.015931012108922
-0.0181512609124183
-0.0194830019026994
-0.0198314171284437
-0.0191979464143514
-0.0176793858408927
-0.0154521111398935
-0.0127461869269609
-0.0098133664578199
-0.0068961167708039
-0.00420548254624
-0.0019048824906349
-9.67885716818273e-05
0.0011846791021525
0.0019743959419429
0.0023680035956203
0.0025007622316479
0.0025186887942254
0.0025559216737747
0.0027227958198636
0.00309678632766
0.0037146690301597
0.004570126067847
0.0056177559308707
0.0067846411839127
0.0079877208918333
0.0091476636007428
0.0101935192942619
0.0110650779679417
0.0117171611636877
0.0121230082586407
0.0122786620631814
0.0122058186680078
0.0119484607130289
0.0115640312433242
0.011110370978713
0.0106350751593709
0.0101693263277411
0.0097190542146563
0.009256069548428
0.0087176728993654
0.008015938103199
0.0070527074858546
0.0057355221360921
0.0039954991079866
0.0018101707100868
-0.0007772403769195
-0.003654136089608
-0.0066503807902336
-0.0095609528943896
-0.0121747441589832
-0.0143007459118962
-0.0157876834273338
-0.0165393985807895
-0.0165273752063512
-0.0157972387969493
-0.014461220242083
-0.0126768536865711
-0.0106236152350902
-0.008485353551805
-0.0064345831051468
-0.0046155480667948
-0.0031329081393778
-0.0020485464483499
-0.0013794254045933
-0.0010937431361526
-0.0011159256100654
-0.0013462326023727
-0.0016786374617367
-0.0020052141044288
-0.002217540051788
-0.0022165321279317
-0.0019297013059258
-0.0013244210276752
-0.0004081749648321
0.0007783271139487
0.0021685310639441
0.0036802738904953
0.0052269180305302
0.0067239110358059
0.0080929035320878
0.0092682093381881
0.0102021470665931
0.0108639104291796
0.0112377414479851
0.011324699036777
0.0111391162499785
0.0106950625777244
0.0099904248490929
0.0090002072975039
0.0076844664290547
0.0060040126554667
0.0039359852671623
0.0014901843387633
-0.0012710872106254
-0.0042197192087769
-0.0071698660030961
-0.009902455843985
-0.0121938744559884
-0.0138474404811859
-0.014721356332302
-0.0147452168166637
-0.0139291537925601
-0.0123644340783357
-0.0102094383910298
-0.0076663587242364
-0.0049566235393285
-0.0022993762977421
0.0001045840690494
0.0020866873674094
0.0035271977540105
0.0043716109357774
0.0046368846669793
0.0044026412069797
0.0037930626422166
0.0029563838616013
0.0020455969497561
0.0012038416462019
0.0005531246424652
0.000182070856681
0.0001369025412714
0.0004216604575049
0.0010038793552666
0.0018225556705147
0.0028010236565023
0.0038591029588133
0.0049164188094437
0.0058959326706826
0.0067376871593296
0.007411116734147
0.0079135857522487
0.008261039853096
0.0084768142551183
0.008578504435718
0.0085657080635428
0.0084082130342721
0.0080376099795103
0.0073548639193177
0.0062550813890993
0.0046548210084438
0.0025131271686404
-0.0001505515538156
-0.0032434889581054
-0.0066020074300467
-0.0100118517875671
-0.0132376989349722
-0.0160525422543287
-0.018262580037117
-0.0197233576327562
-0.0203475337475538
-0.0201099701225757
-0.0190518181771039
-0.0172795914113521
-0.0149542624130845
-0.0122725758701562
-0.0094466991722583
-0.0066827242262661
-0.0041597965173423
-0.0020159077830612
-0.0003420088905841
0.0008209577063098
0.0014863911783322
0.0017228178912773
0.001645220327191
0.0013966371770948
0.0011221433524042
0.0009425112511962
0.0009387480095028
0.0011522071436047
0.0015924416948109
0.0022426659706979
0.0030623455531895
0.0039927475154399
0.004968674853444
0.0059312223456799
0.0068347873166203
0.0076482156291604
0.0083541302010416
0.0089491233229637
0.0094411335885524
0.0098412726074457
0.0101565495133399
0.0103888791054487
0.0105329733341932
0.0105656366795301
0.0104364361613988
0.0100709851831197
0.0093820635229349
0.0082830423489212
0.0067054964601993
0.004620486870408
0.0020576259121298
-0.0008877373766154
-0.0040625454857945
-0.007269556634128
-0.0102831907570362
-0.0128754619508981
-0.0148490276187658
-0.0160641316324472
-0.0164522733539342
-0.0160178560763597
-0.0148330554366111
-0.0130302533507347
-0.0107892304658889
-0.0083144046366214
-0.0058078584261238
-0.0034493538551032
-0.0013833343982696
0.0002931719645857
0.0015383856371045
0.0023645269684493
0.0028297922108322
0.003027327125892
0.0030719796195626
0.0030844847206026
0.0031747461762279
0.0034271250478923
0.0038904636166989
0.0045737894251942
0.0054492801427841
0.0064638336189091
0.0075527760200202
0.0086485408246517
0.0096871796995401
0.0106166023761034
0.0114029264077544
0.0120299030095338
0.0124913426116108
0.0127839157357811
0.0129103614017367
0.0128881633281707
0.0127480700612068
0.0125235877931118
0.0122423730790615
0.0119192581623792
0.0115458378568291
0.0110784405842423
0.0104349125176668
0.0095073087140917
0.0081848138943314
0.0063789510168135
0.0040492317639291
0.0012241885997354
-0.0019927122630178
-0.0054326211102306
-0.0088802045211195
-0.0121016157791018
-0.014874167740345
-0.0170056410133838
-0.0183463878929615
-0.0188052058219909
-0.018368674442172
-0.0171092189848423
-0.015171498991549
-0.0127481017261743
-0.0100593296810984
-0.0073361187241971
-0.0048001478426158
-0.0026417654007673
-0.0009979938622564
6.474903784692287e-05
0.0005544556770473
0.0005459210369735
0.0001697649713605
-0.000405469443649
-0.0010001112241297
-0.0014498555101454
-0.0016237325035035
-0.0014346346724778
-0.000847986433655
0.0001147673465311
0.0013836562866345
0.0028553395532071
0.0044124526903033
0.005942634306848
0.0073488410562276
0.0085520567372441
0.009495485574007
0.0101509746164083
0.0105220051482319
0.0106419911608099
0.0105668855831027
0.0103618642315268
0.0100874658674001
0.0097896708175539
0.0094944089651107
0.009201324544847
