bvp
-0.0111053744331002
-0.0074410401284694
-0.003025003010407
0.0019052666611969
0.0070818830281496
0.0122294751927256
0.0170874204486608
0.0214305929839611
0.0250879619270563
0.0279575157910585
0.0300164483487606
0.0313208661973476
0.0319922380149364
0.0321950651705265
0.0321111753582954
0.0319190137088298
0.0317808203399181
0.0318314470350742
0.0321666188538074
0.0328313112258911
0.0338109135627746
0.0350285209715366
0.036347672343254
0.0375851318240165
0.0385358296334743
0.0389993339776992
0.0388004481792449
0.0378061570227146
0.0359391123056411
0.0331827886402606
0.0295820236206054
0.025247074663639
0.0203537978231906
0.0151207186281681
0.0097549557685852
0.0043875649571418
-0.0009694658219814
-0.006432432681322
-0.0122269056737422
-0.0186472572386264
-0.0259985998272895
-0.0345243960618972
-0.0443339571356773
-0.0553509071469306
-0.0672949254512786
-0.079701542854309
-0.0919756740331649
-0.1034630313515663
-0.1135264933109283
-0.1216180026531219
-0.1273338496685028
-0.1304475963115692
-0.130922645330429
-0.1289061605930328
-0.1247024983167648
-0.1187286302447319
-0.111464187502861
-0.1034056469798088
-0.0950233489274978
-0.0867216438055038
-0.0788100659847259
-0.0714887082576751
-0.0648444965481758
-0.0588601492345333
-0.0534340739250183
-0.048406109213829
-0.0435880422592163
-0.0387904979288578
-0.0338415428996086
-0.0286046881228685
-0.0229941755533218
-0.0169778168201446
-0.0105697698891162
-0.003821212798357
0.0031890161335468
0.0103633888065814
0.0175932440906763
0.0247683450579643
0.031788557767868
0.0385690666735172
0.0450385734438896
0.0511391572654247
0.0568268969655036
0.062069371342659
0.0668444111943245
0.0711380243301391
0.0749311447143554
0.0781764388084411
0.0807800665497779
0.0826020985841751
0.0834770649671554
0.0832465440034866
0.0817972347140312
0.0790977552533149
0.0752240344882011
0.0703666806221008
0.0648193284869194
0.0589489787817001
0.0531538426876068
0.0478218495845794
0.0432971119880676
0.0398505218327045
0.0376543886959552
0.036766268312931
0.0371254421770572
0.038562498986721
0.0408209115266799
0.043588638305664
0.0465325638651847
0.049330249428749
0.0517007783055305
0.0534313954412937
0.0543900355696678
0.0545211397111415
0.0538346022367477
0.0523962043225765
0.0503152087330818
0.0477282106876373
0.044788159430027
0.0416580736637115
0.0385006815195083
0.0354658439755439
0.0326808914542198
0.0302396435290575
0.028189543634653
0.026525454595685
0.0251925438642501
0.0240956842899322
0.0231156181544065
0.0221262909471988
0.021004194393754
0.019630366936326
0.0178918540477752
0.0156842079013586
0.0129101742058992
0.0094739273190498
0.0052833184599876
0.0002658031880855
-0.0056131929159164
-0.0123369358479976
-0.0198282971978187
-0.0279410220682621
-0.036449909210205
-0.0450536273419857
-0.0534021779894828
-0.0611391700804233
-0.0679421722888946
-0.0735523551702499
-0.0777939483523368
-0.0805878788232803
-0.081957146525383
-0.0820182710886001
-0.0809597447514534
-0.0790152475237846
-0.0764399319887161
-0.0734934508800506
-0.0704249590635299
-0.0674541443586349
-0.0647502243518829
-0.0624148473143577
-0.060475006699562
-0.0588889233767986
-0.0575587078928947
-0.0563409253954887
-0.0550560802221298
-0.0535066574811935
-0.0515048578381538
-0.0489012449979782
-0.0456084161996841
-0.0416135191917419
-0.0369724854826927
-0.0317877084016799
-0.026179265230894
-0.0202562846243381
-0.0140939513221383
-0.0077297901734709
-0.0011848479043692
0.005502319894731
0.0122450627386569
0.0188917852938175
0.0252250358462333
0.0309773385524749
0.0358629934489727
0.039613950997591
0.0420063585042953
0.042879719287157
0.0421581119298934
0.0398744568228721
0.0361889712512493
0.0313866771757602
0.0258459560573101
0.019992021843791
0.0142550067976117
0.0090330261737108
0.0046557821333408
0.0013620546087622
-0.0007026973180472
-0.0014828159473836
-0.0010079066269099
0.0006183348596096
0.0032330057583749
0.0066293375566601
0.0105733703821897
0.0148174036294221
0.0191082097589969
0.023199126124382
0.0268694274127483
0.0299427844583988
0.0322994403541088
0.0338798724114894
0.0346839278936386
0.03477493673563
0.0342828370630741
0.0333862677216529
0.0322714634239673
0.0310931410640478
0.0299515556544065
0.0288755055516958
0.0278192106634378
0.0266941934823989
0.0254206750541925
0.0239612627774477
0.022328607738018
0.0205817278474569
0.0188102908432483
0.0170976743102073
0.0154737643897533
0.0138808889314532
0.0121701685711741
0.0101301213726401
0.0075326170772314
0.004181059077382
-4.525668919086456e-05
-0.0051563698798418
-0.0110325561836361
-0.0174231529235839
-0.0239699855446815
-0.0302605871111154
-0.0358947589993476
-0.0405415222048759
-0.043979488313198
-0.046120099723339
-0.0470142588019371
-0.046840488910675
-0.0458674170076847
-0.0443970151245594
-0.0427060611546039
-0.0409978739917278
-0.0393785834312438
-0.0378658287227153
-0.0364173129200935
-0.0349617637693882
-0.0334216132760047
-0.0317234955728054
-0.0298012215644121
-0.0275961961597204
-0.025058589875698
-0.0221546478569507
-0.0188771467655897
-0.0152504574507474
-0.0113283954560756
-0.0071833916008472
-0.0028921598568558
0.0014684787020087
0.0058176219463348
0.0100716650485992
0.0141570530831813
0.0180286560207605
0.0216757431626319
0.0251053646206855
0.0283169001340866
0.0312867686152458
0.0339694842696189
0.036307655274868
0.0382407717406749
0.0397122204303741
0.0406766310334205
0.0411072969436645
0.0410074219107627
0.0404228158295154
0.0394402407109737
0.0381627939641475
0.0366805754601955
0.0350710861384868
0.0334410592913627
0.0319722555577755
0.0309155099093914
0.0305150989443063
0.0309018604457378
0.0320114679634571
0.0335589200258255
0.0350789278745651
0.036025583744049
0.0358947813510894
0.0343275107443332
0.0311780143529176
0.0265419781208038
0.0207381751388311
0.0142491441220045
0.0076438598334789
0.0015040505677461
-0.0036402475088834
-0.0073638055473566
-0.0093816937878727
-0.0095702596008777
-0.0079813487827777
-0.0048453919589519
-0.0005557015538215
0.0043664649128913
0.0093264766037464
0.013725021854043
0.0170206353068351
0.0187700912356376
0.0186519175767898
0.0164854228496551
0.0122446827590465
0.0060567259788513
-0.0018184818327426
-0.0110197626054286
-0.0211232751607894
-0.0316817611455917
-0.0422555021941661
-0.052432183176279
-0.0618391744792461
-0.0701520442962646
-0.0771032348275184
-0.082494243979454
-0.0862116813659668
-0.0882415175437927
-0.0886709988117218
-0.0876753777265548
-0.0854974836111068
-0.0824240148067474
-0.0787554532289505
-0.074774369597435
-0.070722296833992
-0.0667869746685028
-0.0630963891744613
-0.0597190633416175
-0.0566697567701339
-0.0539179667830467
-0.0513982251286506
-0.0490220338106155
-0.0466906167566776
-0.0443080700933933
-0.0417936258018016
-0.0390887483954429
-0.0361568294465541
-0.0329779125750064
-0.0295422375202178
-0.0258479509502649
-0.0219038687646389
-0.0177344288676977
-0.013389291241765
-0.0089535359293222
-0.0045462921261787
-0.0003081560134887
0.0036133788526058
0.0070790164172649
0.0099757350981235
0.0122335013002157
0.01383544690907
0.0148224327713251
0.0152918472886085
0.015388861298561
0.0152917690575122
0.0151923969388008
0.0152739435434341
0.0156924128532409
0.0165642127394676
0.0179578214883804
0.0198885761201381
0.0223178677260875
0.0251597352325916
0.0282956659793853
0.0315924771130085
0.0349156409502029
0.0381345562636852
0.0411260202527046
0.0437847450375556
0.0460368543863296
0.0478460565209388
0.04921156167984
0.0501638799905777
0.050761055201292
0.051081046462059
0.0512089841067791
0.0512241683900356
0.0511900335550308
0.0511484034359455
0.051122311502695
0.0511235743761062
0.0511511787772178
0.051178079098463
0.0511403828859329
0.0509367361664772
0.0504323244094848
0.0494659021496772
0.0478666611015796
0.0454827062785625
0.0422162003815174
0.0380548201501369
0.0330865159630775
0.0274957660585641
0.0215506330132484
0.015583086758852
0.0099554266780614
0.0050161555409431
0.0010596737265586
-0.001702856272459
-0.003161784261465
-0.0033177584409713
-0.0022784359753131
-0.0002389438450336
0.0025461688637733
0.0057912599295377
0.0092124734073877
0.0125602390617132
0.0156389810144901
0.0183167606592178
0.0205309353768825
0.0222852248698472
0.0236348714679479
0.024664906784892
0.0254670344293117
0.0261194612830877
0.026676207780838
0.0271692723035812
0.0276153124868869
0.028016310185194
0.0283574908971786
0.0286085531115531
0.028723519295454
0.0286348741501569
0.0282480809837579
0.0274432897567749
0.0260840896517038
0.0240342784672975
0.0211846400052309
0.0174822937697172
0.0129524478688836
0.007705689407885
0.0019284561276435
-0.0041354661807417
-0.0102061731740832
-0.0159913189709186
-0.0212071910500526
-0.025597009807825
-0.0289537273347377
-0.0311444029211998
-0.0321239158511161
-0.0319359265267849
-0.0307094659656286
-0.0286520980298519
-0.0260318778455257
-0.0231463871896266
-0.0202878359705209
-0.0177143961191177
-0.0156334340572357
-0.0141955344006419
-0.0134914014488458
-0.0135469697415828
-0.0143193649128079
-0.0156985893845558
-0.0175199210643768
-0.0195872001349926
-0.0216993801295757
-0.0236715525388717
-0.0253511369228363
-0.026635143905878
-0.0274810213595628
-0.0279004536569118
-0.0279451441019773
-0.0276990365236997
-0.0272791236639022
-0.0268387887626886
-0.0265662558376789
-0.0266724154353141
-0.0273648146539926
-0.0288130659610033
-0.031116047874093
-0.0342743583023548
-0.038173995912075
-0.0425905585289001
-0.0472103729844093
-0.0516604930162429
-0.0555453076958656
-0.0584857352077961
-0.060154840350151
-0.0603082925081253
-0.058811604976654
-0.0556598640978336
-0.0509808808565139
-0.0450190491974353
-0.0381050966680049
-0.0306192524731159
-0.0229501668363809
-0.0154491234570741
-0.0083895539864897
-0.0019481964409351
0.0037899964954704
0.0088155539706349
0.0131739154458045
0.0169414058327674
0.020202936604619
0.0230370797216892
0.0255090780556201
0.0276704132556915
0.0295647233724594
0.0312371179461479
0.0327407121658325
0.0341361165046691
0.0354828685522079
0.0368274003267288
0.0381951592862606
0.0395870022475719
0.0409734584391117
0.0422844067215919
0.043397631496191
0.0441351234912872
0.0442782342433929
0.0436005182564258
0.0419064536690712
0.0390687696635723
0.0350580289959907
0.0299579091370105
0.0239661745727062
0.0173817500472068
0.0105728236958384
0.0039302022196352
-0.0021730016451328
-0.0074066803790628
-0.0115075428038835
-0.0143040036782622
-0.0157293304800987
-0.0158209279179573
-0.0147139150649309
-0.0126310624182224
-0.0098628383129835
-0.0067345025017857
-0.0035684313625097
-0.0006520077586174
0.0017856573686003
0.0035894634202122
0.0046879644505679
0.0050952909514307
0.0048991949297487
0.0042341360822319
0.0032519591040909
0.0021011196076869
0.0009140246547758
-0.0001979758962988
-0.0011430252343416
-0.0018478468991816
-0.0022629299201071
-0.0023712487891316
-0.0021924851462244
-0.0017774170264601
-0.0011992007493972
-0.0005520144477486
4.435237497091293e-05
0.0004410110414028
0.0004650708287954
-6.14384189248085e-05
-0.001296448521316
-0.0033535277470946
-0.0062741506844758
-0.0100011136382818
-0.0143676875159144
-0.0191059224307537
-0.0238700527697801
-0.0282763130962848
-0.031953290104866
-0.0345851220190525
-0.0359376855194568
-0.0358731150627136
-0.0343599617481231
-0.0314784944057464
-0.0274159889668226
-0.0224475506693124
-0.0169032178819179
-0.0111314691603183
-0.0054664029739797
-0.0001982665853574
0.0044471733272075
0.0083187688142061
0.0113466205075383
0.0135417925193905
0.0149831855669617
0.0157983172684907
0.0161459222435951
0.0162004940211772
0.016134850680828
0.0160991642624139
0.0162032265216112
0.0165105238556861
0.0170427877455949
0.0177883245050907
0.0187115184962749
0.0197612531483173
0.0208729580044746
0.0219657979905605
0.022941630333662
0.0236833356320858
0.0240506064146757
0.0238827653229236
0.023016270250082
0.0213145017623901
0.0187024008482694
0.0151941748335957
0.0109032616019248
0.0060344715602695
0.0008645914494991
-0.004282884299755
-0.0090663749724626
-0.0131593644618988
-0.0162841044366359
-0.0182384867221117
-0.0189159736037254
-0.0183199644088745
-0.0165666285902261
-0.0138719929382205
-0.0105265695601701
-0.0068589779548347
-0.0031934049911797
0.0001855492591857
0.0030552665702998
0.005269331857562
0.0067636487074196
0.0075515671633183
0.0077104051597416
0.0073640150949358
0.0066637089475989
0.0057700648903846
0.0048363571986556
0.0039915088564157
0.0033274088054895
0.0028967149555683
0.0027167322114109
0.0027740262448787
0.0030313814058899
0.0034375144168734
0.0039327256381511
0.0044438317418098
0.0048740720376372
0.0051005920395255
0.0049815289676189
0.0043675731867551
0.0031188437715172
0.0011291643604636
-0.0016469778493046
-0.0051709804683923
-0.0093047646805644
-0.0138144651427865
-0.0183984115719795
-0.0227232035249471
-0.0264553073793649
-0.0292955636978149
-0.0310157053172588
-0.0314822234213352
-0.0306656658649444
-0.0286395512521266
-0.025569412857294
-0.0216963775455951
-0.0173152815550565
-0.0127431862056255
-0.0082834064960479
-0.0041980314999818
-0.0006906930357217
0.0021090684458613
0.0041560991667211
0.0054875519126653
0.0062110810540616
0.0064832917414605
0.0064802663400769
0.006369924172759
0.0062925396487116
0.006350012961775
0.0066028395667672
0.0070737646892666
0.0077558541670441
0.0086197834461927
0.0096178576350212
0.0106846997514367
0.011735301464796
0.0126650761812925
0.0133517039939761
0.0136558040976524
0.0134245678782463
0.0125035978853702
0.0107627287507057
0.0081351771950721
0.0046518710441887
0.0004535047337412
-0.0042197373695671
-0.0090548582375049
-0.0137042477726936
-0.0178250167518854
-0.0211101993918418
-0.0233157239854335
-0.024288298562169
-0.0239845924079418
-0.0224688239395618
-0.0198940280824899
-0.0164830219000577
-0.0125111015513539
-0.008283176459372
-0.0041043139062821
-0.0002481307601556
0.0030688843689858
0.005703164730221
0.0075932871550321
0.008762665092945
0.0093081593513488
0.0093725062906742
0.0091162733733654
0.0087014716118574
0.0082782451063394
0.0079708248376846
0.0078714285045862
0.0080404505133628
0.0085045462474226
0.0092529458925127
0.0102361161261796
0.011366281658411
0.0125166224315762
0.013523050583899
0.0141962189227342
0.0143412677571177
0.0137788727879524
0.0123659707605838
0.0100166574120521
0.0067262323573231
0.002594981342554
-0.0021633936557918
-0.0072379941120743
-0.0122571382671594
-0.0168351959437131
-0.0206193402409553
-0.0233268123120069
-0.0247687231749296
-0.0248642712831497
-0.023647490888834
-0.0212621763348579
-0.0179446507245302
-0.0139953605830669
-0.0097393216565251
-0.0054863090626895
-0.0015044282190501
0.0019945357926189
0.0048683634959161
0.0070546339266002
0.0085663981735706
0.0094758514314889
0.0098998937755823
0.0099852811545133
0.0098864659667015
0.0097464304417371
0.0096866190433502
0.0097998203709721
0.0101456744596362
0.0107501996681094
0.0116052497178316
0.0126664862036705
0.013850325718522
0.0150308441370725
0.0160421170294284
0.0166894681751728
0.0167696941643953
0.0160982124507427
0.0145379733294248
0.0120259998366236
0.0085936393588781
0.0043772291392087
-0.0003853468224406
-0.0053751589730381
-0.0102236829698085
-0.0145529406145215
-0.0180250685662031
-0.0203856974840164
-0.0214844737201929
-0.0212769452482461
-0.0198191720992326
-0.0172579269856214
-0.0138146970421075
-0.0097643546760082
-0.005411073565483
-0.0010608742013573
0.0030065425671637
0.0065626855939626
0.0094519210979342
0.0116003900766372
0.0130068585276603
0.0137306917458772
0.0138835199177265
0.0136150000616908
0.0130928121507167
0.0124851800501346
0.0119463540613651
0.0116014732047915
0.0115327760577201
0.0117720402777194
0.0122984908521175
0.0130366403609514
0.0138534568250179
0.0145637337118387
0.0149494186043739
0.0147869978100061
0.0138793708756566
0.0120905498042702
0.0093731023371219
0.005782033316791
0.0014787426916882
-0.0032756775617599
-0.0081468466669321
-0.0127722630277276
-0.0168067254126071
-0.0199553556740283
-0.0219988767057657
-0.0228124354034662
-0.0223735310137271
-0.0207602214068174
-0.0181386247277259
-0.0147406347095966
-0.0108404215425252
-0.0067309187725186
-0.0026967064477503
0.0010117267956957
0.0041937693022191
0.0067060589790344
0.008471954613924
0.0094927959144115
0.00984847266227
0.0096824737265706
0.0091769844293594
0.0085244290530681
0.0079011097550392
0.0074479128234088
0.0072608664631843
0.0073887286707758
0.0078306542709469
0.008535181172192
0.0094060003757476
0.0103092463687062
0.0110767129808664
0.0115136504173278
0.0114201586693525
0.0106215300038456
0.0089990776032209
0.0065152398310601
0.0032270522788167
-0.0007134173065423
-0.0050711263902485
-0.009552489966154
-0.0138373505324125
-0.0176104977726936
-0.0205908194184303
-0.0225600227713584
-0.0233856160193681
-0.0230317097157239
-0.0215584859251976
-0.019113814458251
-0.0159175861626863
-0.0122359162196516
-0.0083496486768126
-0.0045287040993571
-0.0010127068962901
0.0020085987634956
0.0044124312698841
0.0061503695324063
0.0072458735667169
0.0077849989756941
0.0078980633988976
0.0077351336367428
0.0074477344751358
0.0071768998168408
0.0070367935113608
0.0070981075987219
0.0073827668093144
0.0078695714473724
0.0085058724507689
0.0092185959219932
0.0099143870174884
0.0104699321091175
0.0107283573597669
0.0105135664343833
0.0096611874178051
0.0080565474927425
0.0056650349870324
0.0025451513938605
-0.0011517801322042
-0.0051911282353103
-0.0092788347974419
-0.0130982026457786
-0.0163470581173896
-0.018768923357129
-0.0201805457472801
-0.0204912163317203
-0.0197074897587299
-0.0179266147315502
-0.015322521328926
-0.0121267056092619
-0.0086040627211332
-0.0050223022699356
-0.0016243148129433
0.001387994037941
0.0038645924068987
0.0057177897542715
0.0069283992052078
0.007543318439275
0.0076624760404229
0.0074199871160089
0.0069659487344324
0.0064478693529963
0.0059925019741058
0.0056935381144285
0.0056073926389217
0.0057543786242604
0.0061227641999721
0.0066721746698021
0.0073305484838783
0.0079891849309206
0.0085061145946383
0.0087192971259355
0.0084684267640113
0.0076224789954721
0.0061027645133435
0.0038956454955041
0.0010606255382299
-0.0022641438990831
-0.005865978077054
-0.0094766886904835
-0.0128051955252885
-0.0155748054385185
-0.0175556540489196
-0.018588988110423
-0.0186024270951747
-0.0176168549805879
-0.0157442651689052
-0.0131745729595422
-0.0101529797539114
-0.0069486116990447
-0.0038173587527126
-0.0009732490871101
0.0014229849912226
0.0032694283872842
0.0045295725576579
0.005231702234596
0.0054585854522883
0.0053313164971768
0.0049884002655744
0.0045649553649127
0.0041783065535128
0.0039196340367197
0.0038497056812047
0.0039980793371796
0.0043631792068481
0.0049132267013192
0.0055921296589076
0.0063296984881162
0.0070478352718055
0.0076565002091228
0.0080461855977773
0.0080912429839372
0.0076688891276717
0.0066827335394918
0.0050783194601535
0.0028527830727398
6.501143798232079e-05
-0.0031577195040881
-0.0066241286695003
-0.0100958123803138
-0.0133116245269775
-0.016016075387597
-0.0179895423352718
-0.0190729908645153
-0.0191851295530796
-0.0183319263160228
-0.0166027918457984
-0.0141572998836636
-0.0112106008455157
-0.0080133015289902
-0.0048207794316112
-0.0018593415152281
0.0006982467602938
0.0027431447524577
0.0042295577004551
0.005167172756046
0.0056127207353711
0.0056614796631038
0.0054342215880751
0.005059209652245
0.004654043354094
0.0043141427449882
0.0041090147569775
0.0040796743705868
0.004237019456923
0.0045664929784834
0.0050374642014503
0.0056127691641449
0.0062524122186005
0.0069065843708813
0.0075052441097795
0.0079543124884366
0.008139326237142
0.0079356301575899
0.0072251996025443
0.0059169265441596
0.0039655901491642
0.001386965624988
-0.0017316385637968
-0.0052287373691797
-0.0088792983442544
-0.0124180829152464
-0.0155691932886838
-0.0180800575762987
-0.019756406545639
-0.020485483109951
-0.020242964848876
-0.0190892554819583
-0.0171575099229812
-0.0146350255236029
-0.0117413289844989
-0.0087036406621336
-0.0057309628464281
-0.0029949862509965
-0.0006205076351761
0.0013199872337281
0.0028029195964336
0.0038409233093261
0.0044741136953234
0.0047675645910203
0.0048083709552884
0.0047005689702928
0.0045548160560429
0.0044737104326486
0.0045403558760881
0.0048132585361599
0.0053242417052388
0.0060727978125214
0.0070195421576499
0.0080906627699732
0.0091889891773462
0.0101980185136199
0.0109822768718004
0.0113936886191368
0.0112844053655862
0.0105258291587233
0.0090351682156324
0.006802131421864
0.0039029805921018
0.0004971702583134
-0.0031889416277408
-0.0068863756023347
-0.0103116380050778
-0.0131928538903594
-0.0152944820001721
-0.0164427943527698
-0.0165455192327499
-0.0156016498804092
-0.0137016819790005
-0.0110171511769294
-0.0077809626236557
-0.0042605036869645
-0.0007277503609657
0.0025680903345346
0.0054229600355029
0.0076923985034227
0.0092995278537273
0.0102416221052408
0.0105913178995251
0.0104842791333794
0.0100938389077782
0.0096007296815514
0.0091654155403375
0.0089093521237373
0.0089079421013593
0.0091890878975391
0.0097344033420085
0.0104906894266605
0.011390627361834
0.0123676098883152
0.0133566474542021
0.0142861660569906
0.0150663908571004
0.0155787710100412
0.0156752970069646
0.0151948807761073
0.0139911044389009
0.0119600743055343
0.0090651987120509
0.0053579215891659
0.0009872196242213
-0.0038072643801569
-0.0087155792862176
-0.0133880767971277
-0.0174738503992557
-0.020658666267991
-0.0226970762014389
-0.0234411209821701
-0.0228606294840574
-0.0210442449897527
-0.0181815475225448
-0.0145366052165627
-0.0104192560538649
-0.0061540799215435
-0.0020492170006036
0.0016305493190884
0.0046865455806255
0.0070042200386524
0.0085587091743946
0.0094048036262393
0.0096596144139766
0.0094824275001883
0.0090492060407996
0.0085267815738916
0.0080562075600028
0.0077467174269258
0.0076755979098379
0.007888913154602
0.0084003005176782
0.0091908005997538
0.0102137010544538
0.0114033445715904
0.012686657719314
0.0139953829348087
0.0152709018439054
0.0164544358849525
0.017468087375164
0.0182017963379621
0.018511775881052
0.0182262919843196
0.0171636492013931
0.0151661122217774
0.0121383853256702
0.0080818189308047
0.0031198167707771
-0.0024991075042635
-0.0084264772012829
-0.01425501704216
-0.0195654146373271
-0.0239734575152397
-0.0271687749773263
-0.0289398860186338
-0.0291901100426912
-0.0279480144381523
-0.0253656730055809
-0.0217013750225305
-0.0172916948795318
-0.0125136701390147
-0.0077414093539118
-0.0033088382333517
0.0005176840350031
0.0035602243151515
0.0057423482649028
0.0070887976326048
0.007709814235568
0.0077735129743814
0.0074728559702634
0.0069985436275601
0.0065241679549217
0.0061955661512911
0.0061202868819236
0.0063630254007875
0.0069444915279746
0.0078429589048028
0.0090053100138902
0.0103609450161457
0.0118292775005102
0.01332563534379
0.0147685911506414
0.0160842277109622
0.0172088611871004
0.018095338717103
0.0187162440270185
0.0190503112971782
0.0190548282116651
0.0186453759670257
0.0176959242671728
0.0160541608929634
0.0135667063295841
0.010116989724338
0.0056713582016527
0.0003149905242025
-0.0057359207421541
-0.0121491812169551
-0.0185154601931571
-0.0243957228958606
-0.0293660834431648
-0.0330608822405338
-0.0352126732468605
-0.0356853157281875
-0.0344912447035312
-0.0317826643586158
-0.0278250593692064
-0.0229679867625236
-0.0176119897514581
-0.0121667562052607
-0.007007441483438
-0.0024410274345427
0.0013111707521602
0.0041188900358974
0.0059453211724758
0.0068460754118859
0.0069572147913277
0.0064742304384708
0.0056277266703546
0.00465800287202
0.0037893285043537
0.0032028525602072
0.0030146860517561
0.0032721031457185
0.0039652651175856
0.0050389855168759
0.0064035449177026
0.0079518938437104
0.0095765702426433
0.0111792925745248
0.012676803395152
0.0140058668330311
0.015126684680581
0.0160216148942708
0.0166892744600772
0.0171395670622587
0.0173841752111911
0.0174162313342094
0.0171926282346248
0.0166272334754467
0.0155905745923519
0.0139211118221282
0.0114541398361325
0.0080638565123081
0.0037088599056005
-0.0015339246019721
-0.0074621820822358
-0.0137665662914514
-0.0200599934905767
-0.0259135439991951
-0.0309031270444393
-0.034662902355194
-0.0369306355714798
-0.0375724732875824
-0.0365894846618175
-0.0341114960610866
-0.0303776692599058
-0.0257096886634826
-0.0204849243164062
-0.0151044325903058
-0.0099511872977018
-0.0053485152311623
-0.0015323148109018
0.001362488605082
0.0033063164446502
0.0043681673705577
0.0046982862986624
0.004503346979618
0.0040144445374608
0.0034527729731053
0.0030029357876628
0.0028009058441966
0.0029331361874938
0.0034380757715553
0.0043090395629405
0.0055015799589455
0.0069442642852663
0.008550358004868
0.010227546095848
0.0118840616196393
0.0134329088032245
0.0147964879870414
0.015914311632514
0.0167503133416175
0.0172924995422363
0.0175470933318138
0.0175305232405662
0.0172580704092979
0.0167296286672353
0.0159149337559938
0.0147467628121376
0.0131268305703997
0.0109397107735276
0.0080776130780577
0.0044740764424204
0.0001311162486672
-0.0048621646128594
-0.010315541177988
-0.015939513221383
-0.0213712733238935
-0.0262192506343126
-0.0301146246492862
-0.0327566191554069
-0.0339463949203491
-0.0336086563766002
-0.0317963100969791
-0.0286787413060665
-0.0245212614536285
-0.0196601245552301
-0.0144704328849911
-0.0093281865119934
-0.004574064631015
-0.0004810957470908
0.002770806197077
0.0051055434159934
0.0065446649678051
0.0071889506652951
0.0071976752951741
0.0067701111547648
0.0061214617453515
0.0054548187181353
0.0049417642876505
0.004711590707302
0.0048431581817567
0.0053634284995496
0.0062544760294258
0.0074619054794311
0.0089045884087681
0.0104877017438411
0.0121120773255825
0.0136803556233644
0.015107044018805
0.0163279864937067
0.0173020623624324
0.0180087685585021
0.0184446163475513
0.0186177156865596
0.0185454729944467
0.0182495974004268
0.0177338607609272
0.0169557742774486
0.015819227322936
0.0141909699887037
0.0119277648627758
0.0089119877666234
0.0050915889441967
0.0005093524232506
-0.0046848179772496
-0.0102380700409412
-0.0158172789961099
-0.0210446044802665
-0.0255401469767093
-0.0289709139615297
-0.0310934819281101
-0.0317769683897495
-0.0310102589428424
-0.0289000552147626
-0.0256585348397493
-0.0215794462710618
-0.0170036982744932
-0.0122825130820274
-0.0077491197735071
-0.0036950877401977
-0.0003440970322117
0.0021707485429942
0.0038155238144099
0.0046451827511191
0.0047810622490942
0.0043897693976759
0.0036680093035101
0.0028262785635888
0.0020655079279094
0.0015498741995543
0.0013863279018551
0.0016197512159124
0.0022418200969696
0.0032033373136073
0.0044260541908442
0.0058188792318105
0.0072934930212795
0.0087690046057105
0.0101710623130202
0.0114338295534253
0.0125031573697924
0.0133394580334424
0.0139178559184074
0.0142200319096446
0.0142190987244248
0.0138657204806804
0.0130827780812978
0.011772422119975
0.0098346918821334
0.007193895522505
0.0038286545313894
-0.0002011540345847
-0.0047406959347426
-0.0095469336956739
-0.0143132433295249
-0.0187027063220739
-0.022384813055396
-0.0250737443566322
-0.0265616755932569
-0.026741337031126
-0.0256182551383972
-0.0233098063617944
-0.0200287047773599
-0.0160588398575782
-0.0117285354062914
-0.0073782838881015
-0.0033249515108764
0.0001730585936456
0.0029452089220285
0.0049218316562473
0.0061252703890204
0.0066491411998867
0.0066357040777802
0.0062537919729948
0.0056820134632289
0.0050967810675501
0.0046539213508367
0.0044669527560472
0.0045977723784744
0.0050604189746081
0.0058290031738579
0.0068461364135146
0.008033555932343
0.0093053169548511
0.0105777280405163
0.0117749404162168
0.0128351021558046
0.01371153537184
0.0143605275079607
0.0147216096520423
0.014703968539834
0.0141891166567802
0.0130516095086932
0.0111897131428122
0.0085536381229758
0.0051648588851094
0.0011270407121628
-0.0033730322029441
-0.0080765886232256
-0.0126718282699584
-0.0168195217847824
-0.0201901774853467
-0.022508667781949
-0.0235926881432533
-0.0233742818236351
-0.0219011530280113
-0.0193225480616092
-0.0158674269914627
-0.0118200220167636
-0.0074947942048311
-0.0032104821875691
0.0007381397299468
0.0041104471310973
0.0067445635795593
0.0085668414831161
0.0095876799896359
0.0098919551819562
0.0096251647919416
0.0089716957882046
0.0081290965899825
0.0072842710651457
0.0065933633595705
0.0061684655956923
0.0060731559060513
0.0063259899616241
0.006909186951816
0.0077778794802725
0.0088683012872934
0.0101063381880521
0.0114150652661919
0.0127174267545342
0.0139329629018902
0.0149682443588972
0.0157047696411609
0.0159950591623783
0.0156703535467386
0.0145575636997818
0.0125089008361101
0.0094434758648276
0.0053861467167735
0.0004849286051467
-0.0049974154680967
-0.0107072824612259
-0.0162334684282541
-0.0211528036743402
-0.0250839628279209
-0.0277323611080646
-0.0289160814136266
-0.0285790264606475
-0.0267944410443305
-0.0237536244094371
-0.0197397544980049
-0.0150938453152775
-0.0101810842752456
-0.0053584636189043
-0.0009409552440047
0.0028283749707043
0.00579738849774
0.0079119689762592
0.0092116296291351
0.0098125273361802
0.0098791113123297
0.0095967184752225
0.0091541456058621
0.0087276762351393
0.0084627298638224
0.008462349884212
0.0087870610877871
0.0094584776088595
0.0104585224762558
0.0117293503135442
0.0131816565990448
0.0147095834836363
0.0162058733403682
0.0175729095935821
0.0187306534498929
0.0196227859705686
0.020219637081027
0.0205146260559558
0.0205102954059839
0.0201973617076873
0.0195350274443626
0.0184382479637861
0.0167806185781955
0.014422564767301
0.0112570952624082
0.0072496971115469
0.0024606622755527
-0.0029439744539558
-0.0086938049644231
-0.01443912088871
-0.0197956841439008
-0.0243905279785394
-0.0279010590165853
-0.0300906132906675
-0.0308354701846838
-0.0301352404057979
-0.0281079579144716
-0.0249739531427621
-0.0210308544337749
-0.0166215244680643
-0.0120987491682171
-0.0077930861152708
-0.0039846706204116
-0.0008762256475165
0.0014262036420404
0.0029154119547456
0.0036709429696202
0.0038399086333811
0.003611525055021
0.0031905388459563
0.0027763112448155
0.0025438931770622
0.0026249988004565
0.0030930996872484
0.0039551076479256
0.0051554390229284
0.0065975249744951
0.0081746093928813
0.0097925309091806
0.0113735143095254
0.0128491399809718
0.0141579275950789
0.0152499517425894
0.0160918720066547
0.01666752807796
0.0169761460274457
0.0170327946543693
0.0168686732649803
0.0165258031338453
0.0160467363893985
0.0154651813209056
0.0147993909195065
0.0140409134328365
0.0131380464881658
0.0119887059554457
0.0104497307911515
0.0083582615479826
0.0055663362145423
0.001984498463571
-0.0023824106901884
-0.0074192597530782
-0.012903993949294
-0.0185275413095951
-0.0239287838339805
-0.0287386775016784
-0.0326218232512474
-0.0353095270693302
-0.036628358066082
-0.036520667374134
-0.0350488722324371
-0.0323849767446517
-0.0287886876612901
-0.0245771426707506
-0.0200920533388853
-0.0156677681952714
-0.0115997986868023
-0.0081161819398403
-0.0053578512743115
-0.0033710985444486
-0.0021118882577866
-0.0014611291699111
-0.0012489755172282
-0.0012834563385695
-0.0013770852237939
-0.001368602272123
-0.0011370652355253
-0.0006034604739397
0.0002737601753324
0.0014966111630201
0.0030231773853302
0.0047729494981467
0.0066413898020982
0.0085165230557322
0.0102937230840325
0.0118872486054897
0.013236136175692
0.0143049135804176
0.0150823611766099
0.0155781917273998
0.0158181879669427
0.0158403553068637
0.0156913045793771
0.0154207181185483
0.0150737036019563
0.0146817993372678
0.014253431931138
0.0137636866420507
0.0131438365206122
0.0122777819633483
0.0110148079693317
0.0091976877301931
0.0066981585696339
0.0034525115042924
-0.0005103312432765
-0.0050573763437569
-0.0099621750414371
-0.0149293877184391
-0.0196235701441764
-0.0237048454582691
-0.0268696583807468
-0.0288867652416229
-0.0296240262687206
-0.02906184643507
-0.0272874720394611
-0.0244778059422969
-0.0208844132721424
-0.0168157890439033
-0.0126036824658513
-0.008559912443161
-0.0049435943365097
-0.0019449274986982
0.0003253679606132
0.0018442794680595
0.0026706811040639
0.002925805049017
0.0027741754893213
0.0024063922464847
0.0020181101281195
0.0017856885679066
0.0018429670017212
0.0022681450936943
0.0030821347609162
0.0042510610073804
0.0056946091353893
0.0073042935691773
0.0089654494076967
0.0105741033330559
0.012047067284584
0.0133267790079116
0.014378267340362
0.0151808355003595
0.0157248266041278
0.0160161796957254
0.0160821303725242
0.0159681364893913
0.0157232843339443
0.0153889907523989
0.0149985877797007
0.0145750064402818
0.0141238905489444
0.0136315505951642
0.0130634550005197
0.0123551450669765
0.0114056430757045
0.0100867059081792
0.0082647586241364
0.0058266571722924
0.0027073877863585
-0.0010803723707795
-0.0054260441102087
-0.0101246237754821
-0.0148993767797946
-0.0194311719387769
-0.0233917590230703
-0.026483055204153
-0.0284796729683876
-0.0292595252394676
-0.0288091003894805
-0.0272117890417575
-0.0246350821107625
-0.0213171225041151
-0.0175439193844795
-0.0136177893728017
-0.0098247788846492
-0.0064045921899378
-0.0035265197511762
-0.0012806587619706
0.0003142987261526
0.001299767405726
0.0017707550432533
0.0018653534352779
0.0017428273567929
0.0015621070051565
0.0014683913905173
0.0015781805850565
0.0019643276464194
0.0026536234654486
0.0036340304650366
0.0048617459833621
0.0062694381922483
0.0077783539891242
0.0093085626140236
0.0107836667448282
0.0121349338442087
0.0133083015680313
0.0142685938626527
0.0149967530742287
0.0154850827530026
0.0157363172620534
0.0157659705728292
0.0156022179871797
0.0152807524427771
0.0148383397608995
0.0143096605315804
0.0137265501543879
0.0131120681762695
0.0124656148254871
0.0117480810731649
0.0108782239258289
0.009739002212882
0.0081935105845332
0.0061157140880823
0.0034268503077328
0.0001228149048984
-0.0037144310772418
-0.0079215206205844
-0.0122677292674779
-0.0164778567850589
-0.0202659033238887
-0.0233686864376068
-0.0255693569779396
-0.0267151407897472
-0.0267343111336231
-0.0256478153169155
-0.0235705897212028
-0.0207002963870763
-0.0172922071069479
-0.0136282229796051
-0.00998957734555
-0.0066320723854005
-0.0037633043248206
-0.0015250421129167
1.8356950022280216e-05
0.0008832701714709
0.0011578996200114
0.0009815252851694
0.0005214537959545
-4.555820487439632e-05
-0.0005510707851499
-0.0008529021870344
-0.0008494248613715
-0.0004881818313151
0.000232676975429
0.0012711042072623
0.0025543239898979
0.0039937240071594
0.0054977415129542
0.0069827893748879
0.0083793364465236
0.0096311755478382
0.0106947757303714
0.0115439761430025
0.0121761597692966
0.0126107418909668
0.0128765376284718
0.0129976738244295
0.012985466979444
0.0128309223800897
0.0124951638281345
0.01190678589046
0.0109713403508067
0.0095874425023794
0.0076679340563714
0.0051667685620486
0.0021016793325543
-0.0014384137466549
-0.0053008953109383
-0.0092816203832626
-0.0131369726732373
-0.0166027266532182
-0.0194209609180688
-0.021370131522417
-0.0222957003861665
-0.0221338234841823
-0.0209194459021091
-0.0187793783843517
-0.0159158334136009
-0.0125822005793452
-0.0090523865073919
-0.0055904975160956
-0.002426731865853
0.0002599046565592
0.0023524654097855
0.0038027353584766
0.0046350476332008
0.0049405712634325
0.0048573785461485
0.0045448499731719
0.0041615758091211
0.0038462865632027
0.0037042859476059
0.0038057647179812
0.0041892398148775
0.0048596495762467
0.005787054542452
0.0069130440242588
0.0081611387431621
0.0094495909288525
0.0107038244605064
0.0118619874119758
0.0128759229555726
0.0137114692479372
0.0143461832776665
0.0147682689130306
0.0149807408452034
0.0150038711726665
0.0148708093911409
0.0146182542666792
0.0142733585089445
0.0138415396213531
0.0132974740117788
0.0125763993710279
0.0115729654207825
0.0101561965420842
0.008195255883038
0.0055875042453408
0.0022851701360195
-0.0016799704171717
-0.0061791837215423
-0.0109902927652001
-0.0158248879015445
-0.0203652158379554
-0.0242987424135208
-0.0273488592356443
-0.029303852468729
-0.0300399772822856
-0.0295329894870519
-0.0278593320399522
-0.0251889657229185
-0.0217690281569957
-0.0178983062505722
-0.0138929700478911
-0.0100482944399118
-0.0066077760420739
-0.0037453505210578
-0.0015582693740725
-6.674695760011673e-05
0.0007837782613933
0.0011129342019557
0.0010819556191563
0.0008666389621794
0.0006380253471434
0.0005474449135363
0.000710675958544
0.0011960314586758
0.0020235460251569
0.0031726295128464
0.0045908624306321
0.0062011200934648
0.0079086804762482
0.0096126953139901
0.0112215150147676
0.0126636298373341
0.0138920787721872
0.0148863773792982
0.0156478267163038
0.0161902625113725
0.0165382623672485
0.0167272612452507
0.0167953446507453
0.016774358227849
0.016684740781784
0.0165256094187498
0.0162610635161399
0.0158145036548376
0.015073038637638
0.0138970855623483
0.0121368430554866
0.009660480543971
0.0063929189927875
0.0023538484238088
-0.0023235941771417
-0.0074034165591001
-0.0125775532796978
-0.0175061021000146
-0.0218614377081394
-0.0253625661134719
-0.0277930311858654
-0.0290126800537109
-0.0289688073098659
-0.0277021564543247
-0.025344057008624
-0.0221054330468177
-0.0182588044553995
-0.014111403375864
-0.0099722314625978
-0.0061211222782731
-0.0027838069945573
-0.0001118788495659
0.0018306584097445
0.0030682901851832
0.0036999047733843
0.0038744038902223
0.0037663052789866
0.0035573877394199
0.0034194905310869
0.0034965984523296
0.0038902484811842
