bvp
-0.0010794816771522
-0.0045214626006782
-0.0078813610598444
-0.0109182745218276
-0.0134052904322743
-0.0151613745838403
-0.0160714257508516
-0.0160922110080719
-0.0152543690055608
-0.0136628141626715
-0.0114864259958267
-0.0089340498670935
-0.0062234462238848
-0.0035543697886168
-0.0010946904076263
0.0010232096537947
0.0027063763700425
0.0039097610861063
0.0046427687630057
0.0049665179103612
0.0049800281412899
0.0048006242141127
0.0045471391640603
0.0043265977874398
0.0042220745235681
0.0042858645319938
0.0045384746044874
0.0049700988456606
0.0055466531775891
0.0062192077748477
0.0069327484816312
0.0076365312561392
0.0082931444048881
0.0088795786723494
0.0093819824978709
0.0097868684679269
0.0100738070905208
0.0102159287780523
0.010179984383285
0.0099149458110332
0.0093406746163964
0.0083570964634418
0.0068726548925042
0.0048332889564335
0.0022413558326661
-0.0008329981938004
-0.0042502647265791
-0.0078140348196029
-0.0112876035273075
-0.0144122438505291
-0.0169396512210369
-0.0186719503253698
-0.0194865930825471
-0.0193368960171937
-0.0182377062737941
-0.0162535309791564
-0.0134970284998416
-0.0101301539689302
-0.0063553694635629
-0.0023952256888151
0.0015281699597835
0.0052095158025622
0.0084760608151555
0.0111980121582746
0.0132912211120128
0.0147168394178152
0.0154778230935335
0.0156151428818702
0.0152122620493173
0.0144037818536162
0.0133740790188312
0.0123435091227293
0.011549562215805
0.0112245306372642
0.0115722054615616
0.0127525748685002
0.0148767009377479
0.0180085636675357
0.022172212600708
0.0273585747927427
0.0335249416530132
0.0405874736607074
0.0484134703874588
0.0568208470940589
0.065587542951107
0.0744655802845954
0.0831897854804992
0.0914765372872352
0.0990215316414833
0.1055085584521293
0.1106296852231025
0.1141105890274047
0.1157382428646087
0.1153842210769653
0.1130153834819793
0.1086912304162979
0.1025508567690849
0.0947951227426529
0.085666574537754
0.0754289850592613
0.0643504038453102
0.0526873096823692
0.040664754807949
0.0284553468227386
0.0161658823490142
0.0038389042019844
-0.0085282102227211
-0.0209520384669303
-0.0334354117512702
-0.0459570586681366
-0.0584766045212745
-0.0709412917494773
-0.0832850560545921
-0.0954219996929168
-0.1072408407926559
-0.1186011880636215
-0.1293318271636963
-0.1392389237880706
-0.1481252014636993
-0.1558084189891815
-0.1621340811252594
-0.1669861823320388
-0.1702939122915268
-0.1720296889543533
-0.1722038984298706
-0.1708619892597198
-0.1680788248777389
-0.1639520823955536
-0.1586024761199951
-0.1521775126457214
-0.1448537111282348
-0.1368379592895507
-0.1283679902553558
-0.1197108924388885
-0.111155979335308
-0.1029983311891555
-0.0955132618546485
-0.0889258980751037
-0.0833831652998924
-0.0789364054799079
-0.0755374804139137
-0.0730449259281158
-0.071238674223423
-0.0698462128639221
-0.0685791596770286
-0.0671710297465324
-0.0654071271419525
-0.0631411895155906
-0.0602980218827724
-0.0568678006529808
-0.0528991073369979
-0.0484913364052772
-0.0437805242836475
-0.0389173664152622
-0.034044861793518
-0.0292803533375263
-0.024701714515686
-0.020340908318758
-0.0161852985620498
-0.0121811181306838
-0.0082387179136276
-0.0042432695627212
-7.040798664093018e-05
0.004394844174385
0.0092386156320571
0.0145030096173286
0.0201791003346443
0.0262091606855392
0.0324951261281967
0.03891072422266
0.0453159362077713
0.0515710562467575
0.0575503259897232
0.0631535202264785
0.068310260772705
0.0729796141386032
0.0771483033895492
0.0808242261409759
0.0840215682983398
0.0867417752742767
0.0889617949724197
0.0906325280666351
0.091683842241764
0.0920385718345642
0.0916351974010467
0.0904545113444328
0.088543489575386
0.0860284715890884
0.083112932741642
0.0800536423921585
0.0771202445030212
0.0745595842599868
0.0725768655538559
0.0713252872228622
0.0708930566906929
0.0712901949882507
0.0724466443061828
0.0742240995168685
0.0764344036579132
0.0788572877645492
0.0812572687864303
0.0834050178527832
0.0851018130779266
0.0862005278468132
0.0866183042526245
0.086337886750698
0.0854018032550811
0.0839045941829681
0.0819821506738662
0.0797944292426109
0.0775026828050613
0.0752491354942321
0.0731435865163803
0.0712558031082153
0.0696129202842712
0.0682030171155929
0.0669853538274765
0.0659034252166748
0.0648945197463035
0.0638923421502113
0.0628275275230407
0.0616345852613449
0.060260847210884
0.0586646348237991
0.0568014234304428
0.0546066462993621
0.0519853197038173
0.0488179549574852
0.0449836589395999
0.0403897315263748
0.0349963121116161
0.0288341175764799
0.0220173578709363
0.0147505877539515
0.0073204739019274
6.466545164585114e-05
-0.0066729485988616
-0.0125852040946483
-0.0174336098134517
-0.0210667345672845
-0.0234306864440441
-0.0245724860578775
-0.0246299747377634
-0.0238103400915861
-0.022366389632225
-0.0205739140510559
-0.0187106449156999
-0.0170389395207166
-0.0157881807535886
-0.0151337152346968
-0.0151792876422405
-0.0159432869404554
-0.0173445865511894
-0.0191998127847909
-0.0212476775050163
-0.023195881396532
-0.0247670374810695
-0.0257234387099742
-0.0258731059730052
-0.0250720828771591
-0.0232338830828666
-0.0203497279435396
-0.0165090486407279
-0.0119013302028179
-0.0067961104214191
-0.0015143305063247
0.0036033205687999
0.0082326680421829
0.0120957009494304
0.0149727463722229
0.0167074985802173
0.0172115862369537
0.0164583921432495
0.0144655779004096
0.0112785398960113
0.0069654732942581
0.001628927886486
-0.0045724138617515
-0.0114063322544097
-0.0185690745711326
-0.0257129408419132
-0.03248867765069
-0.038587536662817
-0.0437780320644378
-0.0479323044419288
-0.0510303750634193
-0.0531414300203323
-0.0543947294354438
-0.0549490787088871
-0.0549657009541988
-0.0545888729393482
-0.0539332889020442
-0.0530782081186771
-0.0520720146596431
-0.0509405098855495
-0.0496882200241088
-0.0482975207269191
-0.0467336438596248
-0.0449504703283309
-0.0428938120603561
-0.0405118055641651
-0.0377763211727142
-0.0347026549279689
-0.0313561968505382
-0.027844987809658
-0.0243011191487312
-0.0208580382168293
-0.0176332667469978
-0.0147216022014617
-0.0121965482831001
-0.0101120620965957
-0.0085022151470184
-0.0073854178190231
-0.0067722424864768
-0.0066669508814811
-0.0070613697171211
-0.0079297125339508
-0.009231798350811
-0.0109213814139366
-0.0129489004611969
-0.0152559950947761
-0.0177675932645797
-0.0203853696584701
-0.0229851193726062
-0.0254217609763145
-0.0275444500148296
-0.0292185693979263
-0.0303473211824893
-0.0308876931667327
-0.0308560580015182
-0.0303205549716949
-0.0293842442333698
-0.0281649716198444
-0.0267773680388927
-0.0253213159739971
-0.023875568062067
-0.0224945545196533
-0.021211102604866
-0.0200446993112564
-0.0190097242593765
-0.0181210227310657
-0.0173963010311126
-0.0168557614088058
-0.0165222957730293
-0.0164216943085193
-0.0165791884064674
-0.0170120783150196
-0.0177190713584423
-0.0186693109571933
-0.0197997353971004
-0.0210258979350328
-0.0222611278295516
-0.0234364084899425
-0.0245157983154058
-0.0255012512207031
-0.0264251977205276
-0.0273372121155262
-0.0282899606972932
-0.0293264929205179
-0.0304715372622013
-0.0317276529967784
-0.0330742374062538
-0.0344697870314121
-0.0358603298664093
-0.0371920689940452
-0.0384219549596309
-0.0395217798650264
-0.040476307272911
-0.0412788465619087
-0.0419256128370761
-0.0424082577228546
-0.0427053608000278
-0.0427764058113098
-0.042562760412693
-0.0419960841536521
-0.0410102494060993
-0.0395528934895992
-0.0375938639044761
-0.0351304523646831
-0.0321892909705638
-0.0288233198225498
-0.0251053106039762
-0.0211215242743492
-0.016965951770544
-0.0127327367663383
-0.0085071623325347
-0.0043583437800407
-0.0003339014947414
0.0035445913672447
0.0072827748954296
0.0109080225229263
0.0144593641161918
0.0179771743714809
0.0214952789247035
0.0250386223196983
0.0286249779164791
0.032264307141304
0.0359557010233402
0.0396863557398319
0.0434345826506614
0.0471781231462955
0.0509040690958499
0.054611437022686
0.058302603662014
0.0619683042168617
0.0655730888247489
0.0690469816327095
0.0722873732447624
0.0751726552844047
0.0775837302207946
0.0794251561164856
0.0806412026286125
0.0812250971794128
0.0812196731567382
0.0807088837027549
0.079801432788372
0.0786106958985328
0.0772374719381332
0.0757593140006065
0.0742254555225372
0.0726549923419952
0.0710377395153045
0.0693386644124984
0.0675062462687492
0.0654831677675247
0.063217282295227
0.0606722980737686
0.0578359812498092
0.0547215156257152
0.0513620674610137
0.0478053018450737
0.0441112853586673
0.0403507240116596
0.0366023257374763
0.0329500325024127
0.0294791720807552
0.0262710507959127
0.0233960226178169
0.0209046695381402
0.0188177432864904
0.0171180181205272
0.0157474912703037
0.0146083226427435
0.013563834130764
0.0124413575977087
0.0110422205179929
0.0091619100421667
0.0066188117489218
0.0032849228009581
-0.000888732727617
-0.0058565298095345
-0.0114758368581533
-0.0175196193158626
-0.0237023495137691
-0.0297143720090389
-0.0352575629949569
-0.0400742143392562
-0.0439660213887691
-0.0468064732849597
-0.0485477708280086
-0.0492201521992683
-0.0489230826497077
-0.0478100404143333
-0.0460705049335956
-0.0439116694033145
-0.0415394119918346
-0.0391395315527915
-0.0368636697530746
-0.0348216630518436
-0.0330769978463649
-0.0316433645784854
-0.0304857622832059
-0.0295282360166311
-0.0286645907908678
-0.0277693439275026
-0.0267099142074584
-0.0253611281514167
-0.0236209705471992
-0.0214240476489067
-0.0187490135431289
-0.0156189398840069
-0.0120967123657464
-0.0082769207656383
-0.0042739668861031
-0.0002080909907817
0.0038063118699938
0.0076653268188238
0.0112710269168019
0.0145224165171384
0.017310919240117
0.0195254199206829
0.0210648849606513
0.0218544509261846
0.0218606777489185
0.0211014803498983
0.0196489859372377
0.0176259111613035
0.0151960598304867
0.0125500243157148
0.0098866075277328
0.007389998063445
0.005206549540162
0.0034286282025277
0.0020900187082588
0.0011711972765624
0.0006095441058278
0.0003109795507043
0.0001626517623662
4.6576373279094696e-05
-0.0001467149704694
-0.0005050776526331
-0.0010843090713024
-0.0019038598984479
-0.0029496185015887
-0.0041813980787992
-0.0055413842201232
-0.0069612557999789
-0.0083688283339142
-0.0096952393651008
-0.0108825238421559
-0.0118902893736958
-0.0126993041485548
-0.0133138345554471
-0.0137663492932915
-0.0141232050955295
-0.0144881252199411
-0.0150004969909787
-0.0158243309706449
-0.0171261429786682
-0.0190448220819234
-0.0216608010232448
-0.024973664432764
-0.0288937725126743
-0.033247523009777
-0.0377931594848632
-0.0422442182898521
-0.0462976284325122
-0.0496634356677532
-0.0520941093564033
-0.0534105524420738
-0.0535197667777538
-0.0524210929870605
-0.0502030625939369
-0.047032531350851
-0.0431352220475673
-0.0387699417769908
-0.0342012420296669
-0.0296735893934965
-0.0253898352384567
-0.0214965213090181
-0.01807626709342
-0.0151471514254808
-0.0126698445528745
-0.0105610117316246
-0.0087093971669673
-0.0069922506809234
-0.0052908882498741
-0.0035044588148593
-0.0015610828995704
0.000575728714466
0.0029062069952487
0.0053972527384757
0.0079882144927978
0.0105982236564159
0.0131301768124103
0.0154696889221668
0.0174825061112642
0.0190153326839208
0.0199063513427972
0.0200081411749124
0.0192178562283515
0.0175071023404598
0.0149443820118904
0.0116999298334121
0.0080278441309928
0.0042353868484497
0.0006498619914054
-0.0024160407483577
-0.0046969465911388
-0.005998820066452
-0.0062145963311195
-0.0053346157073974
-0.0034511126577854
-0.0007516518235206
0.0025021806359291
0.0060084424912929
0.0094644278287887
0.0126038752496242
0.015226487070322
0.017217718064785
0.0185540355741977
0.0192908830940723
0.019540686160326
0.0194511599838733
0.0191872082650661
0.018914520740509
0.0187838785350322
0.0189171992242336
0.0193947665393352
0.0202446244657039
0.0214429274201393
0.0229294300079345
0.0246264040470123
0.0264503769576549
0.0283176600933074
0.030142031610012
0.0318228043615818
0.033231995999813
0.0342096835374832
0.0345715768635273
0.0341313928365707
0.0327349230647087
0.0302943475544452
0.026813369244337
0.0224009603261947
0.0172717086970806
0.01173085719347
0.0061455406248569
0.0009076595306396
-0.0036045834422111
-0.007064439356327
-0.0092313028872013
-0.0099755376577377
-0.0092903189361095
-0.0072884075343608
-0.0041807480156421
-0.0002416446805
0.0042305402457714
0.0089477971196174
0.0136538557708263
0.0181359052658081
0.0222339332103729
0.0258433669805526
0.0289078392088413
0.031410589814186
0.0333716757595539
0.0348486602306366
0.0359339490532875
0.0367437042295932
0.037399910390377
0.0380139052867889
0.0386786498129367
0.0394675508141517
0.0404320061206817
0.041593961417675
0.0429392233490943
0.0444191917777061
0.0459572039544582
0.0474511161446571
0.0487695857882499
0.0497429743409156
0.050159178674221
0.0497793443500995
0.0483749583363533
0.0457777976989746
0.0419290103018283
0.0369098260998725
0.0309446267783641
0.024377454072237
0.0176296550780534
0.0111513715237379
0.0053773331455886
0.0006870851502753
-0.0026355956215411
-0.0044392654672265
-0.0047226189635694
-0.0036276641767472
-0.0014169584028422
0.0015573659911751
0.0048944735899567
0.008194507099688
0.0111055020242929
0.0133563391864299
0.0147738438099622
0.0152853410691022
0.0149108190089464
0.0137534830719232
0.0119884125888347
0.0098407045006752
0.0075530856847763
0.0053507387638092
0.0034124180674552
0.0018557421863079
0.0007364563643932
5.309656262397766e-05
-0.0002483241260051
-0.0002647787332534
-0.0001186430454254
6.113573908805847e-05
0.0001477748155593
8.195638656616211e-06
-0.0005117878317832
-0.0015895143151283
-0.0034093111753463
-0.006131462752819
-0.0098529979586601
-0.014572687447071
-0.0201738364994525
-0.0264292769134044
-0.033019583672285
-0.039558321237564
-0.0456316247582435
-0.0508497729897499
-0.054890938103199
-0.0575288757681846
-0.0586525425314903
-0.0582785084843635
-0.0565496832132339
-0.0537200644612312
-0.0501264631748199
-0.046148158609867
-0.0421625450253486
-0.0385038666427135
-0.0354287661612033
-0.0330945588648319
-0.0315527617931366
-0.0307550057768821
-0.0305696986615657
-0.0308088734745979
-0.0312605686485767
-0.0317197032272815
-0.0320101454854011
-0.0319950468838214
-0.031582985073328
-0.0307345241308212
-0.0294646583497524
-0.0278390385210514
-0.0259634479880332
-0.0239673443138599
-0.0219895914196968
-0.0201737731695175
-0.0186717361211776
-0.0176479220390319
-0.0172756351530551
-0.0177214629948139
-0.0191169381141662
-0.021516527980566
-0.0248583555221557
-0.0289553664624691
-0.0335186496376991
-0.0381923541426658
-0.0425911992788314
-0.0463374257087707
-0.0490946322679519
-0.0506028644740581
-0.0507096648216247
-0.0493855364620685
-0.0467227958142757
-0.0429200567305088
-0.038258284330368
-0.0330750904977321
-0.0277317333966493
-0.0225700661540031
-0.0178709272295236
-0.0138256028294563
-0.0105266142636537
-0.0079762320965528
-0.0061004385352134
-0.0047645568847656
-0.0037994179874658
-0.0030318144708871
-0.0023033674806356
-0.0014789663255214
-0.0004544053226709
0.0008355155587196
0.0024130698293447
0.0042578782886266
0.0063103903084993
0.0084847528487443
0.0106849744915962
0.0128071401268243
0.0147301200777292
0.0163072161376476
0.01736412756145
0.0177126880735158
0.0171856675297021
0.0156768858432769
0.0131708774715662
0.0097623532637953
0.0056609762832522
0.0011712899431586
-0.0033472655341029
-0.0075248391367495
-0.0110195558518171
-0.0135477762669324
-0.0149077512323856
-0.0149959363043308
-0.0138142863288521
-0.0114681012928485
-0.0081542767584323
-0.0041401712223887
0.0002631309907883
0.0047298902645707
0.0089529305696487
0.0126783028244972
0.0157329272478818
0.0180376172065734
0.019602183252573
0.0205091796815395
0.0208949819207191
0.0209298450499773
0.0207972042262554
0.020671697333455
0.0206967610865831
0.0209689941257238
0.0215328764170408
0.0223845466971397
0.0234836637973785
0.0247663743793964
0.0261532627046108
0.0275551043450832
0.0288807749748229
0.0300472509115934
0.030983593314886
0.0316200666129589
0.0318704694509506
0.0316272974014282
0.0307743437588214
0.0292039513587951
0.0268342941999435
0.0236330609768629
0.0196445193141698
0.0150077398866415
0.0099576544016599
0.0048060826957225
-9.873509407043456e-05
-0.0044256630353629
-0.0079007688909769
-0.0103209353983402
-0.0115614142268896
-0.0115906745195388
-0.010479680262506
-0.0083953440189361
-0.005580001976341
-0.0023205238394439
0.001087169162929
0.0043702563270926
0.0073032793588936
0.0097225997596979
0.0115320896729826
0.0127046927809715
0.0132824089378118
0.0133719854056835
0.0131283998489379
0.0127243166789412
0.0123215401545166
0.0120557062327861
0.0120236603543162
0.0122699346393346
0.0127852736040949
0.0135182905942201
0.014389781281352
0.0153073109686374
0.0161803066730499
0.0169329904019832
0.0175138246268033
0.017895808443427
0.018066830933094
0.0180244054645299
0.0177790336310863
0.017354255542159
0.0167808923870325
0.0160869546234607
0.015278285369277
0.0143175981938838
0.0131180305033922
0.0115537829697132
0.0094866305589675
0.0068076523020863
0.0034752953797578
-0.0004693176597356
-0.004904119297862
-0.0096361525356769
-0.0144198238849639
-0.018980223685503
-0.0230396874248981
-0.0263468381017446
-0.0287032276391983
-0.0299849119037389
-0.0301599726080894
-0.0292970146983861
-0.0275553464889526
-0.0251592379063367
-0.0223664417862892
-0.0194357484579086
-0.0165975876152515
-0.0140332821756601
-0.011865759268403
-0.010159807279706
-0.0089257406070828
-0.0081229731440544
-0.0076655121520161
-0.0074327206239104
-0.007287569809705
-0.0071005644276738
-0.0067707821726799
-0.006235284730792
-0.0054671424441039
-0.0044696540571749
-0.0032712172251194
-0.0019191922619938
-0.0004747319035232
0.000989010091871
0.0023932750336825
0.0036686193197965
0.0047662230208516
0.0056578908115625
0.0063330209814012
0.0067984485067427
0.0070765637792646
0.0071993484161794
0.0072013237513601
0.0071142031811177
0.0069645936600863
0.0067728199064731
0.0065517779439687
0.0063072885386645
0.0060353986918926
0.0057132947258651
0.0052902847528457
0.0046839118003845
0.0037836246192455
0.0024664904922246
0.0006255330517888
-0.0017963112331926
-0.0047803106717765
-0.0082244770601391
-0.0119519801810383
-0.0157290119677782
-0.019290916621685
-0.0223760772496461
-0.0247613918036222
-0.0262879040092229
-0.0268716644495725
-0.0265063308179378
-0.0252639930695295
-0.0232896041125059
-0.0207790434360504
-0.0179471559822559
-0.0150046898052096
-0.012145877815783
-0.0095350900664925
-0.0072917426005005
-0.0054814480245113
-0.0041173449717462
-0.003167166840285
-0.002560019493103
-0.0021945061162114
-0.0019516455940902
-0.0017105308361351
-0.0013642315752804
-0.0008338149636983
-7.688207551836967e-05
0.0009116698056459
0.002107155509293
0.0034649288281798
0.0049260850064456
0.0064256954938173
0.0079074669629335
0.0093318670988082
0.0106714554131031
0.0119040263816714
0.0130101507529616
0.0139744644984602
0.0147889629006385
0.0154548473656177
0.0159830152988433
0.0163925644010305
0.0167052932083606
0.0169399790465831
0.0171096958220005
0.0172218009829521
0.0172764025628566
0.0172583945095539
0.0171270929276943
0.0168113205581903
0.0162140950560569
0.0152272842824459
0.0137536358088254
0.0117316674441099
0.0091566881164908
0.0060925539582967
0.0026729160454124
-0.0009080162271857
-0.004418205935508
-0.0076203546486794
-0.0102998502552509
-0.0122826769948005
-0.0134497079998254
-0.0137528106570243
-0.0132266227155923
-0.0119829103350639
-0.0101922899484634
-0.0080655626952648
-0.0058326222933828
-0.0037165232934057
-0.00190772395581
-0.0005449578166007
0.0002932990901172
0.0005904417484998
0.0003899727016687
-0.000214064028114
-0.0010940986685454
-0.0021076733246445
-0.003115763887763
-0.0039976797997951
-0.0046617342159152
-0.0050562648102641
-0.0051780072972178
-0.0050669303163886
-0.0047886865213513
-0.0044192448258399
-0.0040350304916501
-0.0037009920924901
-0.003459483385086
-0.0033287461847066
-0.0033096959814429
-0.0033911727368831
-0.0035494500771164
-0.0037481831386685
-0.0039449455216526
-0.004103859886527
-0.0042090648785233
-0.0042699389159679
-0.0043138545006513
-0.0043748468160629
-0.0044847726821899
-0.0046648206189274
-0.0049185967072844
-0.0052326116710901
-0.0055909845978021
-0.006000816822052
-0.0065085291862487
-0.0071955919265747
-0.0081576686352491
-0.0094716362655162
-0.0111613739281892
-0.0131800677627325
-0.0154137872159481
-0.0176976211369037
-0.0198355354368686
-0.0216187182813882
-0.022842863574624
-0.0233289171010255
-0.0229472555220127
-0.0216403100639581
-0.0194357428699731
-0.0164441112428903
-0.0128433629870414
-0.0088537987321615
-0.0047078356146812
-0.0006243474781513
0.0032070372253656
0.0066366586834192
0.0095674619078636
0.0119674187153577
0.0138718355447053
0.0153704155236482
0.0165846068412065
0.0176455788314342
0.0186793748289346
0.0197971239686012
0.021083328872919
0.0225825570523738
0.0242936797440052
0.0261749327182769
0.0281551741063594
0.0301488097757101
0.0320710390806198
0.033847127109766
0.0354155786335468
0.0367308296263217
0.0377676822245121
0.0385243371129035
0.0390210151672363
0.0392933562397956
0.0393812619149684
0.0393176153302192
0.0391231700778007
0.0388080701231956
0.0383746102452278
0.0378185957670211
0.0371317528188228
0.0363041460514068
0.0353212803602218
0.0341520458459854
0.032731045037508
0.0309538468718528
0.0286975763738155
0.0258535258471965
0.0223584286868572
0.0182224307209253
0.0135445445775985
0.0085054719820618
0.0033435504883527
-0.0016746254405006
-0.0062819221056997
-0.0102348495274782
-0.0133371567353606
-0.0154622318223118
-0.016568936407566
-0.0167051330208778
-0.0159953217953443
-0.0146213881671428
-0.0128077138215303
-0.0108041707426309
-0.0088612977415323
-0.0072024539113044
-0.0059959087520837
-0.0053355540148913
-0.0052389637567102
-0.005657467059791
-0.0064900363795459
-0.0076013738289475
-0.0088445115834474
-0.0100792329758405
-0.0111810155212879
-0.0120485071092844
-0.0126151777803897
-0.0128551200032234
-0.0127762807533144
-0.0124106425791978
-0.0118088098242878
-0.0110370786860585
-0.0101719293743371
-0.009291379712522
-0.0084675168618559
-0.0077590839937329
-0.0072047319263219
-0.0068215420469641
-0.0066052069887518
-0.0065293181687593
-0.0065504051744937
-0.0066218888387084
-0.0067097600549459
-0.0068005491048097
-0.0068974029272794
-0.007009151391685
-0.0071455584838986
-0.0073249777778983
-0.0075889499858021
-0.0080158477649092
-0.0087231006473302
-0.0098513755947351
-0.0115336896851658
-0.0138580948114395
-0.0168358515948057
-0.0203838944435119
-0.024324957281351
-0.0284044072031974
-0.0323193594813346
-0.0357559509575367
-0.0384293720126152
-0.0401195622980594
-0.0406946837902069
-0.0401177555322647
-0.038443237543106
-0.0358116291463375
-0.032438077032566
-0.028588593006134
-0.0245480630546808
-0.0205884575843811
-0.0169403553009033
-0.0137711130082607
-0.0111769847571849
-0.0091875372454524
-0.0077706049196422
-0.0068379114381968
-0.0062587740831077
-0.0058761131949722
-0.0055240457877516
-0.005054410547018
-0.0043599037453532
-0.0033797468058764
-0.002096498850733
-0.0005313765723258
0.0012652555014938
0.0032242005690932
0.0052648046985268
0.0073060342110693
0.0092805176973342
0.0111400187015533
0.0128505658358335
0.0143878310918807
0.015737909823656
0.0168976373970508
0.0178695265203714
0.0186568237841129
0.0192653909325599
0.0197072811424732
0.0200005918741226
0.0201664101332426
0.0202218666672706
0.0201724097132682
0.0200059711933136
0.0196865387260913
0.0191503074020147
0.0183093473315238
0.0170620456337928
0.0153083028271794
0.0129701383411884
0.0100204795598983
0.0065116202458739
0.0025813831016421
-0.0015655811876058
-0.0056814067065715
-0.0094969011843204
-0.0127468258142471
-0.0151971094310283
-0.0166707802563905
-0.0170703940093517
-0.0163912270218133
-0.0147193418815732
-0.0122167225927114
-0.0091040721163153
-0.0056457119062542
-0.0021266131661832
0.0011822897940874
0.0040554152801632
0.0063289450481534
0.0079089188948273
0.0087776267901062
0.0089939665049314
0.0086826765909791
0.0080118011683225
0.0071640941314399
0.0063114333897829
0.005596081726253
0.0051209907978773
0.0049515413120388
0.0051218839362263
0.0056351087987422
0.0064592873677611
0.0075289942324161
0.0087530799210071
0.0100277848541736
0.0112544437870383
0.0123522290959954
0.0132622104138135
0.013947014696896
0.0143874734640121
0.0145816328004002
0.0145503748208284
0.0143406596034765
0.0140126552432775
0.0136160617694258
0.0131779890507459
0.0127055337652564
0.0121878925710916
0.0115930801257491
0.010861350223422
0.0099027007818222
0.0086090797558426
0.0068764062598347
0.0046272045001387
0.0018344044219702
-0.0014575254172086
-0.0051239714957773
-0.0089676640927791
-0.012739410623908
-0.0161700155586004
-0.0190062653273344
-0.021039456129074
-0.022125544026494
-0.0222000535577535
-0.0212843064218759
-0.0194801073521375
-0.0169552490115165
-0.0139287365600466
-0.0106592215597629
-0.0074211684986948
-0.0044637927785515
-0.0019777831621468
-8.498760871589184e-05
0.0011606932384893
0.0017723921919241
0.0018301577074453
0.001476440927945
0.0008967622416093
0.0002826426643878
-0.0002057375386357
-0.0004554858314804
-0.0003985571092925
-1.098227221518755e-05
0.0006855741376057
0.0016337729757651
0.0027587600052356
0.0039825765416026
0.0052312645129859
0.0064374515786767
0.0075438506901264
0.0085073700174689
0.0093010021373629
0.0099151842296123
0.0103563275188207
0.0106384810060262
0.0107730962336063
0.0107671096920967
0.0106274150311946
0.0103570697829127
0.0099426265805959
0.009344108402729
0.008491282351315
0.0072888666763901
0.0056354459375143
0.0034545003436505
0.0007259659469127
-0.0024957968853414
-0.0060797203332185
-0.0098264897242188
-0.0134886736050248
-0.0168030932545661
-0.0195256397128105
-0.0214582607150077
-0.0224697943776845
-0.0225106365978717
-0.0216158889234066
-0.0198982525616884
-0.017530333250761
-0.0147201186046004
-0.0116908811032772
-0.0086632054299116
-0.0058336677029728
-0.003358885878697
-0.0013499330962076
0.0001300880685448
0.0010692817158997
0.0015096124261617
0.0015444257296621
0.0013040287885814
0.000934715848416
0.0005795650649815
0.0003581258933991
0.000350221293047
0.0005922857671976
0.0010809426894411
0.0017821134533733
0.0026458031497895
0.0036171586252748
0.0046415985561907
0.0056675490923225
0.0066456878557801
0.0075285425409674
0.0082760471850633
0.0088621955364942
0.0092762550339102
0.0095215272158384
0.0096145160496234
0.0095822997391223
0.0094559425488114
0.0092597501352429
0.0089979097247123
0.008638484403491
0.0081039741635322
0.0072861528024077
0.0060793878510594
0.0044080787338316
0.0022422946058213
-0.0003928262740373
-0.0034136036410927
-0.0066779050976037
-0.0099911428987979
-0.0131243653595447
-0.0158427618443965
-0.0179384313523769
-0.0192571245133876
-0.019713144749403
-0.019297007471323
-0.0180751215666532
-0.0161766279488801
-0.0137728676199913
-0.0110579011961817
-0.0082304487004876
-0.0054770754650235
-0.0029621240682899
-0.0008225512574426
0.0008438784861937
0.0019959637429565
0.0026569615583866
0.0029057108331471
0.0028574983589351
0.00264334352687
0.002391148591414
0.002211429644376
0.0021882983855903
0.0023741666227579
0.0027892724610865
0.00342448358424
0.0042453478090465
0.0051990766078233
0.0062237405218183
0.0072580873966217
0.0082486001774668
0.0091517316177487
0.0099375918507575
0.0105923544615507
0.011110576801002
0.0114873014390468
0.0117212627083063
0.0118202287703752
0.0117963915690779
0.0116552738472819
0.0113881304860115
0.0109678981825709
0.0103461109101772
0.0094562787562608
0.0082264803349971
0.0065956581383943
0.0045283092185854
0.0020278529264032
-0.0008504895959049
-0.0039934646338224
-0.0072364429943263
-0.0103808371350169
-0.0132146347314119
-0.0155322514474391
-0.0171570852398872
-0.0179649554193019
-0.0179015360772609
-0.0169901978224515
-0.0153280356898903
-0.0130732785910367
-0.0104300193488597
-0.0076290885917842
-0.0048999930731952
-0.0024373370688408
-0.0003783839056268
0.0012000502320006
0.0022763200104236
0.0028786454349756
0.0030769573058933
0.0029691529925912
0.0026666384655982
0.0022837184369564
0.0019282327266409
0.0016929755220189
0.0016483896179124
0.0018355692736804
0.0022656333167105
0.0029257789719849
0.0037806308828294
0.0047712721861898
0.0058237710036337
0.0068626776337623
0.0078199552372097
0.0086384853348135
0.0092741893604397
0.0097027420997619
0.0099260034039616
0.0099669266492128
0.0098587945103645
0.0096409730613231
0.0093560367822647
0.0090381409972906
0.0086964517831802
0.0083041433244943
0.0077975448220968
0.0070837754756212
0.0060570989735424
0.0046238889917731
0.0027278074994683
0.0003677322529256
-0.002392163965851
-0.0054217120632529
-0.0085356496274471
-0.0115143693983554
-0.0141290873289108
-0.0161690022796392
-0.017470296472311
-0.0179389286786317
-0.0175591222941875
-0.0163929667323827
-0.0145739531144499
-0.0122867142781615
-0.0097394175827503
-0.0071427430957555
-0.0046914918348193
-0.0025440312456339
-0.0008099385886453
0.0004521049559116
0.0012354282662272
0.0015831199707463
0.0015783661510795
0.0013317726552486
0.0009683278040029
0.0006148861721158
0.0003869800711981
0.000372198439436
0.0006153195281513
0.0011171624064445
0.0018457347759976
0.0027465124148875
0.0037497875746339
0.0047782687470316
0.0057562803849577
0.0066217919811606
0.0073329801671206
0.0078649818897247
0.0082067586481571
0.0083632422611117
0.0083578899502754
0.0082298470661044
0.0080252736806869
0.0077875945717096
0.0075476197525858
0.0073094693943858
0.0070364670827984
0.0066501810215413
0.0060456581413745
0.0051137153059244
0.0037656743079423
0.0019588852301239
-0.0002858219668269
-0.0028814449906349
-0.0056829885579645
-0.0085023948922753
-0.0111307986080646
-0.0133657278493046
-0.0150342369452118
-0.0160076636821031
-0.016213908791542
-0.0156469475477933
-0.0143679128959774
-0.0124995661899447
-0.0102136516943573
-0.0077092233113944
-0.0051890453323721
-0.0028396658599376
-0.0008152014925144
0.0007746936753392
0.0018735083285719
0.002483591903001
0.0026634519454091
0.0025107036344707
0.0021398153621703
0.001668952172622
0.0012111234245821
0.0008627902134321
0.0006982299964874
0.0007720245048403
0.00111845578067
0.0017403699457645
0.002596674254164
0.0036069974303245
0.004674520343542
0.0057077365927398
0.0066326800733804
0.0074008041992783
0.0079908575862646
0.0084012690931558
0.008641074411571
0.0087272580713033
0.0086845252662897
0.0085444739088416
0.0083418358117342
0.0081039322540164
0.0078387726098299
0.0075263893231749
0.0071164881810545
0.0065366122871637
0.0057022692635655
0.0045263664796948
0.0029407860711216
0.0009254666510969
-0.0014759311452507
-0.0041588069871068
-0.0069685778580605
-0.009714275598526
-0.0121875805780291
-0.0141884023323655
-0.0155528150498867
-0.0161780044436454
-0.0160366240888834
-0.0151738207787275
-0.0136922774836421
-0.0117389718070626
-0.0094948131591081
-0.0071537522599101
-0.0048916493542492
-0.0028468857053667
-0.0011212792014703
0.0002166620251955
0.0011356349568814
0.001644347095862
0.0017916524084284
0.0016652508638799
0.0013801297172904
0.0010536247864365
0.0007825880893506
0.0006385516608133
0.0006743019912391
0.0009238395141437
0.0013941844226792
0.0020606734324246
0.0028725294396281
0.0037700091488659
0.0047035459429025
0.0056370976381003
0.0065365424379706
0.0073616113513708
0.0080693149939179
0.0086226286366581
0.0089972643181681
0.0091849099844694
0.0091962004080414
0.009061305783689
0.0088209668174386
0.00850994233042
0.0081397257745265
0.0076858014799654
0.0070884497836232
0.0062695890665054
0.0051538781262934
0.003686404088512
0.0018499416764825
-0.000321522122249
-0.0027415284421294
-0.0052812043577432
-0.0077819842845201
-0.0100692491978406
-0.011972552165389
-0.0133484583348035
-0.0140978340059518
-0.0141774863004684
-0.0136034991592168
-0.0124452430754899
-0.0108166951686143
-0.0088655538856983
-0.006757955532521
-0.0046629100106656
-0.0027368324808776
-0.0011041549732908
0.0001588877057656
0.0010259674163535
0.0015125076752156
0.0016666282899677
0.0015610827831551
0.001287096645683
0.0009466042974963
0.0006401677383109
0.0004515654291026
0.0004334872937761
0.0006067660287953
0.0009723756229504
0.0015194779261946
0.0022274351213127
0.003067122073844
0.0039992649108171
0.0049733994528651
0.0059311217628419
0.0068108458071947
0.0075549189932644
0.0081198411062359
0.0084859607741236
0.0086612235754728
0.0086737526580691
0.0085567347705364
0.0083371456712484
0.0080327708274126
0.0076501877047121
0.0071745831519365
0.006556924432516
0.0057172146625816
0.0045678978785872
0.0030423880089074
0.0011177191045135
-0.0011710354592651
-0.0037272593472152
-0.0064016403630375
-0.0090108141303062
-0.0113611724227666
-0.0132732708007097
-0.0146035980433225
-0.0152586353942751
-0.015200394205749
-0.0144508145749568
-0.0130941895768046
-0.0112670939415693
-0.0091366311535239
-0.0068794661201536
-0.0046656797640025
-0.0026460597291588
-0.0009432333754375
0.0003585857921279
0.0012240782380104
0.0016687641618773
0.0017534475773572
0.001574276597239
0.0012463541934266
0.0008853441104292
0.0005956783425062
0.0004622979322448
0.0005407551070675
0.0008518656250089
0.0013848606031388
0.0021059352438896
0.0029664251487702
0.0039070164784789
0.0048621594905853
0.0057667875662446
0.0065641291439533
0.0072144102305173
0.0077004488557577
0.0080266976729035
0.0082119451835751
0.0082794958725571
0.0082521280273795
0.0081516643986105
0.0079941805452108
0.00778054818511
0.0074905920773744
0.0070795351639389
0.0064767380245029
0.0055970787070691
0.0043635396286845
0.0027295486070215
0.0006960233440622
-0.001677542226389
-0.0042711370624601
-0.0069159748964011
-0.0094166100025177
-0.0115742776542902
-0.0132081471383571
-0.0141780227422714
-0.0144049981608986
-0.0138796726241707
-0.0126613127067685
-0.01087461784482
-0.0086961667984724
-0.0063298214226961
-0.0039817402139306
-0.0018371904734522
-4.01489669457078e-05
0.0013188868761062
0.0022058556787669
0.0026369714178144
0.0026676254346966
0.0023860302753746
0.001910226070322
0.0013772356323897
0.0009216096950694
0.0006525570061057
0.0006400366546586
0.0009114525746554
0.0014544739387929
0.0022233049385249
0.0031494963914155
0.0041571930050849
0.0051756501197814
0.0061434782110154
0.0070093539543449
0.0077320476993918
0.0082793561741709
0.0086303781718015
0.008781031705439
0.0087484354153275
0.0085698952898383
0.0082916533574461
0.0079536782577633
0.0075808218680322
0.0071764402091503
0.0067139947786927
0.0061339419335126
0.0053525855764746
0.004282278008759
0.0028549258131533
0.0010395625140517
-0.0011453891638666
-0.0036246944218873
-0.0062691383063793
-0.0089090997353196
-0.011355884373188
-0.0134250465780496
-0.0149560496211051
-0.0158300120383501
-0.01598497107625
-0.0154233230277895
-0.014210257679224
-0.0124645251780748
-0.0103436419740319
-0.0080275638028979
-0.005703852046281
-0.0035520051605999
-0.0017234513070434
-0.0003219165373593
0.0006085251225158
0.001086717005819
0.0011881943792104
0.0010283328592777
0.0007390283280983
0.000446566962637
0.0002566310577094
0.0002462284173816
0.0004592465702444
0.000905095716007
0.0015619865152984
0.0023836689069867
0.0033083194866776
0.0042714709416031
0.0052175088785588
0.0061004869639873
0.0068812826648354
0.0075331926345825
0.0080491285771131
0.0084380423650145
0.0087142661213874
0.0088908812031149
0.0089784041047096
0.0089811310172081
0.0088908849284052
0.0086874179542064
0.0083443420007824
0.0078297043219208
0.0071019711904227
0.0061117401346564
0.0048123351298272
0.0031745054293423
0.0012037884443998
-0.0010417578741908
-0.0034471047110855
-0.0058562639169394
-0.0080976830795407
-0.0100072883069515
-0.0114443823695182
-0.0123015511780977
-0.0125152915716171
-0.012077473104
-0.0110376700758934
-0.0094947088509798
-0.0075869308784604
-0.0054812459275126
-0.0033552970271557
-0.0013781611341983
0.0003064322809223
0.0015986986691132
0.002457623835653
0.0029011527076363
0.0029954945202916
0.0028420744929462
0.0025605142582207
0.0022659951355308
0.0020495736971497
0.0019698715768754
0.0020540570840239
0.0023044529370963
0.0027080147992819
0.0032404561061412
0.0038636059034615
0.0045258793979883
0.0051713809370994
0.0057529481127858
0.0062399944290518
0.0066183600574731
0.0068879653699696
0.0070590758696198
0.0071422457695007
0.0071351304650306
0.0070147509686648
0.006737966556102
0.0062480447813868
0.0054847970604896
0.0043972823768854
0.0029562248382717
0.0011609767097979
-0.0009577726013958
-0.0033336875494569
-0.0058594290167093
-0.0083881989121437
-0.0107488753274083
-0.0127702318131923
-0.0143030062317848
-0.0152365081012249
-0.0155118033289909
-0.015129255130887
-0.0141471205279231
-0.0126729058101773
-0.0108521981164813
-0.0088552553206682
-0.0068596415221691
-0.00503003410995
-0.003498213365674
-0.0023493571206927
-0.0016181195387616
-0.0012902272865176
-0.0013068065745756
-0.0015756752109155
-0.0019888440147042
-0.0024378360249102
-0.0028268033638596
-0.0030836621299386
-0.0031630094163119
-0.0030453517101705
-0.0027373207267373
-0.0022678405512124
-0.0016799008008092
-0.0010197947267442
-0.0003258842043578
0.0003768554888665
0.0010759099386632
0.001769017893821
0.0024618036113679
0.0031649232842028
0.0038900284562259
0.0046413536183536
0.0054037198424339
0.0061338767409324
0.0067611513659358
0.0071965982206165
0.0073456047102808
0.0071215787902474
0.0064621828496456
0.0053475047461688
0.0038121291436254
0.0019435626454651
-0.0001291867811232
-0.0022494490258395
-0.0042482931166887
-0.005961203482002
-0.0072430372238159
-0.0079832291230559
