bvp
-0.0123983835801482
-0.0088408775627613
-0.0052626351825892
-0.0019228691235184
0.0009636718314141
0.0032446177210658
0.0048403795808553
0.0057492502965033
0.0060421354137361
0.0058467611670494
0.0053252191282808
0.0046479841694235
0.0039753746241331
0.0034507343079894
0.0031922513153403
0.0032783860806375
0.0037362365983426
0.0045413747429847
0.0056297578848898
0.0069143283180892
0.008301181718707
0.0097027495503425
0.0110450312495231
0.0122699989005923
0.0133358212187886
0.014214620925486
0.0148834511637687
0.0153064411133527
0.0154145481064915
0.0150960013270378
0.014206483028829
0.012596626766026
0.0101494714617729
0.0068166581913828
0.0026426711119711
-0.002224083058536
-0.0075340662151575
-0.0129572972655296
-0.0181214045733213
-0.0226592384278774
-0.0262534040957689
-0.0286679621785879
-0.0297668594866991
-0.0295237526297569
-0.0280232727527618
-0.0254494138062
-0.0220597703009843
-0.0181527063250541
-0.0140391569584608
-0.0100194308906793
-0.0063559333793818
-0.0032460000365972
-0.0008089570328593
0.0009138440946117
0.0019564605318009
0.0024199392646551
0.0024523369502276
0.0022264046128839
0.0019230912439525
0.0017151270294561
0.0017483270494267
0.0021273489110171
0.0029080519452691
0.0040973359718918
0.0056591518223285
0.0075189457274973
0.0095688560977578
0.0116805545985698
0.0137214325368404
0.0155696822330355
0.0171272717416286
0.0183278452605009
0.019140051677823
0.0195683352649211
0.0196499899029731
0.0194468963891267
0.0190271567553281
0.0184351317584514
0.0176634490489959
0.0166434459388256
0.0152567056939005
0.013361420482397
0.0108280330896377
0.0075791329145431
0.0036246813833713
-0.0009189662523567
-0.0058344835415482
-0.0108329346403479
-0.0155940698459744
-0.0198063682764768
-0.0232063960283994
-0.0256091374903917
-0.0269206874072551
-0.0271384976804256
-0.0263419281691312
-0.0246761105954647
-0.022338081151247
-0.0195645056664943
-0.016612147912383
-0.0137277347967028
-0.0111150844022631
-0.0089137218892574
-0.0071934009902179
-0.0059569366276264
-0.0051486864686012
-0.0046711391769349
-0.0044059036299586
-0.0042307451367378
-0.0040290174074471
-0.0036960726138204
-0.003145711030811
-0.0023161398712545
-0.0011755523737519
0.0002740968484431
0.0019972878508269
0.0039314413443207
0.0059992047026753
0.0081201130524277
0.0102151492610573
0.0122057972475886
0.0140165481716394
0.0155842788517475
0.0168653223663568
0.0178344771265983
0.0184836685657501
0.0188236124813556
0.0188809111714363
0.018686655908823
0.0182591713964939
0.0175858587026596
0.0166123509407043
0.0152464630082249
0.0133794043213129
0.0109187830239534
0.0078207571059465
0.0041116904467344
-0.0001023709774017
-0.0046356972306966
-0.009232809767127
-0.0135910753160715
-0.017393322661519
-0.0203470382839441
-0.0222234651446342
-0.0228851921856403
-0.0222989954054355
-0.0205408167093992
-0.0177956745028495
-0.014340553432703
-0.0105046480894088
-0.0066257156431674
-0.0030190937686711
4.620477557182312e-05
0.0023720019962638
0.0038505236152559
0.0044684298336505
0.0042960559949278
0.0034762874711304
0.0022139225620776
0.0007508094422519
-0.0006698475917801
-0.0018332882318645
-0.0025735471863299
-0.0027871294878423
-0.0024375645443797
-0.001548699568957
-0.0001901643117889
0.0015346563886851
0.0034940624609589
0.0055383145809173
0.0075199045240879
0.0093149663880467
0.0108379982411861
0.0120446719229221
0.0129238571971654
0.0134888896718621
0.013772765174508
0.0138226803392171
0.0136920809745788
0.0134329600259661
0.0130876991897821
0.0126780625432729
0.0121923629194498
0.0115728517994284
0.0107099171727895
0.0094540724530816
0.0076461667194962
0.0051568364724516
0.0019274801015853
-0.0019985465332865
-0.0064662615768611
-0.0112223718315362
-0.0159443598240613
-0.0202781967818737
-0.0238824672996997
-0.0264735016971826
-0.0278609879314899
-0.0279675647616386
-0.026831617578864
-0.024596270173788
-0.0214869827032089
-0.0177832096815109
-0.0137928556650877
-0.0098272524774074
-0.0061745252460241
-0.0030777417123317
-0.0007149421144276
0.0008193762041628
0.0015220309142023
0.0014767195098102
0.0008373095188289
-0.0001984008122235
-0.0014127636095508
-0.0025884585920721
-0.0035312282852828
-0.0040915445424616
-0.0041775880381464
-0.0037581012584269
-0.0028563374653458
-0.0015379157848656
0.0001033008447848
0.0019597213249653
0.0039240117184817
0.0058982647024095
0.0077960263006389
0.0095429774373769
0.0110804270952939
0.0123680019751191
0.0133847557008266
0.0141319725662469
0.0146342618390917
0.0149313770234584
0.0150609109550714
0.0150372292846441
0.0148309664800763
0.0143561456352472
0.0134757095947861
0.0120316855609416
0.0098910592496395
0.006988326087594
0.0033511687070131
-0.0008952543139457
-0.0055413665249943
-0.0103151109069585
-0.014908704906702
-0.0190103091299533
-0.022338954731822
-0.0246768072247505
-0.0258925817906856
-0.0259540528059005
-0.024928206577897
-0.0229646936058998
-0.0202663224190473
-0.0170627310872077
-0.013593272306025
-0.0100916400551795
-0.0067706145346164
-0.0038081665989011
-0.0013336271513253
0.0005819173529744
0.0019263186259195
0.0027416034135967
0.0031190486624836
0.0031927325762808
0.0031226535793393
0.0030662959907203
0.0031550216954201
0.0034839552827179
0.0041072485037148
0.0050377412699162
0.0062545132823288
0.0077097751200199
0.0093299336731433
0.0110219670459628
0.0126891285181045
0.0142445154488086
0.0156190190464258
0.016766645014286
0.0176642965525388
0.0183044057339429
0.0186792779713869
0.018760023638606
0.0184850320219993
0.0177663769572973
0.0165035501122474
0.0145981796085834
0.0119795631617307
0.0086387926712632
0.0046518808230757
0.0001850220141932
-0.0045132893137633
-0.0091359969228506
-0.0133585650473833
-0.0168858524411916
-0.0194877833127975
-0.0210155602544546
-0.0214071497321128
-0.0206938236951828
-0.0190021935850381
-0.0165394395589828
-0.0135648315772414
-0.0103601682931184
-0.0072014252655208
-0.0043278043158352
-0.0019174343906342
-7.965695112943649e-05
0.0011447130236774
0.0017826040275394
0.0019233014900237
0.0017081128899008
0.0013147918507456
0.0009309574961662
0.0007224802393466
0.0008136031683534
0.0012811725027859
0.0021539095323532
0.003415071638301
0.0050091622397303
0.0068508125841617
0.0088373143225908
0.0108618112280964
0.0128196831792593
0.0146139524877071
0.0161680970340967
0.0174364149570465
0.0184029284864664
0.0190743319690227
0.019466457888484
0.0195815805345773
0.0193895064294338
0.018821895122528
0.0177759192883968
0.0161291770637035
0.0137685788795351
0.0106253232806921
0.0067053255625069
0.0021063447929918
-0.0029802911449223
-0.0082820607349276
-0.0134755009785294
-0.018228868022561
-0.02224026247859
-0.0252662785351276
-0.02714254707098
-0.0277911163866519
-0.0272175874561071
-0.0255093071609735
-0.0228371154516935
-0.019449109211564
-0.0156449433416128
-0.0117360958829522
-0.008009985089302
-0.0047080451622605
-0.0020108134485781
-2.4248729459941387e-05
0.0012249508872628
0.0017817881889641
0.0017503432463854
0.0012795076472684
0.0005430988967418
-0.0002866615541279
-0.0010621814290061
-0.0016706718597561
-0.0020335104782134
-0.0021023338194936
-0.0018581175245344
-0.0013112626038491
-0.0004977567587047
0.0005264629144221
0.0016923679504543
0.0029278208967298
0.0041699591092765
0.0053805606439709
0.0065561737865209
0.0077207847498357
0.0089080743491649
0.010148337110877
0.0114610623568296
0.0128465006127953
0.0142749343067407
0.0156743545085191
0.0169169940054416
0.0178157668560743
0.0181447807699441
0.0176814477890729
0.0162551831454038
0.0137883750721812
0.010320228524506
0.0060115735977888
0.0011322831269353
-0.0039673368446528
-0.0088974358513951
-0.0132751250639557
-0.0167708173394203
-0.0191499572247266
-0.0203009508550167
-0.0202388428151607
-0.0190871469676494
-0.0170514862984418
-0.0143926814198493
-0.0113982781767845
-0.0083545604720711
-0.0055221947841346
-0.0031126802787184
-0.0012668967247009
-4.471151623874903e-05
0.0005723647191189
0.0006711765308864
0.0003909393562935
-9.92262503132224e-05
-0.0006243915995582
-0.001022467855364
-0.001157114515081
-0.0009298759978264
-0.0002891860203817
0.0007697616238147
0.0022122226655483
0.0039714616723358
0.0059540849179029
0.0080461809411644
0.0101223932579159
0.0120584079995751
0.0137481512501835
0.0151187609881162
0.0161325465887784
0.0167792439460754
0.0170673299580812
0.0170169007033109
0.0166561566293239
0.0160196013748645
0.015140039846301
0.0140332924202084
0.0126829706132411
0.0110318334773182
0.008987097069621
0.0064432946965098
0.0033152103424072
-0.0004278989508748
-0.0047338292934
-0.0094546424224972
-0.0143561568111181
-0.0191468484699726
-0.0235169641673564
-0.0271762516349554
-0.0298835784196853
-0.0314700715243816
-0.0318550877273082
-0.0310532245784997
-0.0291710570454597
-0.0263900235295295
-0.0229410864412784
-0.0190801061689853
-0.0150671629235148
-0.0111509105190634
-0.0075517566874623
-0.0044407676905393
-0.0019255863735452
-4.817068111151457e-05
0.0012129665119573
0.001933925319463
0.0022258090320974
0.0022163628600537
0.0020416371989995
0.0018394351936876
0.0017385850660502
0.0018448838964104
0.002223108196631
0.0028833197429776
0.0037868018262088
0.0048697968013584
0.0060665695928037
0.0073202759958803
0.0085846623405814
0.0098227951675653
0.0110044945031404
0.0121049052104353
0.0131057947874069
0.0139959910884499
0.014768723398447
0.0154192000627517
0.0159447509795427
0.0163399763405323
0.0165801253169775
0.0166009068489074
0.0162899568676948
0.0155006777495145
0.0140863927081227
0.011938352137804
0.0090154698118567
0.0053662625141441
0.0011409583967179
-0.0034142113290727
-0.0079858666285872
-0.0122392466291785
-0.0158635899424552
-0.0186036899685859
-0.0202791113406419
-0.0208020042628049
-0.0201905574649572
-0.0185623653233051
-0.0161103382706642
-0.0130772115662693
-0.0097337942570447
-0.0063585499301552
-0.0032157334499061
-0.0005295181181281
0.0015407307073473
0.0029156231321394
0.0036001245025545
0.003677379572764
0.0032932320609688
0.0026355681475251
0.0019090175628662
0.0013069789856672
0.0009886438492685
0.0010638422099873
0.001583480159752
0.0025370852090418
0.0038603171706199
0.0054519404657185
0.0071950443089008
0.0089736012741923
0.0106809921562671
0.012225778773427
0.0135372793301939
0.0145689435303211
0.0153002105653285
0.0157379824668169
0.0159138366580009
0.0158731397241354
0.0156611856073141
0.0153115214779973
0.014831006526947
0.0141790928319096
0.0132591696456074
0.0119393412023782
0.0100876111537218
0.0076012043282389
0.0044347238726913
0.000629283953458
-0.0036731499712914
-0.0082421256229281
-0.0127875339239835
-0.016989704221487
-0.0205348115414381
-0.0231559835374355
-0.0246641002595424
-0.0249622240662574
-0.0240512378513813
-0.0220308862626552
-0.0190933253616094
-0.0155071364715695
-0.0115920715034008
-0.0076844193972647
-0.0040977764874696
-0.0010893624275922
0.0011631033848971
0.0025734591763466
0.0031464525964111
0.0029669106006622
0.0021838729735463
0.0009892091620713
-0.0004107989370822
-0.0018218331970274
-0.0030752555467188
-0.0040340451523661
-0.004599810577929
-0.0047206319868564
-0.004395121242851
-0.0036659422330558
-0.0026022410020232
-0.0012824963778257
0.0002149133943021
0.0018178048776462
0.0034633576869964
0.0050957156345248
0.0066643860191106
0.0081261815503239
0.0094458265230059
0.0105937048792839
0.011536399833858
0.0122209060937166
0.012566277757287
0.0124664800241589
0.0117988120764493
0.0104403933510184
0.0082951504737138
0.0053257667459547
0.0015782359987497
-0.0028119592461735
-0.007626537233591
-0.012576438486576
-0.0173270516097545
-0.0215390305966138
-0.0249110460281372
-0.0272105243057012
-0.0282891541719436
-0.0280908420681953
-0.0266569685190916
-0.0241237990558147
-0.0207100734114646
-0.0166973583400249
-0.0124013647437095
-0.0081380866467952
-0.0041951360180974
-0.0008087125606834
0.00185760948807
0.0037277797237038
0.0048164129257202
0.0052201095968484
0.0051003308035433
0.0046610729768872
0.004122020676732
0.0036897815298289
0.0035318555310368
0.0037564688827842
0.0044021923094987
0.005440576467663
0.0067901010625064
0.0083358818665146
0.0099491877481341
0.0115032326430082
0.0128860119730234
0.0140128247439861
0.0148356053978204
0.0153416749089956
0.0155407628044486
0.0154476501047611
0.0150668136775493
0.0143783409148454
0.0133300013840198
0.0118478937074542
0.0098621044307947
0.0073325880803167
0.0042727785184979
0.0007682724390178
-0.0030198274180293
-0.0068665682338178
-0.010506460443139
-0.0136676225811243
-0.0161058567464351
-0.0176302995532751
-0.0181207805871963
-0.0175378080457448
-0.0159301683306694
-0.0134392287582159
-0.0102898441255092
-0.0067640854977071
-0.0031616007909178
0.000241033732891
0.0032154433429241
0.0055933520197868
0.0072757392190396
0.0082358345389366
0.0085143307223916
0.0082126297056674
0.0074831908568739
0.0065113976597785
0.0054889521561563
0.0045882333070039
0.0039458107203245
0.0036547223571687
0.0037623597308993
0.0042701661586761
0.0051373019814491
0.0062923678196966
0.0076474593952298
0.0091093825176358
0.0105892270803451
0.0120093841105699
0.0133048202842473
0.0144206900149583
0.0153094325214624
0.0159213226288557
0.0161868967115879
0.0160073079168796
0.0152669325470924
0.013859748840332
0.011714712716639
0.0088207526132464
0.0052498644217848
0.0011638384312391
-0.0031996627803891
-0.0075535420328378
-0.0115966154262423
-0.0150507539510726
-0.0176880322396755
-0.0193482413887977
-0.0199511740356683
-0.0195000730454921
-0.0180743932723999
-0.0158191546797752
-0.0129362409934401
-0.0096713146194815
-0.0062921391800045
-0.0030619632452726
-0.0002113576047122
0.0020860363729298
0.0037306542508304
0.0047052102163434
0.0050692558288574
0.0049417624250054
0.0044799256138503
0.0038590426556766
0.0032512808684259
0.0028037673328071
0.0026222700253129
0.0027642720378935
0.0032423725351691
0.0040339883416891
0.0050895758904516
0.0063373334705829
0.0076883630827069
0.0090454192832112
0.0103138517588377
0.0114138955250382
0.0122921038419008
0.0129204979166388
0.0132797872647643
0.0133406780660152
0.0130538735538721
0.0123470406979322
0.0111266784369945
0.0092897079885005
0.0067485645413398
0.003464916255325
-0.0005187964998185
-0.005061752628535
-0.0099289678037166
-0.0148174976930022
-0.0193949416279792
-0.0233374424278736
-0.0263624936342239
-0.0282604992389678
-0.0289237964898347
-0.0283579677343368
-0.0266684256494045
-0.0240366254001855
-0.0206981357187032
-0.0169212203472852
-0.0129841901361942
-0.00915386993438
-0.0056629609316587
-0.0026863352395594
-0.0003271394234616
0.0013820911990478
0.0024706614203751
0.0030179824680089
0.0031378343701362
0.0029619475826621
0.0026296167634427
0.002281995024532
0.0020521697588264
0.0020480821840465
0.0023374068550765
0.0029434757307171
0.0038485962431877
0.0049995528534054
0.0063188741914927
0.0077200839295983
0.0091192321851849
0.0104430373758077
0.0116342296823859
0.0126526430249214
0.0134766437113285
0.0141021152958273
0.0145319066941738
0.0147618325427174
0.0147672006860375
0.0144886597990989
0.0138271171599626
0.0126552898436784
0.0108424602076411
0.0082906624302268
0.0049743233248591
0.0009644725359976
-0.003568485379219
-0.0083671556785702
-0.0131125347688794
-0.0174598637968301
-0.0210832878947258
-0.023722805082798
-0.0252156555652618
-0.0255036298185586
-0.0246232189238071
-0.022689513862133
-0.0198841542005538
-0.0164451990276575
-0.0126478672027587
-0.0087769860401749
-0.0050993165932595
-0.0018398708198219
0.0008357535116374
0.0028338562697172
0.0041401986964046
0.0048167281784117
0.0049831438809633
0.0047917729243636
0.0044083637185394
0.0039984565228223
0.0037126522511243
0.003669795114547
0.003940678667277
0.004539905115962
0.0054336842149496
0.0065583977848291
0.0078364554792642
0.0091844443231821
0.0105199664831161
0.0117715559899806
0.0128877256065607
0.0138383209705352
0.014607579447329
0.0151877161115407
0.0155777372419834
0.0157838203012943
0.0158184431493282
0.0156966317445039
0.0154285198077559
0.0150061510503292
0.0143849421292543
0.0134733961895108
0.0121450936421751
0.0102683939039707
0.0077417129650712
0.0045279520563781
0.000680083874613
-0.003652176586911
-0.008236720226705
-0.0127891190350055
-0.0170075856149196
-0.02060485817492
-0.0233401805162429
-0.0250475257635116
-0.0256475303322076
-0.0251463651657104
-0.0236335713416337
-0.0212765634059906
-0.0183027870953083
-0.0149708362296223
-0.0115392226725816
-0.0082430848851799
-0.0052820555865764
-0.0028091727290302
-0.0009168977267108
0.0003706022689584
0.0010951099684461
0.0013545983238145
0.0012873052619397
0.0010517115006223
0.0008047523442655
0.000681365840137
0.0007816754514351
0.0011674247216433
0.0018610202241688
0.0028431718237698
0.0040539735928177
0.0054047033190727
0.0067987036891281
0.0081518236547708
0.0094044627621769
0.0105193080380558
0.0114706186577677
0.0122403129935264
0.012821028009057
0.0132174845784902
0.0134433675557374
0.0135152135044336
0.0134499100968241
0.013265648856759
0.0129801901057362
0.0126083735376596
0.0121580846607685
0.0116188423708081
0.0109462039545178
0.0100532006472349
0.0088166762143373
0.0070991409011185
0.0047834394499659
0.0018100528977811
-0.0017976174131035
-0.0059225233271718
-0.0103549528867006
-0.0148103386163711
-0.0189656876027584
-0.0225069392472505
-0.0251753907650709
-0.0267982222139835
-0.0272971503436565
-0.0266859289258718
-0.0250647850334644
-0.0226076431572437
-0.0195420198142528
-0.0161250978708267
-0.0126154012978076
-0.0092462496832013
-0.0062088756822049
-0.0036427867598831
-0.0016302710864692
-0.0001959969231393
0.0006901115411892
0.0011089894687756
0.0011824072571471
0.0010529540013521
0.0008612410165369
0.0007282160804606
0.0007453542784787
0.0009736015344969
0.0014466815628111
0.0021718982607126
0.0031306720338761
0.0042854705825448
0.0055871522054076
0.0069757415913045
0.0083838962018489
0.0097469976171851
0.0110109057277441
0.0121340444311499
0.0130849480628967
0.0138386841863393
0.0143765900284051
0.0146880373358726
0.0147732514888048
0.0146470479667186
0.0143392300233244
0.013890266418457
0.0133429942652583
0.0127265602350234
0.0120333712548017
0.0112035954371094
0.0101319774985313
0.0086933951824903
0.0067716445773839
0.0042845355346798
0.0012081712484359
-0.002401050645858
-0.0063945408910512
-0.0105382725596427
-0.0145424529910087
-0.0181066803634166
-0.0209663920104503
-0.0229288395494222
-0.023889085277915
-0.0238263644278049
-0.0227952003479003
-0.0209190156310796
-0.0183782000094652
-0.0153882820159196
-0.0121758636087179
-0.008960754610598
-0.0059439581818878
-0.0032956777140498
-0.0011413083411753
0.0004506994155235
0.0014744390500709
0.0019840477034449
0.0020815548487007
0.00189791736193
0.0015755193307995
0.001251723151654
0.001043306896463
0.0010408016387373
0.0013074565213173
0.0018714019097387
0.0027213369030505
0.0038141002878546
0.0050842692144215
0.0064518963918089
0.0078305304050445
0.0091377263888716
0.0103093469515442
0.0113068185746669
0.0121112372726202
0.0127153182402253
0.013123033568263
0.0133528830483555
0.0134325008839368
0.0133888320997357
0.0132481325417757
0.0130373295396566
0.0127723570913076
0.0124391634017229
0.0119820814579725
0.0113085750490427
0.0103056896477937
0.0088585410267114
0.0068712844513356
0.0042932443320751
0.001142153982073
-0.0024882017169147
-0.0064360294491052
-0.0104843229055404
-0.014377498999238
-0.0178492404520511
-0.0206568613648414
-0.0226098150014877
-0.0235885828733444
-0.0235567279160022
-0.0225648880004882
-0.0207417197525501
-0.0182730555534362
-0.015375561080873
-0.012272466905415
-0.0091797290369868
-0.0062988339923322
-0.0038027050904929
-0.00181530485861
-0.0003985883668065
0.0004486991674639
0.0007858211756683
0.0007211186457425
0.0003992654383182
-1.7041806131601334e-05
-0.0003717043437063
-0.0005378902424126
-0.0004317564889788
-1.7150072380900383e-05
0.000699846772477
0.0016811426030471
0.0028652211185544
0.0041792625561356
0.0055535389110445
0.0069280993193387
0.0082521680742502
0.0094820447266101
0.0105809299275279
0.0115207815542817
0.012281997129321
0.0128526408225297
0.013232004828751
0.0134327383711934
0.013477087020874
0.013391176238656
0.0131988171488046
0.0129172028973698
0.012552935630083
0.0120907071977853
0.0114803509786725
0.0106347287073731
0.0094397105276584
0.0077753011137247
0.005547035485506
0.0027160549070686
-0.000682720914483
-0.004532657098025
-0.0086363647133111
-0.0127328410744667
-0.0165347848087549
-0.0197706930339336
-0.0222135931253433
-0.0236993115395307
-0.0241404883563518
-0.0235349163413047
-0.0219683405011892
-0.0196070950478315
-0.0166776534169912
-0.013437770307064
-0.0101424939930439
-0.0070154871791601
-0.0042354287579655
-0.0019303488079458
-0.0001737838611006
0.0010152871254831
0.0016704014269635
0.0018739498918876
0.0017453073523938
0.0014199703000485
0.001030902378261
0.0006985331419855
0.0005244547501206
0.000585014000535
0.0009281337261199
0.0015733330510556
0.0025096202734857
0.0036950970534235
0.0050646630115807
0.0065402751788496
0.0080378977581858
0.0094753690063953
0.010784501209855
0.0119193429127335
0.0128528513014316
0.0135684590786695
0.0140575636178255
0.0143242208287119
0.0143890921026468
0.0142872165888547
0.0140630155801773
0.0137633569538593
0.0134236924350261
0.0130506381392478
0.012608584947884
0.0120139271020889
0.0111426701769232
0.0098531171679496
0.0080161560326814
0.0055468128994107
0.002433750545606
-0.0012427358888089
-0.005313713569194
-0.0095416149124503
-0.0136480703949928
-0.0173440054059028
-0.0203597880899906
-0.0224767122417688
-0.0235563032329082
-0.0235562976449728
-0.0225260276347398
-0.020589618012309
-0.0179313588887453
-0.0147828366607427
-0.0114037133753299
-0.0080554950982332
-0.0049725556746125
-0.0023379710037261
-0.0002709322143346
0.0011756642488762
0.0020112143829464
0.0022971804719418
0.002134115435183
0.0016527506522834
0.0010072388686239
0.0003619010094553
-0.000130915781483
-0.0003548122476786
-0.0002435077913105
0.0002203879412263
0.001015473389998
0.0020914627239108
0.0033786033745855
0.0047991508617997
0.0062768319621682
0.0077397963032126
0.0091189965605735
0.0103508699685335
0.0113895311951637
0.0122167058289051
0.0128367654979228
0.0132630784064531
0.0135097280144691
0.0135929845273494
0.0135353449732065
0.0133620034903287
0.0130893131718039
0.0127156060189008
0.0122157204896211
0.0115336403250694
0.0105809792876243
0.0092486487701535
0.0074274647049605
0.0050352290272712
0.0020476172212511
-0.0014781031059101
-0.005399374756962
-0.009505926631391
-0.013545598834753
-0.0172508787363767
-0.0203697383403778
-0.0226959567517042
-0.0240897350013256
-0.0244860760867595
-0.0238934867084026
-0.0223905779421329
-0.0201206617057323
-0.017278503626585
-0.0140932807698845
-0.0108114937320351
-0.0076748542487621
-0.0048923287540674
-0.0026156608946621
-0.0009285078849643
0.0001527699641883
0.0006747250445187
0.0007368114311248
0.0004732250235974
3.360467962920666e-05
-0.0004326393827795
-0.0007897443138062
-0.0009275269694626
-0.0007710009813308
-0.0002870257012546
0.0005158400163054
0.0015976529102772
0.0029013503808528
0.0043610967695713
0.0059047089889645
0.007459111046046
0.0089601976796984
0.0103587238118052
0.0116195892915129
0.0127184279263019
0.0136395627632737
0.0143766738474369
0.0149309653788805
0.0153042953461408
0.015496889129281
0.0155138149857521
0.0153661984950304
0.0150585630908608
0.0145715558901429
0.0138514060527086
0.0128120500594377
0.0113505804911255
0.0093702850863337
0.0068053361028432
0.0036463974975049
-3.7287245504558086e-05
-0.0040900958701968
-0.0082824844866991
-0.0123420059680938
-0.0159941278398036
-0.0189990699291229
-0.0211736653000116
-0.022399865090847
-0.022629139944911
-0.0218824986368417
-0.0202458426356315
-0.0178660973906517
-0.0149436127394437
-0.0117141474038362
-0.0084219127893447
-0.0052917213179171
-0.0025117599871009
-0.0002254196442663
0.0014797056792303
0.0025833980180323
0.0031317356042563
0.0032198822591453
0.0029694403056055
0.002513428684324
0.0019885119982063
0.0015238551422953
0.0012262668460607
0.0011727986857295
0.0014137884136289
0.0019754483364522
0.0028555344324558
0.0040224934928119
0.0054255188442766
0.0070039425045251
0.0086864586919546
0.0103898327797651
0.0120278745889663
0.013523519039154
0.0148136019706726
0.0158507004380226
0.0166075509041547
0.0170803014189004
0.0172856990247964
0.0172487013041973
0.0169839952141046
0.0164804402738809
0.0156930983066558
0.0145475035533308
0.01295583602041
0.0108362082391977
0.0081346444785594
0.0048497840762138
0.0010492117144167
-0.0031266682781279
-0.0074736280366778
-0.0117486119270324
-0.0156995244324207
-0.0190885290503501
-0.021713750436902
-0.0234311539679765
-0.0241711512207984
-0.023946201428771
-0.022846270352602
-0.021023690700531
-0.0186711028218269
-0.0159982778131961
-0.0132164880633354
-0.0105269383639097
-0.0081050721928477
-0.0060837245546281
-0.0045395283959805
-0.003484510583803
-0.0028677121736109
-0.0025895584840327
-0.0025228215381503
-0.0025324106682091
-0.0024943030439317
-0.002312091179192
-0.0019244116265326
-0.0013045874657109
-0.0004562501562759
0.0005972278304398
0.0018247120315209
0.0031900273170322
0.0046474761329591
0.0061400672420859
0.0076007838360965
0.0089562190696597
0.0101389335468411
0.0111054498702287
0.0118465879932045
0.0123830391094088
0.0127501497045159
0.0129819177091121
0.0130998780950903
0.0131058748811483
0.0129740368574857
0.0126386759802699
0.0119897238910198
0.0108902025967836
0.0092091057449579
0.0068553416058421
0.0038063051179051
0.0001264750026166
-0.0040275971405208
-0.008417067117989
-0.0127444816753268
-0.016690369695425
-0.0199573822319507
-0.0223079808056354
-0.0235890094190835
-0.0237469282001256
-0.0228320397436618
-0.0209863912314176
-0.0184219982475042
-0.0154005549848079
-0.0122085036709904
-0.0091215064749121
-0.0063737989403307
-0.0041400240734219
-0.0025169849395751
-0.00150832766667
-0.0010323454625904
-0.0009530878160148
-0.0011137435212731
-0.0013598999939858
-0.0015557529404759
-0.0015945378690958
-0.0013995957560837
-0.000919874291867
-0.0001282189041376
0.0009767450392246
0.002370148897171
0.0040040574967861
0.0058120042085647
0.0077127427794039
0.0096166469156742
0.0114385318011045
0.0131110921502113
0.0145914889872074
0.0158607643097639
0.0169174447655677
0.0177680887281894
0.0184148624539375
0.0188380293548107
0.0189821310341358
0.0187554601579904
0.0180411636829376
0.0167159587144851
0.0146749038249254
0.0118614984676241
0.0082964971661567
0.0040952246636152
-0.0005318159237504
-0.0052988110110163
-0.0098821250721812
-0.0139614082872867
-0.0172538664191961
-0.0195440873503685
-0.0207098890095949
-0.0207318868488073
-0.0196824632585048
-0.017707884311676
-0.015011204406619
-0.0118302777409553
-0.008412548340857
-0.0049976571463048
-0.0018073867540806
0.0009697510395199
0.0032002159859985
0.0048181689344346
0.0058240895159542
0.0062787337228655
0.0062933843582868
0.0060120485723018
0.0055907256901264
0.005176325328648
0.0048835398629307
0.0047792550176382
0.0048828478902578
0.0051758177578449
0.0056131295859813
0.0061336387880146
0.0066658807918429
0.0071319788694381
0.0074593992903828
0.0076005412265658
0.0075494740158319
0.0073441979475319
0.0070504965260624
0.0067364778369665
0.0064525166526436
0.0062254732474684
0.0060616936534643
0.0059424201026558
0.0058063166216015
0.0055355681106448
0.0049642408266663
0.0039098234847188
0.0022143055684864
-0.0002150079235434
-0.0033712207805365
-0.0071331365033984
-0.0112763699144124
-0.0155049553140997
-0.0194934830069541
-0.0229256581515073
-0.0255233608186244
-0.0270709823817014
-0.0274359434843063
-0.0265836063772439
-0.0245848093181848
-0.0216103456914424
-0.0179101042449474
-0.0137821873649954
-0.009539084509015
-0.0054751164279878
-0.0018373602069914
0.0011971814092248
0.0035340506583452
0.0051599717698991
0.0061318725347518
0.006561329588294
0.0065961158834397
0.0064053228124976
0.0061684106476604
0.0060597481206059
0.0062259738333523
0.006764049641788
0.0077123995870351
0.0090531818568706
0.0107136024162173
0.0125717846676707
0.0144795766100287
0.0162951089441776
0.0179062932729721
0.0192374661564826
0.020247308537364
0.0209258552640676
0.0212894193828105
0.02137091755867
0.0212071202695369
0.0208225082606077
0.0202062353491783
0.0192924905568361
0.01796137355268
0.016060022637248
0.0134377311915159
0.0099891126155853
0.0056928894482553
0.0006380975246429
-0.0049687982536852
-0.0108231157064437
-0.0165605805814266
-0.021801246330142
-0.026194654405117
-0.0294615533202886
-0.0314196869730949
-0.0319927744567394
-0.0312127731740474
-0.0292153097689151
-0.0262220911681652
-0.0225138701498508
-0.0184024218469858
-0.014203218743205
-0.0102078886702656
-0.0066589098423719
-0.0037314146757125
-0.0015256167389452
-6.510259117931128e-05
0.0007042669458314
0.0009092001710087
0.0007294239476323
0.0003653019666671
4.6459026634693146e-06
-0.0001977493520826
-0.0001246817409992
0.0003055282868444
0.0011366952676326
0.0023681295569986
0.0039536328986287
0.0058112265542149
0.0078402142971754
0.0099377511069178
0.0120076574385166
0.0139639349654316
0.0157352611422538
0.017268406227231
0.0185270402580499
0.0194887332618236
0.0201427824795246
0.0204851161688566
0.0205052830278873
0.0201705265790224
0.0194188449531793
0.0181654915213584
0.0163191519677639
0.0138075361028313
0.0106112016364932
0.0067906850017607
0.0024928590282797
-0.0020612021908164
-0.0065991096198558
-0.0108264628797769
-0.0144593138247728
-0.0172549057751894
-0.0190369728952646
-0.0197141803801059
-0.0192885026335716
-0.0178533308207988
-0.0155848637223243
-0.0127266868948936
-0.009565888904035
-0.0064002792350947
-0.0034995784517377
-0.0010739678982645
0.0007370298262685
0.0018616213928908
0.002292588353157
0.0020879781804978
0.0013703391887247
0.0003132610581815
-0.0008890177123248
-0.0020538005046546
-0.0030255587771534
-0.0036780457012355
-0.0039193322882056
-0.00370386056602
-0.0030385691206902
-0.0019747507758438
-0.0005960362032055
0.0009902282617986
0.0026659499853849
0.0043213833123445
0.0058679492212831
0.0072364346124231
0.0083711836487054
0.0092328516766428
0.0098052956163883
0.010099739767611
0.0101549085229635
0.010024894028902
0.0097503429278731
0.0093273939564824
0.0086939893662929
0.007740163244307
0.0063356477767229
0.0043684728443622
0.0017861118540167
-0.0013797832652926
-0.0050131371244788
-0.00892617367208
-0.0128769120201468
-0.016594061627984
-0.0198126845061779
-0.0223111994564533
-0.0239317286759614
-0.0245843678712844
-0.0242478959262371
-0.0229688063263893
-0.0208571143448352
-0.0180777832865715
-0.0148359276354312
-0.011359890922904
-0.0078859403729438
-0.0046399892307817
-0.0018151028780266
0.0004466080572456
0.0020658508874475
0.0030346948187798
0.0034163799136877
0.003332344116643
0.0029373080469667
0.0023891911841928
0.0018274034373462
0.0013637691736221
0.0010799973970279
0.0010272928047925
0.0012251661391928
0.0016591384774073
0.0022832655813544
0.003032584907487
0.003842701902613
0.0046650497242808
0.0054675280116498
0.0062265079468488
0.0069217961281538
0.0075377421453595
0.0080679086968302
0.0085126245394349
0.0088615240529179
0.0090713687241077
0.0090584428980946
0.0087107056751847
0.0079058175906538
0.0065287481993436
0.0044975350610911
0.0017959768883883
-0.0015017811674624
-0.0052268160507082
-0.0091302273795008
-0.0129101974889636
-0.0162507202476263
-0.018867278471589
-0.0205434896051883
-0.0211508441716432
-0.0206563677638769
-0.0191214196383953
-0.0166897419840097
-0.0135667994618415
-0.0099968491122126
-0.0062404186464846
-0.0025526406243443
0.0008385884575545
0.0037549280095845
0.0060817506164312
0.0077683432027697
0.0088228890672326
0.0093092434108257
0.009342698380351
0.009078960865736
0.0086932415142655
0.0083564296364784
0.0082150008529424
0.0083740809932351
0.0088872518390417
0.0097557716071605
0.0109354313462972
0.0123469810932874
0.0138834360986948
0.0154206259176135
0.0168412756174802
0.0180591512471437
0.0190235320478677
0.0197077747434377
0.0200969316065311
0.0201790444552898
0.0199383944272995
0.0193481408059597
0.0183603595942258
0.0169007387012243
0.0148782227188348
0.0122095812112092
0.0088492967188358
0.0048132110387086
0.0001932764425873
-0.004833954386413
-0.0100135104730725
-0.0150401899591088
-0.0195988658815622
-0.0234048049896955
-0.0262364298105239
-0.0279548335820436
-0.0285084806382656
-0.0279248785227537
-0.0262972023338079
-0.0237733144313097
-0.020546805113554
-0.0168458465486764
-0.0129158655181527
-0.0089989695698022
-0.0053171021863818
-0.0020593232475221
0.0006272537866607
0.0026425588876008
0.0039410735480487
0.0045414511114358
0.0045265238732099
0.0040317801758646
0.0032295095734298
0.0023069207090884
0.0014377592597156
0.0007597579387947
0.0003668813733384
0.0003124712966382
0.0006150997942313
0.0012628774857148
0.0022146585397422
0.0034013357944786
0.004736584611237
0.0061346348375082
0.0075201336294412
0.0088276714086532
0.0100015951320528
0.0109997484833002
0.0117942821234464
0.0123642059043049
0.0126844234764575
0.0127180507406592
0.0124098621308803
0.0116818314418196
0.010442373342812
0.0086109992116689
0.0061462414450943
0.0030684624798595
-0.0005271070403978
-0.004472155123949
-0.0085413446649909
-0.0124751692637801
-0.0160040371119976
-0.0188772361725568
-0.0208951216191053
-0.021930580958724
-0.0219355821609497
-0.0209395084530115
-0.0190422106534242
-0.016405614092946
-0.0132436677813529
-0.0098018422722816
-0.0063272560946643
-0.0030423628631979
-0.0001277511473745
0.0022897426970303
0.0041432855650782
0.0054224431514739
0.0061643589287996
0.0064497478306293
0.0063999183475971
0.006163072772324
0.0058929091319441
0.0057291537523269
0.0057832114398479
0.0061300741508603
0.0068042250350117
0.0077975979074835
0.0090614967048168
0.0105152586475014
0.0120620094239711
0.0136026591062545
0.0150412488728761
0.0162881817668676
0.0172683242708444
0.017929321154952
0.0182401463389396
0.0181844495236873
0.0177626945078372
0.0169992242008447
0.0159387160092592
0.0146278431639075
0.0130931455641984
0.0113287977874279
0.0092962700873613
0.0069320537149906
0.0041642924770712
0.0009378078393638
-0.0027594696730375
-0.006875411607325
-0.0112830577418208
-0.0157876759767532
-0.0201490670442581
-0.0241085793823003
-0.0274176821112632
-0.0298646409064531
-0.0312963128089904
-0.0316363200545311
-0.030893251299858
-0.0291556324809789
-0.0265827253460884
-0.0233922246843576
-0.0198363326489925
-0.0161726344376802
-0.0126412902027368
-0.0094449482858181
-0.0067287851125001
-0.0045662708580493
-0.0029558499809354
-0.0018298756331205
-0.0010717124678194
-0.0005385405384004
-8.644582703709602e-05
0.0004113535396754
0.0010548396967351
0.0019099581986665
0.0030055947136133
0.0043397773988544
0.0058888415805995
0.0076118744909763
0.0094514060765504
0.0113333594053983
0.0131710553541779
0.0148769132792949
0.0163777656853199
0.0176273491233587
0.0186112448573112
0.019341841340065
0.0198492184281349
0.0201769303530454
0.0203785970807075
0.0205057524144649
0.0205908510833978
0.0206345450133085
0.0205971617251634
0.0203915927559137
0.0198820792138576
0.0188953839242458
0.0172467641532421
0.0147816557437181
0.0114215789362788
0.0071894377470016
0.0022084596566855
-0.0033081038855016
-0.0090701561421155
-0.0147351697087287
-0.0199457537382841
-0.0243724137544631
-0.0277495719492435
-0.0298965089023113
-0.0307287275791168
-0.030264550819993
-0.0286185257136821
-0.0259818453341722
-0.022601556032896
-0.0187592450529336
-0.0147428838536143
-0.0108177149668335
-0.0072065782733261
-0.0040755742229521
-0.0015217560576274
0.0004254555096849
0.0017911327304318
0.0026482404209673
0.003115193452686
0.0033405786380171
0.0034756895620375
0.0036504487507045
0.0039620879106223
0.0044693844392895
0.0051848883740603
0.0060749952681362
0.0070721041411161
0.0080879051238298
0.0090297516435384
0.0098245786502957
0.0104333385825157
0.0108436476439237
0.0110545037314295
0.0110718645155429
0.0109158307313919
0.0106254331767559
0.0102529870346188
0.0098543288186192
0.0094810938462615
0.0091760549694299
0.0089724902063608
0.008888698183
0.0089096026495099
0.00896733161062
0.0089345052838325
0.0086367139592766
0.0078857559710741
0.0065178801305592
0.0044232914224267
0.0015726834535598
-0.0019620582461357
-0.0060049402527511
-0.0102926259860396
-0.014511065557599
-0.0183446183800697
-0.0215175822377204
-0.0238184165209531
-0.0251134354621171
-0.025356663390994
-0.0245948489755392
-0.0229624398052692
-0.0206628423184156
-0.0179375149309635
-0.015030157752335
-0.0121589759364724
-0.009503367356956
-0.0071956170722842
-0.0053112632595002
-0.0038651935756206
-0.0028193024918437
-0.0020973423961549
-0.0015990808606147
-0.001211310736835
-0.0008172839879989
-0.0003063527401536
0.0004142054822295
0.0014056763611733
0.0026915790513157
0.0042635574936866
0.0060862656682729
0.0080927265807986
0.0101830791682004
0.012237393297255
0.0141344126313924
0.0157647486776113
0.017038894817233
0.0178952477872371
0.0183102041482925
0.0183057356625795
0.0179431773722171
0.0173026416450738
0.0164626222103834
0.0154893659055233
0.0144335431978106
0.0133274514228105
0.0121773313730955
0.0109513234347105
0.0095737082883715
0.0079362746328115
0.0059245349839329
0.0034487748052924
0.0004719458520412
-0.0029681790620088
-0.0067465901374816
-0.0106568969786167
-0.0144353117793798
-0.0177954975515604
-0.0204694103449583
-0.0222463756799697
-0.0229978244751691
-0.0226827971637249
-0.0213444624096155
