bvp
0.0056623211130499
0.0066020265221595
0.0078217992559075
0.0092731807380914
0.0108866598457098
0.0125830648466944
0.0142849264666438
0.0159233286976814
0.0174431689083576
0.0188095420598983
0.0200095940381288
0.0210473071783781
0.0219363290816545
0.0226948279887437
0.0233428534120321
0.0238975137472152
0.0243571493774652
0.0246776901185512
0.0247576609253883
0.0244412273168563
0.0235383622348308
0.0218600407242774
0.0192626826465129
0.0156892128288745
0.0111936731263995
0.0059425411745905
0.0001941053196787
-0.0057365894317626
-0.0115174017846584
-0.0168344732373952
-0.0214192010462284
-0.0250669121742248
-0.027648989111185
-0.0291213188320398
-0.0295296106487512
-0.0290045663714408
-0.0277406573295593
-0.0259672030806541
-0.0239226017147302
-0.0218311510980129
-0.0198809690773487
-0.01820595189929
-0.0168780349195003
-0.0159142222255468
-0.0152921415865421
-0.0149655770510435
-0.0148775028064847
-0.014969547279179
-0.0151881873607635
-0.015490349382162
-0.0158477462828159
-0.0162457339465618
-0.0166755430400371
-0.0171222146600484
-0.0175514128059148
-0.0178975239396095
-0.0180585477501153
-0.017908489331603
-0.0173263251781463
-0.0162253305315971
-0.0145738096907734
-0.012409352697432
-0.0098402518779039
-0.0070257624611258
-0.0041535515338182
-0.0014370591379702
0.0008814143948256
0.0025492887943983
0.0033451572526246
0.0031206118874251
0.0018208336550742
-0.0005168206989765
-0.0037737353704869
-0.0077641131356358
-0.0122492937371134
-0.0169493742287158
-0.021559527143836
-0.0257779844105243
-0.0293358191847801
-0.0320176482200622
-0.033676590770483
-0.0342484824359416
-0.0337614901363849
-0.0323341116309165
-0.0301570016890764
-0.0274607632309198
-0.0244794245809316
-0.0214199684560298
-0.0184448938816785
-0.0156683474779129
-0.0131589602679014
-0.0109391249716281
-0.0089792013168334
-0.0072023756802082
-0.0055087246000766
-0.003803577274084
-0.0020141527056694
-9.13180410861969e-05
0.0019957683980464
0.0042618997395038
0.0067037567496299
0.0092976614832878
0.0120000950992107
0.0147544331848621
0.01750317402184
0.0201989989727735
0.0228123646229505
0.0253374185413122
0.0277924630790948
0.0302094463258981
0.0326142832636833
0.0350091084837913
0.0373649448156356
0.0396195352077484
0.0416750907897949
0.0434012673795223
0.0446473807096481
0.0452582985162735
0.0450906045734882
0.0440346375107765
0.0420408099889755
0.0391355007886886
0.0354222804307937
0.0310771577060222
0.0263349637389183
0.0214615166187286
0.0167225636541843
0.0123629700392484
0.0085985977202653
0.0056170970201492
0.0035818591713905
0.0026322454214096
0.0028766356408596
0.0043785646557807
0.007136819884181
0.0110677443444728
0.0159976352006196
0.0216617099940776
0.0277110077440738
0.0337378866970539
0.0393222421407699
0.0440874435007572
0.0477491170167923
0.0501428693532943
0.0512294135987758
0.0510876476764678
0.049900334328413
0.0479236654937267
0.0454424321651458
0.0427290350198745
0.040014561265707
0.0374688953161239
0.0351911187171936
0.0332128331065177
0.0315126962959766
0.030037797987461
0.0287249330431222
0.0275158789008855
0.0263649243861436
0.0252377763390541
0.0241029895842075
0.0229197032749652
0.0216287076473236
0.0201532691717147
0.0184074454009532
0.0163041800260543
0.0137615073472261
0.0107181705534458
0.0071616675704717
0.0031473599374294
-0.0012030266225337
-0.0057136490941047
-0.010174460709095
-0.014368399977684
-0.018099196255207
-0.021215733140707
-0.0236273594200611
-0.0253064595162868
-0.0262827724218368
-0.0266326442360878
-0.0264659263193607
-0.0259144604206085
-0.0251206997781991
-0.0242238994687795
-0.0233466774225235
-0.0225864239037036
-0.0220112856477499
-0.0216584373265504
-0.0215350873768329
-0.0216217041015625
-0.0218759849667549
-0.022237466648221
-0.0226343516260385
-0.0229963231831789
-0.0232695564627647
-0.0234238822013139
-0.0234555937349796
-0.0233895946294069
-0.0232707727700471
-0.0231461077928543
-0.0230510309338569
-0.0230028573423624
-0.0230016577988863
-0.0230394378304481
-0.0231093931943178
-0.0232120230793952
-0.0233658961951732
-0.0236227251589298
-0.0240719001740217
-0.0248231254518032
-0.0259755905717611
-0.0275904666632413
-0.0296729430556297
-0.0321641489863395
-0.034943338483572
-0.0378367751836776
-0.040631640702486
-0.0430984497070312
-0.0450224764645099
-0.0462362580001354
-0.0466399565339088
-0.0462058521807193
-0.044976744800806
-0.0430596023797988
-0.0406066700816154
-0.0377909988164901
-0.0347903743386268
-0.0317777246236801
-0.0289078019559383
-0.0263033118098974
-0.0240489244461059
-0.022188913077116
-0.0207231435924768
-0.0196074917912483
-0.0187637452036142
-0.0180931687355041
-0.0174896847456693
-0.0168566964566707
-0.0161233767867088
-0.0152492811903357
-0.0142169063910841
-0.0130215352401137
-0.0116687379777431
-0.0101802730932831
-0.0085950633510947
-0.0069589139893651
-0.0053144600242376
-0.0036986423656344
-0.0021434440277516
-0.0006797928363084
0.0006525889039039
0.0017962520942091
0.0026797791942954
0.0032335300929844
0.0034038925077766
0.0031601232476532
0.0025024826172739
0.00147637038026
0.0001805801875889
-0.001240087673068
-0.0026119863614439
-0.0037536560557782
-0.0045000603422522
-0.0047241598367691
-0.0043465066701173
-0.0033357851207256
-0.0017130682244896
0.0004447484388947
0.0030156150460243
0.0058510871604084
0.008793237619102
0.0116907050833106
0.0144132692366838
0.0168604515492916
0.0189643055200576
0.0206897910684347
0.0220339000225067
0.0230230223387479
0.0237088836729526
0.0241660568863153
0.0244874861091375
0.0247683264315128
0.0250844992697238
0.0254820939153432
0.0259779505431652
0.0265630967915058
0.0272074416279792
0.0278679654002189
0.0285005904734134
0.0290700700134038
0.0295492522418499
0.0299060940742492
0.0300877653062343
0.0300153754651546
0.0295928232371807
0.0287226997315883
0.0273271985352039
0.0253721587359905
0.0228829085826873
0.0199467148631811
0.0167077574878931
0.013356851413846
0.0101127158850431
0.0071950508281588
0.0047965152189135
0.0030609685927629
0.0020688856020569
0.0018305135890841
0.0022887839004397
0.0033303201198577
0.0048002498224377
0.0065183471888303
0.008296525105834
0.0099582076072692
0.01135771907866
0.0123937027528882
0.013014581054449
0.0132183087989687
0.0130458259955048
0.0125718545168638
0.0118967248126864
0.0111337834969162
0.0103913834318518
0.0097578661516308
0.0092930030077695
0.009024130180478
0.0089460127055644
0.009024254977703
0.0092047248035669
0.0094274273142218
0.0096367094665765
0.0097813652828335
0.0098051754757761
0.0096406303346157
0.0092149376869201
0.0084560653194785
0.0072926608845591
0.0056644943542778
0.0035486668348312
0.0009809746406972
-0.0019426357466727
-0.0050781806930899
-0.0082502970471978
-0.0112699437886476
-0.0139508470892906
-0.0161253362894058
-0.0176589507609605
-0.0184624809771776
-0.0185025185346603
-0.0178085975348949
-0.0164722055196762
-0.0146346306428313
-0.0124663552269339
-0.0101462546736001
-0.0078468155115842
-0.0057223355397582
-0.0038940743543207
-0.0024399871472269
-0.0013981083175167
-0.0007723784074187
-0.0005302962381392
-0.0006005256436765
-0.000881629763171
-0.0012618489563465
-0.0016371076926589
-0.0019173577893525
-0.002028739079833
-0.0019209559541195
-0.0015749672893434
-0.0010024618823081
-0.0002390937879681
0.0006604767404496
0.0016212025657296
0.0025418722070753
0.0032933349721133
0.0037291594780981
0.0037083537317812
0.0031221066601574
0.0019157472997903
9.938888251781464e-05
-0.0022515836171805
-0.0050012394785881
-0.0079664401710033
-0.010939753614366
-0.0137132443487644
-0.0160983130335807
-0.0179427303373813
-0.0191465392708778
-0.0196739993989467
-0.0195518154650926
-0.0188524052500724
-0.0176753550767898
-0.0161341316998004
-0.0143446493893861
-0.0124178621917963
-0.0104583967477083
-0.0085620060563087
-0.0068099917843937
-0.0052636684849858
-0.0039603537879884
-0.0029137968085706
-0.0021152098197489
-0.0015307005960494
-0.0011019727680832
-0.0007546836277469
-0.0004106361302547
1.3190729077905416e-06
0.000538833788596
0.0012420371640473
0.0021294166799634
0.0031950422562658
0.0044081038795411
0.0057125631719827
0.0070258285850286
0.0082409027963876
0.0092346770688891
0.0098809543997049
0.0100686019286513
0.0097217401489615
0.0088158957660198
0.0073887184262275
0.0055411956273019
0.0034235143102705
0.0012142921332269
-0.0008951529162004
-0.0027165249921381
-0.0040857722051441
-0.004883115645498
-0.0050482987426221
-0.0045901853591203
-0.0035817737225443
-0.0021410665940493
-0.0004110988811589
0.0014589501079171
0.0033348819706588
0.00511180376634
0.0067144851200282
0.0080902893096208
0.0092008784413337
0.0100168567150831
0.0105230454355478
0.010728052817285
0.0106635643169283
0.0103785572573542
0.0099365822970867
0.0094072818756103
0.0088529707863926
0.0083242328837513
0.0078626498579978
0.0074990815483033
0.0072481869719922
0.0071061407215893
0.0070521868765354
0.0070497640408575
0.0070453817024827
0.0069698640145361
0.0067427377216517
0.0062751309014856
0.0054755080491304
0.0042649465613067
0.0026002158410847
0.0004943441599607
-0.0019776686094701
-0.0046874531544744
-0.0074678128585219
-0.0101294973865151
-0.0124815888702869
-0.0143581666052341
-0.0156432949006557
-0.0162812247872352
-0.0162740536034107
-0.0156759824603796
-0.0145840570330619
-0.0131228324025869
-0.0114276390522718
-0.0096321664750576
-0.007858095690608
-0.0062057054601609
-0.004750263877213
-0.0035419282503426
-0.0026040992233902
-0.0019333828240633
-0.0015030733775347
-0.0012667835690081
-0.0011625345796346
-0.0011216783896088
-0.0010804277844727
-0.0009848221670836
-0.0007916062604635
-0.0004740078002214
-2.601323649287224e-05
0.0005408651195466
0.0012021395377814
0.0019236132502555
0.0026648603379726
0.0033843778073787
0.0040426654741168
0.00459476839751
0.004978840239346
0.0051165875047445
0.0049240975640714
0.0043215304613113
0.0032443054951727
0.0016625910066068
-0.0003997716121375
-0.0028584422543644
-0.0055749090388417
-0.0083732027560472
-0.0110602471977472
-0.0134438909590244
-0.0153540382161736
-0.0166664700955152
-0.0173125639557838
-0.0172726698219776
-0.0165721923112869
-0.0152844144031405
-0.0135267078876495
-0.0114459553733468
-0.0091989627107977
-0.006934817880392
-0.0047826445661485
-0.0028423736803233
-0.0011788997799158
0.0001770998351275
0.0012252470478415
0.0019920663908123
0.0025232827756553
0.002874098252505
0.0031066937372088
0.0032886813860386
0.0034845671616494
0.0037478120066225
0.004117215052247
0.0046115363948047
0.0052236318588256
0.0059236036613583
0.006672590970993
0.0074378261342644
0.0081986095756292
0.0089405188336968
0.0096437754109501
0.0102709587663412
0.0107598835602402
0.0110279824584722
0.0109821641817688
0.0105279134586453
0.009582357481122
0.0080922609195113
0.0060515878722071
0.0035132933408021
0.0005922708660364
-0.0025404726620763
-0.0056734266690909
-0.0085806641727685
-0.011052019894123
-0.0129172466695308
-0.0140594001859426
-0.0144210373982787
-0.0140069834887981
-0.0128808356821537
-0.0111547708511352
-0.0089772138744592
-0.0065189409069716
-0.0039578704163432
-0.0014663320034742
0.0008010319434106
0.002723311074078
0.0042278189212083
0.0052947513759136
0.0059516024775803
0.0062613179907202
0.0063107851892709
0.0062036952003836
0.0060532512143254
0.0059691602364182
0.0060404897667467
0.0063219000585377
0.0068288301117718
0.0075416937470436
0.0084169451147317
0.0093986438587307
0.0104241855442523
0.0114278085529804
0.0123486146330833
0.0131396129727363
0.0137673933058977
0.0142026450484991
0.0144110051915049
0.0143458489328622
0.0139423133805394
0.0131196789443492
0.0117971207946538
0.0099188638851046
0.0074789826758205
0.0045354855246841
0.0012115372810512
-0.0023132590577006
-0.0058223376981914
-0.0090886242687702
-0.0118987020105123
-0.014071337878704
-0.0154717629775404
-0.0160238556563854
-0.0157207287847995
-0.0146290194243192
-0.0128795318305492
-0.0106448037549853
-0.008116397075355
-0.0054886694997549
-0.0029437579214572
-0.0006360975094139
0.0013212575577199
0.0028649792075157
0.0039812219329178
0.0046991468407213
0.0050811264663934
0.0052108415402472
0.0051825228147208
0.0050929249264299
0.0050322264432907
0.0050731007941067
0.0052624177187681
0.0056162141263484
0.0061202780343592
0.0067399782128632
0.0074310358613729
0.0081456322222948
0.0088387057185173
0.0094721987843513
0.0100161377340555
0.0104517377912998
0.0107714217156171
0.0109685668721795
0.0110218171030282
0.0108815534040331
0.0104630459100008
0.0096509149298071
0.0083176922053098
0.0063561275601387
0.0037175239995121
0.0004405790241435
-0.0033396370708942
-0.0074038826860487
-0.0114777814596891
-0.0152680790051817
-0.0184987448155879
-0.0209437049925327
-0.0224514883011579
-0.0229575876146554
-0.022482881322503
-0.0211208630353212
-0.01902243681252
-0.0163802523165941
-0.0134081374853849
-0.0103215323761105
-0.0073235146701335
-0.0045897644013166
-0.0022518024779856
-0.0003856401890516
0.0009912375826388
0.0019135260954499
0.0024527984205633
0.0027025893796235
0.0027703701052814
0.0027693412266671
0.0028056222945451
0.0029670300427824
0.0033170543611049
0.0038907695561647
0.0046930722892284
0.0057023921981453
0.0068765264004468
0.0081557603552937
0.0094670886173844
0.0107352249324321
0.0118951331824064
0.0128995319828391
0.0137214865535497
0.0143480310216546
0.0147626865655183
0.0149284396320581
0.0147832883521914
0.0142474612221121
0.0132351862266659
0.0116685815155506
0.0094953188672661
0.0067097097635269
0.0033706335816532
-0.0003942162729799
-0.0043969936668872
-0.0084022777155041
-0.0121462661772966
-0.0153669146820902
-0.0178368501365184
-0.0193887613713741
-0.0199320651590824
-0.0194648653268814
-0.0180753786116838
-0.015925208106637
-0.0132235987111926
-0.0102039743214845
-0.0071030347608029
-0.004141460172832
-0.0015057825949043
0.0006704895058646
0.0023206325713545
0.0034433361142873
0.0040884604677557
0.0043393610976636
0.0042961100116372
0.0040619699284434
0.0037357627879828
0.0034073116257786
0.0031516526360064
0.0030266076792031
0.0030749829020351
0.0033225021325051
0.0037724075373262
0.0044046104885637
0.0051787137053906
0.0060386732220649
0.006920076906681
0.0077600083313882
0.0085056815296411
0.0091183269396424
0.0095742540434002
0.0098628522828221
0.0099764121696352
0.0098893344402313
0.0095380153506994
0.0088231023401021
0.00763367023319
0.0058717457577586
0.0034726224839687
0.0004296130500733
-0.0031830542720854
-0.0072048879228532
-0.0114032085984945
-0.0154987834393978
-0.019200075417757
-0.0222410932183265
-0.0244129039347171
-0.025583392009139
-0.0257049743086099
-0.0248106978833675
-0.0230012312531471
-0.0204323567450046
-0.017308572307229
-0.0138715961948037
-0.0103758871555328
-0.0070596514269709
-0.0041178097017109
-0.0016823406331241
0.0001813294366002
0.0014681512257084
0.0022311247885227
0.0025777947157621
0.002652091672644
0.0026045793201774
0.0025665974244475
0.0026364848017692
0.0028734295628964
0.0032970434986054
0.0038964496925473
0.0046438523568212
0.0055032367818057
0.0064331172034144
0.0073901005089282
0.0083371959626674
0.0092500075697898
0.0101149538531899
0.0109245758503675
0.0116737214848399
0.0123526444658637
0.0129374591633677
0.0133832646533846
0.0136214597150683
0.0135621530935168
0.0130999274551868
0.0121202263981103
0.0105149541050195
0.0082154022529721
0.0052278600633144
0.0016489393310621
-0.0023420383222401
-0.0065015796571969
-0.0105458367615938
-0.0141812087967991
-0.0171401798725128
-0.0192140191793441
-0.0202729273587465
-0.020272871479392
-0.0192540623247623
-0.0173339582979679
-0.0146965933963656
-0.0115764997899532
-0.0082326512783765
-0.0049154134467244
-0.0018388330936431
0.0008328089024871
0.0029912984464317
0.0045921602286398
0.005655507557094
0.0062534362077713
0.0064919916912913
0.006492200307548
0.0063690114766359
0.0062152110040187
0.0060985824093222
0.0060692317783832
0.0061663817614316
0.0064172530546784
0.0068298154510557
0.0073879826813936
0.0080560343340039
0.0087894331663846
0.0095440987497568
0.0102811427786946
0.0109704416245222
0.0115944407880306
0.0121471192687749
0.0126255089417099
0.0130195105448365
0.0133051136508584
0.0134364925324916
0.0133374109864234
0.0129028968513011
0.0120138265192508
0.010560980066657
0.008471974171698
0.0057313968427479
0.0023941406980156
-0.0014086090959608
-0.0054775075986981
-0.0095663303509354
-0.0134096005931496
-0.0167514998465776
-0.0193723440170288
-0.0211103688925504
-0.0218766145408153
-0.0216592624783515
-0.0205192174762487
-0.0185821522027254
-0.0160252675414085
-0.0130567457526922
-0.0098945004865527
-0.0067498027347028
-0.0038108089938759
-0.0012236137408763
0.0009198852349072
0.0025823572650551
0.0037748788017779
0.0045469640754163
0.0049738357774913
0.005145744420588
0.0051597994752228
0.0051099364645779
0.0050758104771375
0.0051169618964195
0.0052718701772391
0.0055539477616548
0.0059487703256309
0.0064233373850584
0.0069408100098371
0.0074693709611892
0.0079849949106574
0.0084715010598301
0.0089202243834733
0.0093282591551542
0.0096939383074641
0.010012193582952
0.0102681433781981
0.0104263322427868
0.0104214455932378
0.0101563362404704
0.0095102433115243
0.0083594871684908
0.0066053997725248
0.0042005944997072
0.0011690990068018
-0.002384400460869
-0.0062796277925372
-0.0102757541462779
-0.0140927704051136
-0.0174429304897785
-0.0200718287378549
-0.021796403452754
-0.0225266590714454
-0.0222682729363441
-0.0211090184748172
-0.0191974397748708
-0.0167243462055921
-0.0139051349833607
-0.0109593896195292
-0.0080960094928741
-0.0055037238635122
-0.0033388009760528
-0.001709324773401
-0.0006593910511583
-0.0001625737641006
-0.0001317117130383
-0.0004375937860459
-0.0009293948533013
-0.0014561554417014
-0.0018851032946258
-0.0021126829087734
-0.0020705414935946
-0.0017285889480262
-0.0010909204138442
-0.0001858006144175
0.000941406993661
0.0022344340104609
0.003634835826233
0.0050843171775341
0.006521166767925
0.007883227430284
0.0091150589287281
0.0101650115102529
0.0109729198738932
0.0114609906449913
0.0115326242521405
0.0110798990353941
0.0100006377324461
0.0082198828458786
0.0057114427909255
0.0025193251203745
-0.0012288035359233
-0.0053257439285516
-0.0095043797045946
-0.0134666552767157
-0.0169172920286655
-0.0195960253477096
-0.0213057771325111
-0.0219380483031272
-0.0214886646717786
-0.0200517699122428
-0.0177939925342798
-0.0149241015315055
-0.0116688497364521
-0.0082553178071975
-0.0048970631323754
-0.0017811334691941
0.000946479383856
0.0031931998673826
0.0049225371330976
0.006147620268166
0.0069227232597768
0.0073330551385879
0.0074801947921514
0.0074689295142889
0.0073992782272398
0.0073583181947469
0.0074128876440227
0.0076087117195129
0.0079700555652379
0.0084952907636761
0.0091566108167171
0.0099091911688447
0.0107038486748933
0.0114959776401519
0.0122479759156703
0.0129269063472747
0.0135036446154117
0.0139549179002642
0.014260109513998
0.0143879111856222
0.0142808128148317
0.013850743882358
0.0129897873848676
0.0115919495001435
0.0095823938027024
0.0069470657035708
0.0037521051708608
0.0001462720101699
-0.0036541081499308
-0.0073929238133132
-0.0108048096299171
-0.0136392610147595
-0.0156817939132452
-0.0167796872556209
-0.0168640371412038
-0.0159559100866317
-0.0141599364578723
-0.0116508705541491
-0.0086527774110436
-0.0054151681251823
-0.0021900404244661
0.0007907655090093
0.0033347816206514
0.0053029204718768
0.0066199302673339
0.007278059143573
0.0073322588577866
0.0068902745842933
0.0060972888022661
0.0051146992482244
0.0041002235375344
0.0031938962638378
0.0025053373537957
0.0021042488515377
0.0020225082989782
0.0022628083825111
0.0028001172468066
0.003578899661079
0.0045203967019915
0.0055372593924403
0.0065435981377959
0.007457900326699
0.0081993509083986
0.0086781624704599
0.0087868757545948
0.0084035899490118
0.0074062021449208
0.0056884903460741
0.0031793063972145
-0.0001321078743785
-0.0041703185997903
-0.0087604504078626
-0.0136396745219826
-0.0184876564890146
-0.0229619648307561
-0.0267343558371067
-0.0295266471803188
-0.0311412438750267
-0.0314810909330844
-0.0305546503514051
-0.0284654460847377
-0.0253957193344831
-0.0215913653373718
-0.0173397567123174
-0.0129376724362373
-0.0086593525484204
-0.004729994572699
-0.0013081654906272
0.0015186006203293
0.0037266067229211
0.0053455797024071
0.0064524090848863
0.007162929046899
0.0076145669445395
0.0079451259225606
0.008275942876935
0.0087042292580008
0.0093000400811433
0.0101003879681229
0.0111044431105256
0.0122777549549937
0.0135653614997863
0.0149064250290393
0.0162447355687618
0.0175335705280303
0.0187342185527086
0.0198102928698062
0.0207200795412063
0.0214050486683845
0.0217767693102359
0.0217148922383785
0.0210818611085414
0.0197449289262294
0.0176005326211452
0.0146040301769971
0.0107981003820896
0.0063251322135329
0.0014208883512765
-0.003603424411267
-0.0083903511986136
-0.0125783113762736
-0.0158486887812614
-0.0179666243493556
-0.0188080463558435
-0.0183684658259153
-0.0167562700808048
-0.0141763193532824
-0.0109056495130062
-0.0072629749774932
-0.0035731503739953
-0.0001296042464673
0.0028346958570182
0.0051586218178272
0.0067548723891377
0.0076168808154761
0.0078228404745459
0.0075208535417914
0.006896442733705
0.0061379275284707
0.0054160323925316
0.0048744156956672
0.0046177767217159
0.0047006336972117
0.0051256427541375
0.0058533996343612
0.0068203127011656
0.0079548750072717
0.0091860983520746
0.010447078384459
0.0116763515397906
0.0128157753497362
0.0138022769242525
0.0145542053505778
0.0149610619992017
0.0148845203220844
0.0141724916175007
0.0126872509717941
0.0103417700156569
0.007130317389965
0.0031446239445358
-0.0014248492661863
-0.0063013462349772
-0.0111502176150679
-0.0156210791319608
-0.0193899348378181
-0.0221918579190969
-0.0238463170826435
-0.0242762416601181
-0.0235158167779445
-0.021701443940401
-0.0190488044172525
-0.015825955197215
-0.0123257683590054
-0.0088344383984804
-0.005600250326097
-0.0028117401525378
-0.0005869312444701
0.0010296420659869
0.0020650499500334
0.002610660623759
0.0028046492952853
0.0028074192814528
0.0027785904239863
0.0028572902083396
0.0031471191905438
0.0037087246309965
0.0045602861791849
0.0056835953146219
0.0070304307155311
0.0085297916084527
0.0101009998470544
0.0116666797548532
0.0131546668708324
0.0144898742437362
0.0155830681324005
0.0163180120289325
0.0165447425097227
0.0160951856523752
0.0148174781352281
0.0126069327816367
0.0094286939129233
0.0053379954770207
0.0004915315657854
-0.0048572453670203
-0.0103762140497565
-0.0156801789999008
-0.0203667674213647
-0.024068908765912
-0.0265096873044967
-0.027533184736967
-0.0271117743104696
-0.0253491699695587
-0.0224720742553472
-0.0187941174954175
-0.0146652171388268
-0.0104293646290898
-0.0063984207808971
-0.0028335871174931
7.652724161744118e-05
0.0022373124957084
0.0036530536599457
0.0044103027321398
0.0046526552177965
0.0045565809123218
0.0043046921491622
0.0040581142529845
0.0039410018362104
0.0040383632294833
0.0043952129781246
0.0050156558863818
0.0058673089370131
0.0068926606327295
0.0080258157104253
0.009205880574882
0.0103794950991868
0.0114951394498348
0.0124925225973129
0.0132903009653091
0.0137771032750606
0.0138061586767435
0.0132001293823122
0.0117787383496761
0.0094016604125499
0.0060057826340198
0.0016305679455399
-0.0035662706941366
-0.0093088429421186
-0.0152251198887825
-0.0208888910710811
-0.0258767642080783
-0.0298277139663696
-0.0324828661978244
-0.033697884529829
-0.0334428548812866
-0.0317992456257343
-0.0289513356983661
-0.0251690912991762
-0.0207809451967477
-0.0161411371082067
-0.0115975802764296
-0.0074597187340259
-0.0039678467437624
-0.0012697118800133
0.000589255883824
0.0016600745730102
0.0020746127702295
0.0020222114399075
0.0017188771162182
0.0013783470494672
0.0011902841506525
0.0013043696526437
0.001819007564336
0.0027713335584849
0.0041347648948431
0.0058363331481814
0.0077828532084822
0.0098730577155947
0.012001191265881
0.0140677262097597
0.0159882809966802
0.0176911056041717
0.019110707566142
0.0201859883964061
0.0208640489727258
0.0211004521697759
0.0208479836583137
0.0200445111840963
0.0186141543090343
0.0164825040847063
0.0136013682931661
0.0099760200828313
0.0056837163865566
0.0008794143795967
-0.0042065856978297
-0.0092787547037005
-0.0140003385022282
-0.0180342588573694
-0.0210909415036439
-0.02296744287014
-0.0235714633017778
-0.0229276549071073
-0.0211676843464374
-0.0185093376785516
-0.015223778784275
-0.011595613323152
-0.0078893508762121
-0.0043315403163433
-0.0011097106616944
0.0016236109659075
0.0037591967266052
0.0052522653713822
0.0061365831643342
0.0065150428563356
0.0065333470702171
0.006354471668601
0.0061416663229465
0.0060459175147116
0.0061928066425025
0.0066689671948552
0.0075108204036951
0.0087016019970178
0.0101805105805397
0.0118584418669343
0.0136372158303856
0.0154257044196128
0.0171393062919378
0.0186921413987875
0.0199992842972278
0.0209851413965225
0.0215945374220609
0.0218042805790901
0.0216240491718053
0.0210863593965768
0.0202326029539108
0.0190967060625553
0.0176888965070247
0.0159817021340131
0.0139050763100385
0.0113606266677379
0.00825035572052
0.0045124082826077
0.0001597963273525
-0.0046966583468019
-0.0098556261509656
-0.0150507539510726
-0.0199798233807086
-0.0243363622575998
-0.0278422310948371
-0.0302784871309995
-0.0315119475126266
-0.0315078385174274
-0.030326185747981
-0.0281117837876081
-0.0250787902623415
-0.0214875601232051
-0.0176206808537244
-0.0137607995420694
-0.0101641481742262
-0.0070308204740285
-0.0044863745570182
-0.0025823374744504
-0.0013030954869464
-0.000572208315134
-0.0002656388096511
-0.0002292878343723
-0.0002953708171844
-0.0003047596255782
-0.0001321837189607
0.0003018236602656
0.001034986693412
0.0020737117156386
0.0034010496456176
0.0049772229976952
0.0067373844794929
0.0085958801209926
0.0104586696252226
0.0122379148378968
0.0138585492968559
0.0152563285082578
0.0163820479065179
0.0172137655317783
0.0177591443061828
0.018043028190732
0.0180952660739421
0.0179487932473421
0.0176437217742204
0.0172265917062759
0.0167379472404718
0.0161929763853549
0.0155670698732137
0.0147904399782419
0.013747613877058
0.0122851394116878
0.0102349082008004
0.0074497507885098
0.0038411505520343
-0.000589283183217
-0.0057285348884761
-0.0113455643877387
-0.0171093419194221
-0.0226314850151538
-0.0275186914950609
-0.0314237996935844
-0.0340883992612361
-0.0353699326515197
-0.035252071917057
-0.0338368117809295
-0.0313200764358043
-0.027963550761342
-0.0240684896707534
-0.0199475940316915
-0.0158979836851358
-0.0121803442016243
-0.0090004680678248
-0.0064890813082456
-0.0046883635222911
-0.0035551821347326
-0.0029770587570965
-0.0027946517802774
-0.002830218989402
-0.0029138608369976
-0.0028970295097678
-0.0026573031209409
-0.0021019084379076
-0.00117346085608
0.0001397322630509
0.0017984174191951
0.0037214811891317
0.0058014579117298
0.0079197585582733
0.0099628195166587
0.0118367206305265
0.0134766530245542
0.0148492436856031
0.0159479659050703
0.016784681007266
0.0173813123255968
0.0177658200263977
0.0179718993604183
0.0180367343127727
0.0179931949824094
0.017862569540739
0.0176582355052232
0.0173933897167444
0.0170787945389747
0.0167141035199165
0.0162777584046125
0.0157145895063877
0.0149279572069644
0.0137834176421165
0.0121255852282047
0.0098090656101703
0.006737760733813
0.0029006083495914
-0.0016055647283792
-0.0065724612213671
-0.0116978837177157
-0.0166217274963855
-0.0209758393466472
-0.0244370885193347
-0.0267707630991935
-0.0278537198901176
-0.0276738889515399
-0.0263169575482606
-0.0239518918097019
-0.0208133105188608
-0.0171742364764213
-0.0133150368928909
-0.0095019424334168
-0.0059740087017416
-0.0029259577859193
-0.0004872542922385
0.0012887505581602
0.002420101314783
0.0029836201574653
0.0031004296615719
0.0029209081549197
0.0026064687408506
0.0023060860112309
0.0021389690227806
0.0021902839653193
0.0025110216811299
0.0031193103641271
0.0040016048587858
0.0051093287765979
0.0063625592738389
0.0076698521152138
0.0089474245905876
0.0101247206330299
0.011144308373332
0.0119642149657011
0.012563832104206
0.0129452561959624
0.0131251625716686
0.0131272878497838
0.0129792261868715
0.0127101736143231
0.0123517187312245
0.0119402781128883
0.0115125868469476
0.0110911279916763
0.0106701962649822
0.0102117620408535
0.0096458569169044
0.0088688386604189
0.007747693452984
0.0061420425772666
0.0039377929642796
0.0010765166953206
-0.0024260529316961
-0.0064710360020399
-0.0108783999457955
-0.0154019212350249
-0.0197523683309555
-0.023627595975995
-0.0267522390931844
-0.0289167445152997
-0.0300003066658973
-0.0299744792282581
-0.0288953687995672
-0.0268929414451122
-0.0241576191037893
-0.0209225080907344
-0.0174416117370128
-0.0139627289026975
-0.010702384635806
-0.0078332144767045
-0.0054770596325397
-0.0036965650506317
-0.0024917006958276
-0.0018022496951743
-0.0015137640293687
-0.0014735863078385
-0.0015178162138909
-0.0014972449280321
-0.001293821260333
-0.0008296913001686
-7.079518400132656e-05
0.0009767541196197
0.0022760918363928
0.0037718655075877
0.0054026651196181
0.0071081551723182
0.0088286967948079
0.0105026345700025
0.0120669212192296
0.0134624522179365
0.0146429799497127
0.0155829582363367
0.0162795130163431
0.0167483426630496
0.0170133914798498
0.017092389985919
0.016981927677989
0.0166428796947002
0.0159923788160085
0.0149132292717695
0.0132835730910301
0.0110166249796748
0.0080947326496243
0.0045882239937782
0.000656992662698
-0.0034634678158909
-0.0074879713356494
-0.0111196115612983
-0.0140953985974192
-0.0162193514406681
-0.017372103407979
-0.0175096485763788
-0.016661612316966
-0.0149305844679474
-0.012488167732954
-0.0095590418204665
-0.0063942745327949
-0.0032416766043752
-0.0003180522471666
0.0022099060006439
0.0042311027646064
0.0056903855875134
0.0065909684635698
0.0069907438009977
0.0069906003773212
0.0067206714302301
0.0063220323063433
0.0059259692206978
0.005641309544444
0.0055500073358416
0.0057029472663998
0.0061165001243352
0.0067753307521343
0.0076403087005019
0.0086564747616648
0.0097577264532446
0.0108700655400753
0.0119183287024497
0.0128344446420669
0.013562143780291
0.0140617219731211
0.014317718334496
0.0143417138606309
0.0141671923920512
0.013842336833477
0.0134200192987918
0.0129426410421729
0.0124269761145114
0.0118517745286226
0.0111509375274181
0.010220244526863
0.0089344233274459
0.0071658827364444
0.0048078903928399
0.0018033692613244
-0.0018290430307388
-0.0059810886159539
-0.0104591231793165
-0.0150038544088602
-0.0193181578069925
-0.0231012627482414
-0.0260872803628444
-0.0280793346464633
-0.0289711058139801
-0.0287526436150074
-0.0275046788156032
-0.0253872312605381
-0.0226200707256793
-0.0194555185735225
-0.0161549802869558
-0.0129719302058219
-0.0101296715438365
-0.0077923126518726
-0.0060426862910389
-0.0048799351789057
-0.0042354525066912
-0.003993070218712
-0.0040068486705422
-0.0041217324323952
-0.0041961860843002
-0.0041177822276949
-0.0038085840642452
-0.003225463675335
-0.0023588612675666
-0.0012294498737901
0.0001171319745481
0.0016160465311259
0.0031898138113319
0.0047604953870177
0.0062653366476297
0.0076618525199592
0.0089218113571405
0.0100281741470098
0.010976480320096
0.0117716528475284
0.0124200014397501
0.0129251042380929
0.0132891349494457
0.0135121680796146
0.0135899605229496
0.0135131608694791
0.0132606541737914
0.0127875842154026
0.0120198335498571
0.0108609935268759
0.0092114079743623
0.0069947373121976
0.0041851643472909
0.0008271802216768
-0.0029596670065075
-0.0069898944348096
-0.0110300248488783
-0.0148222800344228
-0.0181089006364345
-0.0206575822085142
-0.0222920551896095
-0.0229197647422552
-0.0225419476628303
-0.0212434027343988
-0.0191737916320562
-0.0165284126996994
-0.0135263064876198
-0.0103881377726793
-0.0073202895000576
-0.0045040939003229
-0.0020841592922806
-0.0001557935029268
0.0012417258694767
0.0021240883506834
0.0025569712743163
0.0026463936083018
0.0025216245558112
0.0023149400949478
0.0021459488198161
0.0021102274768054
0.0022696554660797
0.0026521398685872
0.003261326579377
0.0040822923183441
0.00508055370301
0.0062046637758612
0.0073955259285867
0.0085975341498851
0.0097652971744537
0.0108630377799272
0.0118619203567504
0.0127393342554569
0.0134798754006624
0.0140795400366187
0.0145481936633586
0.014903150498867
0.0151577107608318
0.0153136448934674
0.0153615372255444
0.0152868721634149
0.0150749711319804
0.0147052537649869
0.0141356447711586
0.0132920211181044
0.0120720947161316
0.010362172499299
0.0080650933086872
0.0051326039247214
0.0015893871895968
-0.0024557649157941
-0.0068074846640229
-0.0111939022317528
-0.0152999516576528
-0.0188177023082971
-0.0214921422302722
-0.0231494884938001
-0.0237072221934795
-0.0231727473437786
-0.0216373316943645
-0.0192638989537954
-0.0162695236504077
-0.0129060894250869
-0.0094384048134088
-0.0061181187629699
-0.0031558088958263
-0.0007013734430074
0.0011604933533817
0.002406935673207
0.0030744168907403
0.0032547079026699
0.0030826071742922
0.0027155564166605
0.0023122709244489
0.0020167180337011
0.0019457617308944
0.0021751613821834
0.0027285341639071
0.0035792789421975
0.0046633291058242
0.0058949133381247
0.0071833375841379
0.0084476443007588
0.009626624174416
0.0106819551438093
0.0115911094471812
0.0123380552977323
0.0129111446440219
0.0133047951385378
0.0135205099359154
0.0135660814121365
0.0134545629844069
0.0132080502808094
0.0128618404269218
0.0124583737924695
0.012030467391014
0.0115830050781369
0.0110845910385251
0.0104691591113805
0.0096379080787301
0.0084653021767735
0.0068190656602382
0.0045896675437688
0.0017195809632539
-0.0017732270061969
-0.0057845208793878
-0.010130375623703
-0.0145653113722801
-0.0188054926693439
-0.0225604325532913
-0.0255697388201951
-0.0276301782578229
-0.0286123696714639
-0.0284753870218992
-0.0272752027958631
-0.0251583568751811
-0.0223404765129089
-0.0190764609724283
-0.0156303662806749
-0.0122494725510478
-0.0091438982635736
-0.0064715910702943
-0.0043276571668684
-0.0027410022448748
-0.001682462869212
-0.0010802804026752
-0.0008337167091667
-0.0008212295360863
-0.0009090958628803
-0.0009653181768953
-0.0008747589308768
-0.0005515897646546
5.1202718168497086e-05
0.0009394951630383
0.0020860061049461
0.0034406373742967
0.0049363300204277
0.0064958524890244
0.0080425702035427
0.009509521536529
0.0108454981818795
0.0120195560157299
0.013020696118474
0.0138514544814825
0.0145208779722452
0.0150428069755434
0.0154369790107011
0.0157268662005662
0.0159343499690294
0.0160719081759452
0.016134388744831
0.0160949118435382
0.0158994756639003
0.0154620306566357
0.0146740982308983
0.0134223699569702
0.0116026131436228
0.0091395061463117
0.0060150739736855
0.0022905431687831
-0.0018879706040024
-0.0062993881292641
-0.0106705613434314
-0.014709522947669
-0.0181427225470542
-0.0207465253770351
-0.0223697107285261
-0.0229467041790485
-0.0224970877170562
-0.021114295348525
-0.01895397529006
-0.0162235591560602
-0.0131659032776951
-0.0100342528894543
-0.0070649739354848
-0.0044562853872776
-0.0023527846205979
-0.0008345051901414
8.66117188706994e-05
0.0004619141109287
0.0003916093846783
4.286295734345913e-06
-0.0005585571052506
-0.0011508024763315
-0.0016315993852913
-0.0018815528601408
-0.0018201475031673
-0.0014144503511488
-0.0006757720839232
0.0003479584120213
0.0015808700118213
0.0029342996422201
0.0043256916105747
0.0056908298283815
0.0069851288571953
0.0081791328266263
0.0092549668624997
0.0102022681385278
0.0110117848962545
0.0116733703762292
0.012180951423943
0.0125376395881176
0.0127558968961238
0.0128534203395247
0.0128472503274679
0.0127484295517206
0.0125567289069294
0.01225021854043
0.011771285906434
0.0110233901068568
0.0098829120397567
0.0082190185785293
0.0059230029582977
0.0029450147412717
-0.0006748540326952
-0.0047926129773259
-0.0091708935797214
-0.0135114742442965
-0.0174963809549808
-0.0208246558904647
-0.0232417043298482
-0.0245670117437839
-0.0247189197689294
-0.0237244684249162
-0.0217102374881505
-0.0188811421394348
-0.015494137071073
-0.0118302153423428
-0.0081681264564394
-0.0047643864527344
-0.0018344511045143
0.0004710429348051
0.0020811292342841
0.0030000244732946
0.0032974709756672
0.0031018427107483
0.0025853866245597
0.0019369820365682
0.0013300592545419
0.0008978561963886
0.0007261044811457
0.0008599150460213
0.0013112163869664
0.0020620350260287
0.0030693199951201
0.0042714145965874
0.0055938605219125
0.0069593517109751
0.0083007058128714
0.0095668751746416
0.0107202120125293
0.0117322169244289
0.0125826336443424
0.0132597973570227
0.0137593252584338
0.0140851829200983
0.0142519939690828
0.0142790023237466
0.014181550592184
0.0139701161533594
0.0136469155550003
0.0131925418972969
0.012554058805108
0.0116463787853717
0.0103655457496643
0.0086056496948003
0.0062782270833849
0.0033395318314433
-0.0001793187111616
-0.0041560572572052
-0.0083850976079702
-0.0126041490584611
-0.0165295712649822
-0.0198926646262407
-0.0224683918058872
-0.0240957029163837
-0.024692378938198
-0.0242600888013839
-0.022878898307681
-0.0206957925111055
-0.0179094970226287
-0.0147525994107127
-0.0114686479791998
-0.0082858428359031
-0.0053978185169398
-0.0029555261135101
-0.0010622702538967
0.0002339881903026
0.0009457963751628
0.0011414356995373
0.0009346702136099
0.0004737566923722
-7.760536391288042e-05
-0.0005672737024724
-0.0008744312217459
-0.0009148814715445
-0.0006396684329956
-3.4278142265975475e-05
0.0008815197506919
0.0020590133499354
0.0034310386981815
0.004918853752315
0.0064375968649983
