bvp
-0.0069997394457459
-0.0046031414531171
-0.0024656141176819
-0.0007108426070772
0.0005831008893437
0.001398915075697
0.0017834902973845
0.0018340322421863
0.0016793531831353
0.0014619762077927
0.0013158497167751
0.0013436893932521
0.0016069011762738
0.002128362422809
0.0028977203182876
0.0038755261339247
0.0049984389916062
0.0061877211555838
0.0073607871308922
0.0084419222548604
0.0093684736639261
0.0100940559059381
0.0105918645858764
0.0108581902459263
0.010913255624473
0.010795927606523
0.0105543034151196
0.0102338222786784
0.009860374033451
0.0094226775690913
0.0088655659928917
0.0081002600491046
0.0070239845663309
0.0055407006293535
0.0035840305499732
0.0011403462849557
-0.0017342526698485
-0.0049102595075964
-0.008198813535273
-0.0113759692758321
-0.014209565706551
-0.016486158594489
-0.0180334709584712
-0.0187409408390522
-0.0185808409005403
-0.0176197122782468
-0.0160123147070407
-0.0139815984293818
-0.0117889810353517
-0.0096991602331399
-0.0079469317570328
-0.0067107542417943
-0.0060940599068999
-0.0061143259517848
-0.0067029665224254
-0.007721247151494
-0.0089867506176233
-0.0102993072941899
-0.0114630172029137
-0.0123048275709152
-0.0126892374828457
-0.0125283729285001
-0.0117897428572177
-0.0104994941502809
-0.0087339486926794
-0.0066045355051755
-0.0042423522099852
-0.0017781825736165
0.0006787599995732
0.0030572647228837
0.0053355707786977
0.0075437133200466
0.00975454878062
0.0120650772005319
0.0145680420100688
0.0173234697431325
0.0203416869044303
0.0235726833343505
0.0268953740596771
0.0301173068583011
0.0329943597316741
0.035259298980236
0.0366493463516235
0.0369405299425125
0.0359901711344718
0.0337736681103706
0.0304036829620599
0.0261234324425458
0.0212693326175212
0.0162145607173442
0.0113180354237556
0.0068922555074095
0.0031830493826419
0.0003508874215185
-0.0015434953384101
-0.0025412566028535
-0.0027756080962717
-0.0024503103923052
-0.0018056142143905
-0.0010806419886648
-0.0004807692021131
-0.0001494856551289
-0.0001509836874902
-0.0004761926829814
-0.001064860727638
-0.0018240958452224
-0.0026436699554324
-0.003415023908019
-0.0040475288406014
-0.0044764094054698
-0.0046644946560263
-0.0046006301417946
-0.0042989370413124
-0.0037994915619492
-0.0031628827564418
-0.0024581598117947
-0.001749855466187
-0.0010844422504305
-0.0004833415150642
4.85861673951149e-05
0.0005084313452243
0.0008881613612174
0.0011747293174266
0.0013523269444704
0.0014042062684893
0.0013119811192154
0.0010548364371061
0.0006104111671447
-4.986114799976349e-05
-0.0009706588461995
-0.002213867381215
-0.0038443533703684
-0.0059066507965326
-0.0084031866863369
-0.0112811615690588
-0.0144303459674119
-0.0176949854940176
-0.0208962224423885
-0.023854961618781
-0.0264110378921031
-0.0284384582191705
-0.0298549402505159
-0.0306252986192703
-0.0307594798505306
-0.0303045064210891
-0.0293342657387256
-0.0279443077743053
-0.026247477158904
-0.0243619997054338
-0.0223972648382186
-0.0204450748860836
-0.0185749381780624
-0.0168325807899236
-0.0152411013841629
-0.0138013707473874
-0.0124933728948235
-0.0112801557406783
-0.010113887488842
-0.0089445477351546
-0.0077260555699467
-0.0064206714741885
-0.0050084800459444
-0.0034949157852679
-0.0019080678466707
-0.0002886792644858
0.0013194573111832
0.0028751022182404
0.0043460964225232
0.0057145934551954
0.0069740642793476
0.0081246113404631
0.0091728707775473
0.0101325390860438
0.0110219046473503
0.0118542974814772
0.0126221980899572
0.0132855577394366
0.0137706296518445
0.0139811541885137
0.0138202551752328
0.0132128708064556
0.0121236136183142
0.0105707086622715
0.0086298650130629
0.0064251013100147
0.0041147992014884
0.0018782229162752
-0.0001006899401545
-0.0016535799950361
-0.0026508662849664
-0.0030242726206779
-0.0027767596766352
-0.001973764039576
-0.0007288549095392
0.0008086040616035
0.0024724286049604
0.0041027013212442
0.0055635720491409
0.0067587001249194
0.0076410723850131
0.0082076890394091
0.0084900390356779
0.0085501233115792
0.0084700770676136
0.0083341039717197
0.0082168262451887
0.0081800781190395
0.0082708541303873
0.0085178846493363
0.0089277168735861
0.0094818407669663
0.0101366424933075
0.0108269406482577
0.0114749018102884
0.0120042152702808
0.0123540284112095
0.0124889202415943
0.0124056441709399
0.0121355038136243
0.0117387026548385
0.0112931141629815
0.010883655399084
0.0105890836566686
0.0104621415957808
0.0105091668665409
0.0106772165745496
0.0108553105965256
0.0108932256698608
0.0106316078454256
0.0099338693544268
0.0087162628769874
0.0069705164059996
0.0047692437656223
0.002252462785691
-0.0003971519763581
-0.0029805439990013
-0.0053050285205245
-0.0072048143483698
-0.0085571445524692
-0.009290856309235
-0.0093909511342644
-0.0088988365605473
-0.0079057458788156
-0.006542747374624
-0.0049655400216579
-0.0033328984864056
-0.001789728179574
-0.0004573332844302
0.000577293918468
0.0012680664658546
0.0016067696269601
0.0016201176913455
0.001369462814182
0.000944253290072
0.0004465582314878
-2.8419308364391327e-05
-0.0004078149795532
-0.0006466517224907
-0.0007283962331712
-0.0006653501186519
-0.000490851001814
-0.0002446277067065
3.610807470977306e-05
0.0003230106085538
0.0006023277528584
0.0008712005801498
0.0011296197772026
0.001375216525048
0.0015989732928574
0.0017823833040893
0.0018958207219839
0.0018988884985446
0.0017462074756622
0.0013937028124928
0.0007964582182466
-9.670155122876169e-05
-0.0013367175124585
-0.0029542292468249
-0.0049397489055991
-0.0072350767441093
-0.0097365006804466
-0.012305598706007
-0.0147857470437884
-0.017020359635353
-0.0188668556511402
-0.0202085897326469
-0.0209646075963974
-0.0210928171873092
-0.0205922834575176
-0.0195081606507301
-0.0179323889315128
-0.015996029600501
-0.0138545697554945
-0.011667400598526
-0.0095779271796345
-0.0077017648145556
-0.0061174887232482
-0.0048567363992333
-0.0039038155227899
-0.0032079101074486
-0.0027010636404156
-0.0023136185482144
-0.0019780350849032
-0.001626998418942
-0.0012007011100649
-0.0006567160598933
2.7773436158895493e-05
0.0008543457370251
0.0018035587854683
0.0028430463280528
0.0039334734901785
0.0050276829861104
0.0060741389170289
0.0070257876068353
0.0078460238873958
0.0085153114050626
0.0090394709259271
0.0094443606212735
0.0097541464492678
0.0099738780409097
0.0100845079869031
0.0100401993840932
0.0097690252587199
0.0091833602637052
0.0081977657973766
0.0067515019327402
0.0048318672925233
0.0024905439931899
-0.00015425006859
-0.0029321834444999
-0.0056467652320861
-0.0081020668148994
-0.0101218316704034
-0.0115615557879209
-0.0123221036046743
-0.0123664764687418
-0.0117250382900238
-0.0104826278984546
-0.0087659489363431
-0.0067391446791589
-0.0045859832316637
-0.0024753208272159
-0.0005377666093409
0.0011388729326426
0.0025096833705902
0.0035691945813596
0.0043405024334788
0.0048640789464116
0.0051933638751506
0.0053920685313642
0.0055268472060561
0.0056603169068694
0.0058480119332671
0.0061338604427874
0.0065436167642474
0.0070829545147717
0.0077416603453457
0.0084984702989459
0.0093213180080056
0.0101653728634119
0.0109796561300754
0.0117216352373361
0.01236317679286
0.0128853041678667
0.0132741527631878
0.0135192610323429
0.0136085934937
0.0135213490575551
0.0132226981222629
0.0126619404181838
0.0117735806852579
0.0104859452694654
0.0087435934692621
0.0065348986536264
0.0039074174128472
0.0009677368216216
-0.0021285193506628
-0.0051950300112366
-0.0080370288342237
-0.0104713076725602
-0.01234339363873
-0.0135417506098747
-0.0140102272853255
-0.0137561354786157
-0.0128445047885179
-0.0113845225423574
-0.0095215421169996
-0.0074278432875871
-0.0052830055356025
-0.0032509658485651
-0.0014639953151345
-1.5788478776812553e-05
0.0010417681187391
0.0017013669712468
0.0019971556030213
0.0019950252026319
0.0017820678185671
0.001454763347283
0.0011084885336458
0.0008317867759615
0.0006997426971793
0.0007647438906133
0.0010495285969227
0.0015467677731066
0.0022235661745071
0.0030268556438386
0.0038923784159123
0.0047572935000061
0.0055707176215946
0.0062986887060105
0.0069205584004521
0.0074187279678881
0.007769230287522
0.0079359961673617
0.0078683951869606
0.0075037078931927
0.0067753503099083
0.0056263711303472
0.0040251142345368
0.0019778471905738
-0.0004640535917133
-0.0032019303180277
-0.0060911122709512
-0.0089489771053195
-0.0115750338882207
-0.0137775763869285
-0.0153966806828975
-0.0163183324038982
-0.0164817944169044
-0.0158859398216009
-0.0145927211269736
-0.0127226328477263
-0.010443216189742
-0.0079533578827977
-0.0054621333256363
-0.0031624436378479
-0.001207813504152
0.000301178486552
0.0013228436000645
0.0018742736428976
0.0020248668733984
0.0018855669768527
0.001594353467226
0.0012952981051057
0.0011138240806758
0.0011380112264305
0.0014129760675132
0.0019469207618385
0.0027200714685022
0.0036880448460578
0.0047834180295467
0.0059234900400042
0.0070222946815192
0.0080044530332088
0.0088196909055113
0.0094470651820302
0.0098817050457
0.0101156216114759
0.0101251294836401
0.0098633561283349
0.0092602763324975
0.0082390839233994
0.0067410194315016
0.0047461222857236
0.0022903345525264
-0.0005255325231701
-0.0035438756458461
-0.0065718526020646
-0.0094052013009786
-0.0118469409644603
-0.0137214437127113
-0.0148880900815129
-0.0152581287547945
-0.014812278561294
-0.0136081166565418
-0.0117708528414368
-0.0094753978773951
-0.0069278543815016
-0.0043422016315162
-0.001914283260703
0.0001948282006196
0.0018683053785935
0.0030439912807196
0.0037216022610664
0.0039615058340132
0.0038759326562285
0.0036105460021644
0.0033138785511255
0.0031070155091583
0.0030701530631631
0.0032422195654362
0.0036241102498024
0.0041880887001752
0.0048932856880128
0.0056992690078914
0.0065710167400538
0.0074755614623427
0.0083748148754239
0.0092206401750445
0.0099585391581058
0.0105370134115219
0.0109129920601844
0.0110486894845962
0.0109017360955476
0.0104177203029394
0.0095341550186276
0.0081942901015281
0.0063640987500548
0.0040475302375853
0.0012993933632969
-0.0017657310236245
-0.0049774940125644
-0.0081310793757438
-0.0110198743641376
-0.0134651903063058
-0.0153288077563047
-0.0165120102465152
-0.0169548187404871
-0.0166430175304412
-0.0156187620013952
-0.0139824599027633
-0.0118807954713702
-0.0094869369640946
-0.006982141174376
-0.0045408485457301
-0.0023160497657954
-0.0004253631923347
0.0010597344953566
0.0021171632688492
0.0027700983919203
0.0030818060040473
0.0031476053409278
0.0030802160035818
0.0029925343114882
0.0029812271241098
0.0031137806363403
0.0034210209269076
0.00389682687819
0.0045092683285474
0.0052190050482749
0.0059910048730671
0.0067931050434708
0.0075886021368205
0.00833326485008
0.0089816655963659
0.0094986259937286
0.0098628522828221
0.0100597664713859
0.0100787691771984
0.0099169723689556
0.0095702931284904
0.0090113393962383
0.0081810224801301
0.007005151361227
0.0054188268259167
0.0033870623447
0.0009212242439389
-0.0019116979092359
-0.0049885483458638
-0.0081397499889135
-0.0111702671274542
-0.0138857942074537
-0.0161160659044981
-0.0177291333675384
-0.0186368655413389
-0.0187997370958328
-0.0182328000664711
-0.0170072130858898
-0.0152434650808572
-0.0130964079871773
-0.0107378521934151
-0.0083398204296827
-0.0060575441457331
-0.0040167062543332
-0.0023064720444381
-0.0009737631771713
-2.010050229728222e-05
0.0005941239651292
0.000936102354899
0.0010830024257302
0.0011129672639071
0.0011059870012104
0.0011406661942601
0.0012828370090574
0.0015757700894027
0.0020378869958221
0.0026650249492377
0.003432864556089
0.0042992690578103
0.0052088871598243
0.0061009293422102
0.0069167972542345
0.0076065864413976
0.0081353764981031
0.0084846699610352
0.0086500775068998
0.0086423773318529
0.0084901582449674
0.0082338517531752
0.0079109035432338
0.0075468975119292
0.0071536460891366
0.0067217047326266
0.0062087285332381
0.005536941345781
0.0046089403331279
0.003332873340696
0.0016442607156932
-0.0004720608703792
-0.0029613468796014
-0.0056945295073091
-0.0084862923249602
-0.0111278034746646
-0.0134209226816892
-0.0152009222656488
-0.0163456033915281
-0.0167837888002395
-0.0165064912289381
-0.0155681772157549
-0.0140774538740515
-0.0121819116175174
-0.0100459540262818
-0.0078319814056158
-0.0056927758269011
-0.0037660037633031
-0.0021628122776746
-0.0009509733645245
-0.0001430526608601
0.000299899111269
0.0004558317014016
0.000429326435551
0.0003349513281136
0.0002757366164587
0.000329431699356
0.0005475329817272
0.0009563653729856
0.0015553705161437
0.0023182819131761
0.0031985132955014
0.0041370498947799
0.0050732903182506
0.0059560625813901
0.0067467773333191
0.0074136382900178
0.0079306960105896
0.0082888007164001
0.0085031948983669
0.0086043961346149
0.0086234714835882
0.0085876053199172
0.0085214460268616
0.0084438836202025
0.0083613535389304
0.0082628950476646
0.0081180389970541
0.0078726336359977
0.0074443672783672
0.0067304824478924
0.0056328000500798
0.0040901112370193
0.0021007361356168
-0.0002722949720919
-0.0029069476295262
-0.0056345472112298
-0.0082595078274607
-0.0105834491550922
-0.0124291591346263
-0.0136619824916124
-0.0142051829025149
-0.0140449209138751
-0.0132271889597177
-0.0118533018976449
-0.0100712850689888
-0.0080555928871035
-0.0059820357710123
-0.0040122782811522
-0.0022844094783067
-0.0008984386222437
9.915418922901154e-05
0.000720159499906
0.0010244437726214
0.0011003620456904
0.0010461281053721
0.0009572553681209
0.0009151798440143
0.00097541580908
0.0011631523957476
0.0014806130202487
0.0019202965777367
0.0024735634215176
0.0031289751641452
0.0038647868204861
0.0046459203585982
0.0054300464689731
0.0061766500584781
0.0068523027002811
0.0074320249259471
0.0078999120742082
0.0082494001835584
0.0084807518869638
0.0085963672026991
0.0085998410359025
0.0085010128095746
0.008319279178977
0.0080804238095879
0.0078091104514896
0.0075161391869187
0.007183990906924
0.0067634126171469
0.0061857705004513
0.0053810160607099
0.0042909611947834
0.0028771958313882
0.001126175862737
-0.0009478533174842
-0.0032974516507238
-0.0058306944556534
-0.0084064584225416
-0.0108505869284272
-0.012985517270863
-0.0146571118384599
-0.0157522410154342
-0.0162084754556417
-0.016017597168684
-0.0152203040197491
-0.0138946566730737
-0.0121498052030801
-0.0101262582466006
-0.0079878447577357
-0.005899011157453
-0.0040000644512474
-0.0023923034314066
-0.0011334253940731
-0.0002367035485804
0.0003282402176409
0.0006262727547436
0.0007394133135676
0.0007518522907048
0.0007413222920149
0.0007720775902271
0.0008889690507203
0.0011184699833393
0.0014753709547221
0.0019668829627335
0.0025907556992024
0.003330186009407
0.0041535184718668
0.0050211856141686
0.0058916597627103
0.0067251310683786
0.0074886949732899
0.0081586521118879
0.0087168030440807
0.0091469511389732
0.0094367861747741
0.00958102196455
0.009580684825778
0.0094413831830024
0.0091761257499456
0.0088109765201807
0.0083848778158426
0.0079363044351339
0.0074798157438635
0.0069893272593617
0.0063997041434049
0.0056211594492197
0.0045599439181387
0.003141900524497
0.0013342527672648
-0.0008372829761356
-0.003281440353021
-0.0058514061383903
-0.0083679584786295
-0.0106430677697062
-0.012499920092523
-0.013793465681374
-0.0144292805343866
-0.0143754305317997
-0.0136654917150735
-0.012389101088047
-0.0106738004833459
-0.0086711682379245
-0.0065472233109176
-0.0044681783765554
-0.002584432484582
-0.0010181146208196
0.0001483182422816
0.0008785782847553
0.0011779675260186
0.0010856559965759
0.000672788824886
4.059937782585621e-05
-0.0006923316977918
-0.0014117143582552
-0.0020238796714693
-0.0024595810100436
-0.0026725702919065
-0.0026428708806633
-0.0023822518996894
-0.0019307108595967
-0.0013415436260402
-0.0006618029437959
8.111773058772087e-05
0.0008776672184467
0.0017245104536414
0.0026156140957027
0.003537836484611
0.0044694715179502
0.0053858160972595
0.0062657692469656
0.0070881098508834
0.0078250337392091
0.0084424726665019
0.0089015569537878
0.0091590648517012
0.0091701848432421
0.008892023935914
0.008284505456686
0.007308842614293
0.0059298332780599
0.0041295625269412
0.0019298149272799
-0.0005908366292715
-0.003295209724456
-0.0059992023743689
-0.0084935901686549
-0.0105760721489787
-0.0120854843407869
-0.0129206627607345
-0.0130404848605394
-0.0124580599367618
-0.0112361460924148
-0.0094827190041542
-0.0073437499813735
-0.0049905451014637
-0.002605902031064
-0.0003697713837027
0.0015631755813956
0.0030872644856572
0.0041546472348272
0.0047707105986773
0.0049876808188855
0.0048960968852043
0.0046093044802546
0.0042462772689759
0.0039166882634162
0.0037097160238772
0.0036898665130138
0.0038933174218982
0.0043234294280409
0.0049549019895493
0.0057442812249064
0.0066375005990266
0.0075733195990324
0.0084882322698831
0.0093243075534701
0.0100351925939321
0.01059091091156
0.0109806191176176
0.0112079326063394
0.011283429339528
0.0112197762355208
0.0110261626541614
0.0106994854286313
0.0102153206244111
0.0095245810225605
0.0085584912449121
0.0072412574663758
0.0055090091191232
0.0033301226794719
0.0007219322142191
-0.0022384775802493
-0.005413154605776
-0.0086151547729969
-0.0116317691281437
-0.0142514612525701
-0.0162867661565542
-0.0175939537584781
-0.0180901978164911
-0.017764089629054
-0.0166776962578296
-0.0149554852396249
-0.0127630243077874
-0.010291707701981
-0.0077476250007748
-0.005330768879503
-0.0032097848597913
-0.0015045711770653
-0.0002779834903776
0.0004681289428845
0.0007910951972007
0.0007940315408632
0.0006045809714123
0.0003559456672519
0.0001709121279418
0.0001429773401468
0.0003204036038368
0.0007046540267765
0.0012624626979231
0.0019437791779637
0.0026970349717885
0.0034750828053802
0.0042370092123746
0.004952282179147
0.0056033325381577
0.0061848824843764
0.0067011136561632
0.0071596205234527
0.007562187500298
0.0078947898000478
0.0081225093454122
0.0081892199814319
0.0080171218141913
0.0075121950358152
0.0065810764208436
0.0051506296731531
0.0031830149237066
0.0006873387610539
-0.0022694782819598
-0.0055556641891598
-0.0089818174019455
-0.0123247001320123
-0.0153563702479004
-0.0178680829703807
-0.0196877531707286
-0.0206948090344667
-0.0208323411643505
-0.020111721009016
-0.0186088979244232
-0.0164557695388793
-0.0138273360207676
-0.0109269507229328
-0.0079699791967868
-0.0051594446413218
-0.0026586325839161
-0.0005749929696321
0.001043246127665
0.0022020004689693
0.002948893001303
0.0033607946243137
0.00353589723818
0.0035825446248054
0.003601923584938
0.0036763353273272
0.0038697286508977
0.004231440834701
0.0047932369634509
0.0055582448840141
0.0064933486282825
0.0075386292301118
0.0086272004991769
0.0097005125135183
0.0107130818068981
0.011628950946033
0.0124209085479378
0.0130732217803597
0.0135727152228355
0.0138881569728255
0.0139559293165802
0.0136827006936073
0.0129641201347112
0.0117113776504993
0.0098737515509128
0.0074537908658385
0.0045188586227595
0.0012052099918946
-0.0022917902097105
-0.0057370634749531
-0.0088782804086804
-0.0114757735282182
-0.01333814766258
-0.0143442740663886
-0.0144456373527646
-0.0136654805392026
-0.0120995510369539
-0.0099075194448232
-0.0072919144295156
-0.0044718161225318
-0.0016605113632977
0.0009508640505373
0.0032083494588732
0.0050091692246496
0.0063112508505582
0.0071335895918309
0.0075452076271176
0.0076491618528962
0.007565735373646
0.0074136471375823
0.007293309085071
0.0072773867286741
0.0074102859944105
0.0077141937799751
0.0081960577517747
0.0088493479415774
0.0096487822011113
0.0105464905500411
0.0114773763343691
0.0123697146773338
0.0131560955196619
0.0137855038046836
0.0142301833257079
0.0144773870706558
0.0145149193704128
0.0143230911344289
0.0138680376112461
0.0130960335955023
0.0119379125535488
0.0103237237781286
0.0082025425508618
0.0055635729804635
0.0024566147476434
-0.0009952145628631
-0.0046023279428482
-0.0081318905577063
-0.0113353608176112
-0.0139784971252083
-0.0158743113279342
-0.016909722238779
-0.0170543193817138
-0.0163522735238075
-0.0149066001176834
-0.0128640532493591
-0.0104055777192115
-0.0077360956929624
-0.0050665736198425
-0.0025931997224688
-0.0004791151732206
0.0011610202491283
0.0022750375792384
0.0028808629140257
0.00305712595582
0.0029188701882958
0.0025914506986737
0.0021922923624515
0.0018221382051706
0.0015591848641633
0.0014554718509316
0.0015396978706121
0.0018178699538111
0.0022669062018394
0.0028361231088638
0.0034646550193428
0.0040981899946928
0.0046922415494918
0.005210786126554
0.0056274523958563
0.0059242015704512
0.0060842903330922
0.0060836691409349
0.005884725600481
0.0054318746551871
0.0046504829078912
0.0034554880112409
0.0017701368778944
-0.0004548039287328
-0.0032239900901913
-0.0064773336052894
-0.0100777493789792
-0.0138229904696345
-0.0174755062907934
-0.0207928530871868
-0.0235488042235374
-0.0255488604307174
-0.0266516599804162
-0.0267952866852283
-0.0260080192238092
-0.0243956055492162
-0.0221246369183063
-0.0194086246192455
-0.0164847373962402
-0.0135844312608242
-0.0109090814366936
-0.008613396435976
-0.0067943027243018
-0.0054851961322128
-0.0046597309410572
-0.0042428541928529
-0.0041230749338865
-0.0041688960045576
-0.004252322949469
-0.0042705596424639
-0.0041541224345564
-0.0038621488492935
-0.0033771421294659
-0.0027029607445001
-0.0018606605008244
-0.0008826826233416
0.0001914026215672
0.0013171655591577
0.0024475699756294
0.0035364758223295
0.0045423535630106
0.0054316259920597
0.0061805644072592
0.0067728329449892
0.0071896566078066
0.0073968041688203
0.0073389350436627
0.006944952532649
0.0061424802988767
0.004879156127572
0.0031442276667803
0.0009846701286733
-0.0014904518611729
-0.004123062826693
-0.0067280046641826
-0.0091126458719372
-0.0110921738669276
-0.0125016784295439
-0.0132107380777597
-0.0131409149616956
-0.012280561029911
-0.010694283992052
-0.0085178650915622
-0.0059351758100092
-0.0031517944298684
-0.0003753202036023
0.0022024842910468
0.0044265259057283
0.0061955009587109
0.0074685020372271
0.0082622785121202
0.008637947961688
0.0086833657696843
0.0085033383220434
0.0082127405330538
0.0079250168055295
0.0077393595129251
0.007728137075901
0.0079273516312241
0.0083342744037508
0.0089124096557497
0.0096028447151184
0.0103376302868127
0.0110517563298344
0.011695384979248
0.012242579832673
0.0126879997551441
0.0130337458103895
0.0132787376642227
0.0134155647829175
0.0134259145706892
0.0132682286202907
0.0128710614517331
0.0121464487165212
0.0110143246129155
0.0094224931672215
0.0073585412465035
0.0048579699359834
0.0020094227511435
-0.0010466852691024
-0.0041271597146987
-0.0070240339264273
-0.0095298029482364
-0.0114635434001684
-0.012694644741714
-0.0131566133350133
-0.0128460470587015
-0.0118178268894553
-0.0101839136332273
-0.0081056393682956
-0.0057715671136975
-0.0033716228790581
-0.0010800515301525
0.0009560184553265
0.0026277010329067
0.0038719400763511
0.004672578535974
0.0050568599253892
0.0050897961482405
0.0048640933819115
0.0044835531152784
0.0040471423417329
0.0036409511230885
0.0033356049098074
0.0031851776875555
0.0032254345715045
0.0034699190873652
0.0039049535989761
0.0044901925139129
0.0051696132868528
0.0058821034617722
0.0065651293843984
0.0071610580198466
0.0076246447861194
0.0079227956011891
0.0080287931486964
0.0079176509752869
0.0075654005631804
0.0069480286911129
0.006039161235094
0.0048141251318156
0.0032592092175036
0.0013768940698355
-0.0008121249265968
-0.0032621400896459
-0.0058917249552905
-0.0085786450654268
-0.0111642098054289
-0.0134664513170719
-0.0153051242232322
-0.0165320914238691
-0.0170520506799221
-0.0168317463248968
-0.0159032717347145
-0.0143594564869999
-0.0123398248106241
-0.0100129041820764
-0.007558480836451
-0.0051491456106305
-0.0029364265501499
-0.0010440977057442
0.0004410510300658
0.0014805106911808
0.0020864082034677
0.0023165431339293
0.0022647553123533
0.0020441960077732
0.0017683898331597
0.00153633300215
0.0014248450752347
0.0014871937455609
0.0017495666397735
0.0022036689333617
0.0028082442004233
0.0035046506673097
0.0042318999767303
0.0049304161220788
0.0055467369966208
0.0060476381331682
0.0064257523044943
0.0066887247376143
0.0068475012667477
0.0069080353714525
0.0068611907772719
0.0066762352362275
0.0063043991103768
0.0056876456364989
0.0047666332684457
0.0034920540638267
0.0018405870068818
-0.0001724557951092
-0.0024861684069037
-0.0049921348690986
-0.0075434660539031
-0.0099729830399155
-0.0121089918538928
-0.0137891713529825
-0.0148791661486029
-0.0152923474088311
-0.0150031875818967
-0.0140487384051084
-0.0125187784433364
-0.0105413980782032
-0.0082704918459057
-0.005875252187252
-0.0035240915603935
-0.0013638949021697
0.0004921567160636
0.0019677481614053
0.0030254835728555
0.0036676570307463
0.0039372760802507
0.0039171106182038
0.0037163253873586
0.0034464737400412
0.0032026327680796
0.0030567389912903
0.0030579075682908
0.0032360253389924
0.0036045834422111
0.0041557229124009
0.0048520024865865
0.0056284954771399
0.0064065903425216
0.0071111023426055
0.0076839956454932
0.0080929659307003
0.008335224352777
0.0084285354241728
0.0083885649219155
0.0082107754424214
0.0078655332326889
0.0072991298511624
0.0064411065541207
0.0052234940230846
0.0036052579525858
0.0015898664714768
-0.0007638668175786
-0.003338152077049
-0.0059687923640012
-0.0084698181599378
-0.0106573430821299
-0.0123677309602499
-0.013469198718667
-0.0138724679127335
-0.0135447485372424
-0.0125192385166883
-0.0108952522277832
-0.0088295992463827
-0.0065169725567102
-0.0041607897728681
-0.0019430231768637
-1.5355180948972702e-06
0.0015799272805452
0.002768674166873
0.0035741892643272
0.0040385429747402
0.0042250975966453
0.004208599217236
0.0040684915147721
0.0038808332756161
0.0037122291978448
0.0036224091891199
0.0036639925092458
0.0038700886070728
0.0042466814629733
0.0047787455841898
0.0054350323043763
0.0061687054112553
0.0069237281568348
0.0076432190835475
0.008272286504507
0.0087598543614149
0.0090605756267905
0.0091299666091799
0.0089178411290049
0.0083700567483901
0.0074380589649081
0.0060918182134628
0.0043295309878885
0.0021813679486513
-0.0002853876794688
-0.0029592046048492
-0.0056844819337129
-0.008273871615529
-0.0105317346751689
-0.01228285767138
-0.013395894318819
-0.0137966163456439
-0.0134729435667395
-0.0124718369916081
-0.0108931930735707
-0.0088843423873186
-0.0066264932975173
-0.0043139886111021
-0.002130634849891
-0.0002230326645076
0.0013134640175849
0.0024328958243131
0.0031380986329168
0.0034774970263242
0.0035298820585012
0.003388617420569
0.0031520330812782
0.0029142519924789
0.0027554314583539
0.0027313386090099
0.0028668616432696
0.0031621546950191
0.0036031168419867
0.0041664820164442
0.0048216981813311
0.0055307978764176
0.006252471357584
0.0069498755037784
0.0075877127237617
0.0081219375133514
0.0084983203560113
0.0086563806980848
0.0085273468866944
0.0080325324088335
0.0070962696336209
0.00567138614133
0.0037601634394377
0.0014191924128681
-0.0012465147301554
-0.0040889624506235
-0.0069229686632752
-0.0095411604270339
-0.0117401229217648
-0.013349063694477
-0.0142496386542916
-0.0143845388665795
-0.0137591632083058
-0.0124393720179796
-0.0105489874258637
-0.0082651255652308
-0.0058003114536404
-0.003369859419763
-0.0011595524847507
0.0006925666239112
0.0021012388169765
0.00303511088714
0.0035166908055543
0.003615942550823
0.0034353220835328
0.0030920109711587
0.0027025095187127
0.0023684208281338
0.0021653228905051
0.0021404821891337
0.0023144953884184
0.00268000154756
0.0032044353429228
0.0038426723331212
0.0045512560755014
0.0052939052693545
0.0060398248024284
0.0067635332234203
0.0074456669390201
0.0080644786357879
0.0085798781365156
0.0089254658669233
0.0090124160051345
0.0087379477918148
0.0080004734918475
0.0067255101166665
0.0048911604098975
0.0025387550704181
-0.0002303353976458
-0.0032625300809741
-0.0063649951480329
-0.0093258563429117
-0.0119334757328033
-0.013993851840496
-0.0153523562476038
-0.0159133337438106
-0.0156472939997911
-0.0145898545160889
-0.0128393964841961
-0.0105496626347303
-0.007915205322206
-0.0051506538875401
-0.0024660993367433
-4.63961623609066e-05
0.0019636007491499
0.0034720115363597
0.0044508269056677
0.004936546087265
0.0050152018666267
0.0048017064109444
0.0044239978305995
0.0040068533271551
0.0036542159505188
0.0034420134034007
0.0034205126576125
0.0036139723379164
0.0040182508528232
0.004603523761034
0.0053215348161756
0.0061149708926677
0.0069276914000511
0.0077110370621085
0.0084240520372986
0.0090323910117149
0.0095101725310087
0.0098428111523389
0.0100240092724561
0.0100443568080663
0.009877516888082
0.0094701154157519
0.0087426928803324
0.0076078837737441
0.0059959413483738
0.00387529656291
0.0012708904687315
-0.0017222024034708
-0.0049422141164541
-0.008180676959455
-0.0112108681350946
-0.0138183096423745
-0.0158229675143957
-0.0170913133770227
-0.0175483487546443
-0.0171893406659364
-0.0160799082368612
-0.0143426451832056
-0.0121404509991407
-0.0096636693924665
-0.0071163377724587
-0.0046951062977313
-0.0025651403702795
-0.0008438838412985
0.0004041957436129
0.0011683159973472
0.0014884154079481
0.0014469007728621
0.001158773433417
0.0007571132737211
0.000370213878341
0.0001002913340926
1.4546192687703297e-05
0.0001464581000618
0.000500748748891
0.0010600350797176
0.0017911331960931
0.0026487824507057
0.0035806407686322
0.004532785154879
0.0054503446444869
0.0062807640060782
0.0069825886748731
0.0075273173861205
0.0078913420438766
0.0080432258546352
0.0079299341887235
0.007471433840692
0.0065750083886086
0.0051687280647456
0.0032348134554922
0.0008225191850215
-0.001957762055099
-0.0049469973891973
-0.0079544689506292
-0.0107771148905158
-0.0132155045866966
-0.0150887854397296
-0.0162500385195016
-0.0166020188480615
-0.0161149706691503
-0.0148364547640085
-0.0128845684230327
-0.0104315066710114
-0.0076829129830002
-0.0048520462587475
-0.0021335375495254
0.0003134736325591
0.0023703086189925
0.003960832953453
0.0050561148673295
0.0056768446229398
0.0058910739608109
0.0058043738827109
0.0055403592996299
0.0052218548953533
0.0049582794308662
0.0048342640511691
0.0049018654972314
0.0051787579432129
0.0056503862142562
0.0062792915850877
0.0070183519273996
0.0078180935233831
0.0086298584938049
0.0094111412763595
0.0101293548941612
0.0107591534033417
0.0112769566476345
0.0116577725857496
0.0118715092539787
0.0118749337270855
0.0116070639342069
0.010994030162692
0.0099576478824019
0.0084276208654046
0.0063611837103962
0.0037633522879332
0.000701111741364
-0.0026877645868808
-0.006199094466865
-0.009590683504939
-0.0126233678311109
-0.0150917042046785
-0.0168379098176956
-0.017759108915925
-0.0178149491548538
-0.0170301627367734
-0.0154886757954955
-0.0133271096274256
-0.0107298353686928
-0.0079149641096591
-0.0051054647192358
-0.0024970408994704
-0.0002396563068032
0.0015659155324101
0.0028678495436906
0.0036635077558457
0.0039962986484169
0.0039487821049988
0.0036334511823952
0.0031803692691028
0.0027206223458051
0.0023694424889981
0.0022140042856335
0.0023039253428578
0.0026467679999768
0.0032149027101695
0.0039597195573151
0.0048236418515443
0.0057449764572083
0.0066606909967958
0.0075145731680095
0.0082669965922832
0.0088961822912096
0.0093883126974105
0.0097274109721183
0.0098959011957049
0.0098805017769336
0.0096705192700028
0.0092445341870188
0.0085577415302395
0.0075451070442795
0.0061367992311716
0.0042769303545355
0.0019463957287371
-0.0008170106448233
-0.003913810942322
-0.0071899956092238
-0.0104476884007453
-0.0134643660858273
-0.01602079346776
-0.0179246813058853
-0.0190272890031337
-0.0192408412694931
-0.018555948510766
-0.0170466527342796
-0.0148557219654321
-0.0121713345870375
-0.0092082219198346
-0.0061903023160994
-0.0033274898305535
-0.000791457016021
0.0012978364247828
0.0028724474832415
0.0039135427214205
0.0044508334249258
0.0045572347007691
0.0043340632691979
0.0038961335085332
0.0033664382062852
0.0028734393417835
0.0025379001162946
0.0024495546240359
0.0026476667262613
0.0031183529645204
0.0038076168857514
0.0046414257958531
0.0055445390753448
0.0064515992999076
0.0073121096938848
0.008091234602034
0.0087643451988697
0.009310538880527
0.0097101144492626
0.0099463956430554
0.010011252015829
0.0099063236266374
0.0096366880461573
0.009201006963849
0.0085775991901755
0.007715942338109
0.0065474938601255
0.0050069577991962
0.0030489298515021
0.0006634108722209
-0.0021038274280726
-0.0051380237564444
-0.0082650315016508
-0.0112790754064917
-0.0139710009098052
-0.0161485131829977
-0.0176528207957744
-0.0183768756687641
-0.0182815510779619
-0.0174021907150745
-0.0158425010740757
-0.0137566402554512
-0.0113237118348479
-0.0087249996140599
-0.006132376845926
-0.0037016673013567
-0.001563632977195
0.0001827031519496
0.0014762193895876
0.0023038561921566
0.0027029311750084
0.0027492980007082
0.0025437674485147
0.0022018959280103
0.0018408180912956
0.0015642081853002
0.0014508700696751
0.0015488804783672
0.0018763354746624
0.0024255951866507
0.0031667747534811
0.0040534324944019
0.0050303381867706
0.0060380594804883
0.0070152916014194
0.007903310470283
0.0086559699848294
0.0092494329437613
0.0096807116642594
0.0099589098244905
0.0100964959710836
0.010101743042469
0.0099773509427905
0.0097210379317402
0.0093180602416396
0.0087331030517816
0.0079130986705422
0.0067981490865349
0.0053330427035689
0.0034799131099134
0.0012361789122223
-0.0013511038850992
-0.0041866349056363
-0.0071359295397996
-0.0100313182920217
-0.012682537548244
-0.0148998759686946
-0.0165222845971584
-0.0174387209117412
-0.0175999943166971
-0.0170217715203762
-0.0157782342284917
-0.0139884697273373
-0.0118005406111478
-0.0093800909817218
-0.0069027603603899
-0.0045403861440718
-0.0024409550242125
-0.0007133504841476
0.000579087762162
0.0014198443386703
0.0018398985266685
0.0019183568656444
0.0017735324800014
0.0015389521140605
0.0013338782591745
0.0012442135484889
0.0013243842404335
0.0016082979273051
0.0021099867299199
0.0028181825764477
0.003695567138493
0.0046833474189043
0.0057107182219624
0.0067056561820209
0.0076044904999434
0.0083600115031003
0.0089437766000628
0.009344563819468
0.0095678595826029
0.009632509201765
0.0095628472045063
0.0093829408288002
0.0091163702309131
0.0087871327996253
0.0084152473136782
0.008003500290215
0.0075225015170872
0.00690708309412
0.0060675675049424
0.0049126967787742
0.0033755751792341
0.0014306693337857
-0.0008975472301244
-0.0035286673810333
-0.0063282083719968
-0.0091237286105751
-0.0117302164435386
-0.0139693394303321
-0.0156781058758497
-0.0167215839028358
-0.0170130506157875
-0.0165302269160747
-0.0153234507888555
-0.0135115049779415
-0.0112622957676649
-0.0087682697921991
-0.0062258336693048
-0.0038190085906535
-0.0017054013442248
-3.217312041670084e-06
0.0012208584230393
0.0019577627535909
0.0022500846534967
0.0021789940074086
0.0018525982741266
0.0013942968798801
0.0009271578164771
0.0005577612901106
0.000364797655493
0.0003939511952921
0.0006603224901482
0.0011550456983968
0.0018482749583199
0.0026896467898041
0.0036139716394245
0.0045539317652583
0.0054534063674509
0.006271599791944
0.0069775064475834
0.0075466358102858
0.0079636313021183
0.0082243205979466
0.0083377016708254
0.0083264904096722
0.0082171456888318
0.0080218045040965
0.0077245263382792
0.00727811595425
0.0066128894686698
0.0056524612009525
0.0043287687003612
0.0026001099031418
0.000473842723295
-0.0019811475649476
-0.0046402243897318
-0.0073367985896766
-0.0098758833482861
-0.0120533620938658
-0.0136856380850076
-0.0146362176164984
-0.0148284677416086
-0.0142512554302811
-0.0129621159285306
-0.011083610355854
-0.0087874149903655
-0.0062672849744558
-0.003711863188073
-0.0012897797860205
0.0008516424568369
0.002588489325717
0.0038350112736225
0.0045619322918355
0.0048029338940978
0.0046459203585982
0.0042150011286139
0.0036500764545053
0.0030859014950692
0.0026341970078647
0.0023754651192575
0.0023560507688671
0.0025857423897832
0.0030419297982007
0.0036784051917493
0.004431358538568
0.0052274130284786
0.0059988759458065
0.0066967653110623
0.007294432260096
0.0077861635945737
0.0081816716119647
0.0084945168346166
0.0087286625057458
0.0088712060824036
0.0088971322402358
0.0087794624269008
0.0084895128384232
0.0079883160069584
0.0072237281128764
0.0061346227303147
0.0046589323319494
0.0027514440007507
0.0004094216274097
-0.0023081225808709
-0.005277432501316
-0.0083224354311823
-0.0112352883443236
-0.0138019910082221
-0.0158325098454952
-0.0171837713569402
-0.0177684426307678
-0.0175591073930263
-0.0165929030627012
-0.0149714089930057
-0.0128503246232867
-0.0104185221716761
-0.0078740045428276
-0.0054037063382565
-0.0031664993148297
-0.0012798672541975
0.0001841695047914
0.0011980622075498
0.0017817774787545
0.0019990641158074
0.001940096495673
0.0017083894927054
0.0014156395336613
0.0011716813314706
0.0010705615859478
0.0011783954687416
0.0015253827441483
0.002104900078848
0.0028792975936084
0.0037914190907031
0.004778797738254
0.0057831276208162
0.0067525086924433
0.0076407971791923
0.0084090391173958
0.0090327318757772
0.0095106922090053
0.0098623223602771
0.0101137636229395
0.0102869821712374
0.010392808355391
0.0104236965999007
0.0103486645966768
0.0101111903786659
0.0096321441233158
0.0088191647082567
0.0075796274468302
0.0058397715911269
0.0035703130997717
0.0008077318780124
-0.002336470875889
-0.0056834127753973
-0.0090122977271676
-0.0120912138372659
-0.0147037496790289
-0.0166697297245264
-0.0178594980388879
-0.0182059966027736
-0.0177143029868602
-0.0164602771401405
