bvp
-0.0001982280518859
-0.0036767898127436
-0.0072986502200365
-0.0108290547505021
-0.0140258818864822
-0.0166652742773294
-0.0185585413128137
-0.0195744447410106
-0.019662020727992
-0.0188578832894563
-0.017277929931879
-0.0151004958897829
-0.0125429248437285
-0.0098351500928401
-0.0071967602707445
-0.0048189768567681
-0.0028478985186666
-0.0013708220794796
-0.0004102201201021
7.448834367096424e-05
0.0001768544316291
2.590916119515896e-05
-0.0002335691824555
-0.0004593359772115
-0.0005290817935019
-0.0003564811777323
0.0001022305805236
0.0008527161553502
0.0018659566994756
0.0030807128641754
0.0044165174476802
0.0057937828823924
0.0071481196209788
0.0084334528073668
0.009616713039577
0.0106699783354997
0.0115642780438065
0.0122692445293068
0.0127615202218294
0.0130364643409848
0.0131140472367405
0.0130333853885531
0.0128389857709407
0.0125700226053595
0.0122553659602999
0.0119087053462862
0.0115283373743295
0.0111062284559011
0.0106385359540581
0.0101315882056951
0.0096056852489709
0.0090955412015318
0.0086431754752993
0.0082944016903638
0.0081089427694678
0.0081650679931044
0.0085453381761908
0.0093209277838468
0.010543699376285
0.0122379325330257
0.0143940513953566
0.0169691853225231
0.0198910795152187
0.023063376545906
0.0263728369027376
0.0296976212412118
0.0329098999500274
0.0358705148100853
0.0384293422102928
0.0404392816126346
0.0417759083211422
0.0423584915697574
0.0421709939837455
0.0412716045975685
0.0397837720811367
0.0378779359161853
0.035750638693571
0.0336007736623287
0.0316058322787284
0.0298978611826896
0.0285408273339271
0.0275234468281269
0.0267762802541255
0.0261970274150371
0.0256637446582317
0.0250375866889953
0.0241668559610843
0.02290029078722
0.0211100056767463
0.0187116041779518
0.0156700164079666
0.0119925960898399
0.0077154487371444
0.0028921142220497
-0.0024060904979705
-0.0080800652503967
-0.0139931142330169
-0.0199709609150886
-0.0258130393922328
-0.0313090085983276
-0.0362559407949447
-0.040473997592926
-0.0438232533633708
-0.0462211854755878
-0.0476537160575389
-0.04818070307374
-0.0479363687336444
-0.0471167378127574
-0.0459532774984836
-0.0446838662028312
-0.0435301512479782
-0.0426814556121826
-0.0422819443047046
-0.0424200966954231
-0.0431249588727951
-0.0443740561604499
-0.0461100675165653
-0.0482562966644763
-0.0507242195308208
-0.0534164980053901
-0.0562282502651214
-0.0590447969734668
-0.0617396309971809
-0.0641754567623138
-0.0662043467164039
-0.0676695108413696
-0.0684147775173187
-0.0682986825704574
-0.067206397652626
-0.0650561824440956
-0.0618029087781906
-0.057445041835308
-0.0520357601344585
-0.0456929355859756
-0.038604337722063
-0.0310264322906732
-0.0232753288000822
-0.015709288418293
-0.0087043195962905
-0.0026269070804119
0.0021934323012828
0.0054927505552768
0.0071015805006027
0.0069679580628871
0.0051675364375114
0.0018979124724864
-0.0025409311056137
-0.0077757406979799
-0.013395506888628
-0.0189897883683443
-0.0241830237209796
-0.0286593046039342
-0.0321787856519222
-0.0345891043543815
-0.0358313620090484
-0.0359379723668098
-0.0350218266248703
-0.0332586653530597
-0.0308654718101024
-0.0280783735215663
-0.0251321345567703
-0.0222418569028377
-0.0195885878056287
-0.0173097848892211
-0.0154934134334325
-0.0141754141077399
-0.0133413570001721
-0.0129313664510846
-0.012847694568336
-0.0129659017547965
-0.0131479138508439
-0.0132543928921222
-0.0131584946066141
-0.012762090191245
-0.0120096988976001
-0.0108954049646854
-0.0094598121941089
-0.0077756401151418
-0.0059271268546581
-0.0039909668266773
-0.0020228028297424
-5.229189991950989e-05
0.0019093789160251
0.0038493983447551
0.0057269632816314
0.0074528567492961
0.0088862292468547
0.0098520256578922
0.0101736970245838
0.0097110196948051
0.0083925798535346
0.0062346868216991
0.0033442676067352
-9.053200483322144e-05
-0.0038183033466339
-0.0075489655137062
-0.0109820887446403
-0.0138343870639801
-0.0158642381429672
-0.0168932899832725
-0.0168244838714599
-0.0156533122062683
-0.0134682655334472
-0.0104380920529365
-0.0067871883511543
-0.002764455974102
0.0013869181275367
0.0054531618952751
0.0092669427394866
0.0127178356051445
0.0157542899250984
0.018377773463726
0.0206323489546775
0.0225923210382461
0.0243494659662246
0.0260009765625
0.0276386216282844
0.0293399021029472
0.0311622694134712
0.0331410765647888
0.0352904573082923
0.037605807185173
0.0400681942701339
0.0426498726010322
0.04531841725111
0.0480394512414932
0.0507788509130477
0.0535017475485801
0.0561643242835998
0.0586984008550643
0.0609960258007049
0.0629043877124786
0.0642360150814056
0.06479412317276
0.064409926533699
0.0629822760820388
0.0605077631771564
0.0570932924747467
0.0529469102621078
0.0483487397432327
0.0436125174164772
0.0390489175915718
0.0349361598491668
0.03150025755167
0.0289036482572555
0.0272388681769371
0.0265277326107025
0.0267264097929
0.0277340412139892
0.0294034779071807
0.0315545201301574
0.033989317715168
0.0365082621574401
0.0389259494841098
0.0410874150693416
0.0428815484046936
0.0442479513585567
0.0451766289770603
0.0457026213407516
0.0458965636789798
0.0458507873117923
0.0456639304757118
0.0454287305474281
0.045223020017147
0.0451017655432224
0.0450931042432785
0.0452006533741951
0.0454084277153015
0.0456856340169906
0.0459913499653339
0.0462778359651565
0.0464944466948509
0.0465935841202735
0.0465323105454444
0.0462609753012657
0.0457003340125083
0.0447223782539367
0.0431500114500522
0.0407787524163723
0.0374174863100051
0.0329394713044166
0.0273256450891494
0.0206862054765224
0.0132589805871248
0.0053876899182796
-0.0025200368836522
-0.010049513541162
-0.0168310683220624
-0.0225726272910833
-0.0270755048841238
-0.0302387792617082
-0.0320580452680587
-0.0326216891407966
-0.0320973768830299
-0.0307095795869827
-0.028718153014779
-0.0263962820172309
-0.0240050666034221
-0.0217714924365282
-0.0198715850710868
-0.0184159167110919
-0.0174416080117225
-0.0169165823608636
-0.0167542286217212
-0.0168317891657352
-0.0170086733996868
-0.01714445091784
-0.017115443944931
-0.0168288815766572
-0.0162333846092224
-0.0153233781456947
-0.0141366999596357
-0.0127468630671501
-0.0112510174512863
-0.0097537413239479
-0.0083515588194131
-0.0071238838136196
-0.0061258487403392
-0.0053814053535461
-0.0048882439732551
-0.004636351019144
-0.0046296641230583
-0.0049080438911914
-0.0055664628744125
-0.0067571513354778
-0.008664708584547
-0.0114606954157352
-0.0152536258101463
-0.0200487412512302
-0.0257273446768522
-0.0320490971207618
-0.0386755689978599
-0.0452113039791584
-0.051253791898489
-0.0564398691058158
-0.0604788027703762
-0.0631709322333335
-0.0644171833992004
-0.0642216280102729
-0.0626858174800872
-0.0599978193640708
-0.0564158707857131
-0.0522411800920963
-0.0477850027382373
-0.0433400869369506
-0.0391572229564189
-0.035425528883934
-0.0322599038481712
-0.029698334634304
-0.0277074258774518
-0.0261920150369405
-0.0250093191862106
-0.023990673944354
-0.0229663401842117
-0.0217866525053977
-0.0203395690768957
-0.018561951816082
-0.0164395123720169
-0.0139997266232967
-0.0113048739731311
-0.0084453523159027
-0.0055284406989812
-0.0026620179414749
6.006285548210144e-05
0.0025679469108581
0.0048206038773059
0.0068026445806026
0.008514154702425
0.0099560022354125
0.0111090596765279
0.0119112450629472
0.0122467335313558
0.0119566321372985
0.0108692441135644
0.0088434126228094
0.0058149639517068
0.001833027228713
-0.002927865833044
-0.0081832837313413
-0.0135735645890235
-0.0187102518975734
-0.02322518825531
-0.0268104411661624
-0.0292430091649293
-0.0303951874375343
-0.0302368439733982
-0.0288330297917127
-0.0263326168060302
-0.0229464899748563
-0.0189246945083141
-0.014541202224791
-0.0100773125886917
-0.0057932287454605
-0.0019009839743375
0.0014460040256381
0.0041579715907573
0.0062206303700804
0.0076992027461528
0.0087185446172952
0.0094290124252438
0.0099787199869751
0.0104975663125514
0.0110865700989961
0.0118135679513216
0.0127166174352169
0.0138069400563836
0.0150685831904411
0.0164599269628524
0.0179203152656555
0.0193808712065219
0.0207740254700183
0.022039970383048
0.0231338124722242
0.0240304917097091
0.0247216448187828
0.0252071153372526
0.0254893638193607
0.0255719013512134
0.0254493504762649
0.025083178654313
0.024381048977375
0.0231987424194812
0.021365150809288
0.0187242701649665
0.0151846315711736
0.01075847633183
0.0055750431492924
-0.0001311982050538
-0.0060463114641606
-0.0118132112547755
-0.0170751716941595
-0.0215143915265798
-0.0248807333409786
-0.0270119495689868
-0.0278426446020603
-0.0274039451032876
-0.0258178897202014
-0.0232862029224634
-0.0200719628483057
-0.0164709463715553
-0.0127757973968982
-0.0092444904148578
-0.0060786735266447
-0.003413314698264
-0.0013171560131013
0.0002039175014942
0.0012032417580485
0.0017850811127573
0.0020914189517498
0.0022824788466095
0.0025127956178039
0.0029111627954989
0.0035665386822074
0.0045208637602627
0.0057709575630724
0.0072742393240332
0.0089567713439464
0.010727934539318
0.012497829273343
0.0141902146860957
0.0157487653195858
0.0171362943947315
0.0183295849710702
0.01931176148355
0.0200590305030345
0.0205244105309247
0.0206276569515466
0.020256133750081
0.0192791484296321
0.0175768416374921
0.0150762386620044
0.0117825828492641
0.0077968975529074
0.0033133546821773
-0.0014028158038854
-0.006045825779438
-0.0103023592382669
-0.0138895818963646
-0.0165914334356784
-0.0182790476828813
-0.0189111027866601
-0.0185245350003242
-0.0172261800616979
-0.0151820573955774
-0.01259639672935
-0.0096842041239142
-0.0066503770649433
-0.0036796675994992
-0.0009284288389608
0.0014865262201055
0.0034961756318807
0.0050798552110791
0.0062590232118964
0.0070895939134061
0.007653041742742
0.0080414824187755
0.008341422304511
0.0086217867210507
0.0089264754205942
0.0092766676098108
0.009682323783636
0.0101525373756885
0.0106999427080154
0.011338535696268
0.0120752174407243
0.0129018891602754
0.0137947890907526
0.0147175379097461
0.0156233720481395
0.0164578333497047
0.0171559192240238
0.0176301635801792
0.0177625808864831
0.017408862709999
0.0164163764566183
0.0146560557186603
0.0120545960962772
0.0086148120462894
0.0044269878417253
-0.0003304444253444
-0.0054078856483101
-0.0105157122015953
-0.0153598096221685
-0.019672317430377
-0.0232319980859756
-0.0258783586323261
-0.0275247693061828
-0.028165265917778
-0.0278692841529846
-0.0267678927630186
-0.0250370632857084
-0.0228804126381874
-0.0205095633864402
-0.0181222390383481
-0.0158850066363811
-0.013922213576734
-0.0123078282922506
-0.0110619757324457
-0.0101555418223142
-0.0095220804214477
-0.0090716043487191
-0.0087031982839107
-0.008317444473505
-0.007827641442418
-0.0071680136024951
-0.0062984758988022
-0.0052075497806072
-0.003914869390428
-0.0024682350922375
-0.0009309095330536
0.0006341395201161
0.0021743678953498
0.0036505865864455
0.0050350995734333
0.0063086939044296
0.0074581475928425
0.0084730079397559
0.0093405600637197
0.0100356293842196
0.0105051454156637
0.0106608737260103
0.0103912400081753
0.0095853246748447
0.0081592090427875
0.0060812775045633
0.0033931089565157
0.0002194982953369
-0.0032402120996266
-0.0067403558641672
-0.0100262081250548
-0.0128653785213828
-0.0150655480101704
-0.0164833329617977
-0.0170322731137275
-0.0166929587721824
-0.0155206359922885
-0.0136404000222682
-0.0112298438325524
-0.0084970165044069
-0.0056557646021246
-0.0029011350125074
-0.0003912085667252
0.0017623882740736
0.0034980969503521
0.0048057925887405
0.0057235448621213
0.0063265711069107
0.0067124036140739
0.006986420135945
0.0072488184086978
0.007583225145936
0.0080474140122532
0.0086703523993492
0.0094573497772216
0.0103974882513284
0.0114681664854288
0.0126370629295706
0.0138642024248838
0.0151045890524983
0.0163115970790386
0.0174421537667512
0.0184600483626127
0.0193352848291397
0.0200451649725437
0.0205786563456058
0.0209331531077623
0.0210992749780416
0.0210455618798732
0.0207100305706262
0.0199999697506427
0.01880544424057
0.0170254558324813
0.0145979225635528
0.011525928042829
0.0078916372731328
0.0038519501686096
-0.0003786482848227
-0.0045512272045016
-0.0084097441285848
-0.0117187146097421
-0.0142869167029857
-0.0159850101917982
-0.0167561080306768
-0.016619112342596
-0.0156625304371118
-0.0140298437327146
-0.0119043309241533
-0.0094940513372421
-0.007011042907834
-0.0046477844007313
-0.0025596702471375
-0.0008563385345041
0.0004024885129183
0.0012082192115485
0.001598481554538
0.0016480891499668
0.0014591354411095
0.0011495514772832
0.0008394813630729
0.0006359671242535
0.0006204638630151
0.0008441256359219
0.0013285304885357
0.0020662231836467
0.0030204378999769
0.0041282819584012
0.0053099771030247
0.0064822356216609
0.0075717456638813
0.0085246544331312
0.0093102697283029
0.0099212639033794
0.0103705441579222
0.0106808617711067
0.0108718257397413
0.0109532913193106
0.0109206987544894
0.0107450745999813
0.0103636980056762
0.0096812909469008
0.0085824690759181
0.006951801944524
0.0047010201960802
0.0017991117201745
-0.0017052111215889
-0.0056762089952826
-0.0099006686359643
-0.0141133004799485
-0.0180319417268037
-0.0213933251798152
-0.0239850487560033
-0.0256696343421936
-0.0263928119093179
-0.0261763222515583
-0.0251064784824848
-0.0233246237039566
-0.0210137870162725
-0.0183771960437297
-0.0156155563890933
-0.0129116820171475
-0.0104196453467011
-0.0082525089383125
-0.0064730094745755
-0.0050934813916683
-0.0040825926698744
-0.003373586339876
-0.0028734027873724
-0.0024767352733761
-0.0020847965497523
-0.0016180262900888
-0.0010171078611165
-0.0002418868243694
0.0007259119302034
0.0018819908145815
0.0032026879489421
0.0046472563408315
0.0061602313071489
0.0076794596388936
0.0091460198163986
0.0105077065527439
0.011720404960215
0.0127533208578825
0.0135907530784606
0.0142285749316215
0.0146725364029407
0.0149342864751815
0.0150169981643557
0.0148958191275596
0.0145070496946573
0.0137529419735074
0.012518186122179
0.0106941172853112
0.0082108406350016
0.0050700278952717
0.0013626629952341
-0.0027339223306626
-0.0069749690592288
-0.0110808853060007
-0.0147771425545215
-0.0178272370249032
-0.0200515426695346
-0.0213382430374622
-0.0216514430940151
-0.0210328083485364
-0.0195944514125585
-0.0175039935857057
-0.0149645423516631
-0.0121943056583404
-0.0094054089859128
-0.0067817782983183
-0.0044637834653258
-0.002542451955378
-0.0010559721849858
1.2752600014209747e-05
0.0007279808633029
0.0011817244812846
0.0014757001772522
0.00171151291579
0.0019847638905048
0.0023768604733049
0.0029453132301568
0.003719414351508
0.0047015589661896
0.0058711878955364
0.007191629614681
0.0086151743307709
0.0100829256698489
0.0115256812423467
0.0128732416778802
0.0140700954943895
0.0150862969458103
0.0159162953495979
0.0165687818080186
0.0170556493103504
0.0173843801021575
0.017549680545926
0.017520124092698
0.017225332558155
0.0165557619184255
0.0153785683214664
0.013563297688961
0.0110155772417783
0.0077144876122474
0.0037390508223325
-0.0007281511789187
-0.0054225525818765
-0.0100363288074731
-0.0142604047432541
-0.0178204551339149
-0.0205018538981676
-0.022162277251482
-0.022739103063941
-0.0222561452537775
-0.0208231471478939
-0.018622662872076
-0.0158871971070766
-0.0128717292100191
-0.0098264953121542
-0.0069745406508445
-0.0044949096627533
-0.0025085848756134
-0.0010672998614609
-0.0001507410779595
0.0003234283067286
0.0004793591797351
0.0004615546204149
0.0004172902554273
0.0004797098226845
0.0007516047917306
0.0012958352454006
0.0021337675862014
0.0032476605847477
0.004585092421621
0.0060683684423565
0.0076102223247289
0.0091295428574085
0.0105602648109197
0.0118547435849905
0.0129854185506701
0.0139445830136537
0.0147419087588787
0.0153997018933296
0.0159438140690326
0.0163891222327947
0.0167228654026985
0.0168917775154113
0.0167973041534423
0.0163029208779335
0.0152565827593207
0.0135238785296678
0.0110233332961797
0.0077569065615534
0.0038262903690338
-0.0005704988725483
-0.0051589668728411
-0.0096239363774657
-0.0136551549658179
-0.0169853307306766
-0.019414035603404
-0.0208215117454528
-0.0211745053529739
-0.0205265916883945
-0.0190114472061395
-0.0168248899281024
-0.0141996191814541
-0.011379406787455
-0.0085957208648324
-0.0060471417382359
-0.0038812081329524
-0.0021842429414391
-0.0009833974763751
-0.000252129859291
8.682969928486273e-05
0.0001521606027381
8.274876745417714e-05
1.3292094081407411e-05
5.617743590846658e-05
0.0002926063607446
0.0007719862041994
0.0015129508683457
0.0025006879586726
0.0036863363347947
0.0049972222186625
0.006355055142194
0.0076899197883903
0.0089445989578962
0.0100748231634497
0.0110496655106544
0.0118507537990808
0.0124718444421887
0.0129178958013653
0.0131970653310418
0.0133063588291406
0.0132163856178522
0.0128575274720788
0.0121145155280828
0.0108415773138403
0.0089000780135393
0.0062025180086493
0.0027454928494989
-0.0013714549131691
-0.0059433714486658
-0.01068268250674
-0.0152639169245958
-0.0193712674081325
-0.0227332096546888
-0.0251436121761798
-0.0264776479452848
-0.0267045963555574
-0.0258880518376827
-0.0241697337478399
-0.0217481516301631
-0.0188595298677682
-0.015757905319333
-0.0126916915178298
-0.0098776565864682
-0.0074780168943107
-0.0055865817703306
-0.0042257159948349
-0.0033536625560373
-0.0028776773251593
-0.0026676757261157
-0.0025719567202031
-0.0024385838769376
-0.002137805102393
-0.001577692804858
-0.0007116538472473
0.0004607948940247
0.0018994691781699
0.0035339540336281
0.0052780220285058
0.0070454170927405
0.0087605603039264
0.0103621548041701
0.0118047557771205
0.0130591513589024
0.0141091402620077
0.0149444807320833
0.0155473193153738
0.0158746428787708
0.0158486887812614
0.0153631307184696
0.014304207637906
0.0125798741355538
0.0101496912539005
0.0070511982776224
0.0034134711604565
-0.0005517124664038
-0.0045772492885589
-0.0083747636526823
-0.0116677265614271
-0.0142210684716701
-0.0158652178943157
-0.0165117606520652
-0.0161589682102203
-0.0148872975260019
-0.0128482077270746
-0.0102499788627028
-0.0073358248919248
-0.0043516596779227
-0.0015158671885728
0.0009973223786801
0.0030636314768344
0.0046129841357469
0.0056371921673417
0.0061931125819683
0.0063873836770653
0.0063476944342255
0.0062017515301704
0.006068630144
0.0060509974136948
0.0062236748635768
0.0066232602111995
0.0072467224672436
0.0080600017681717
0.0090093752369284
0.0100321341305971
0.0110661657527089
0.0120580410584807
0.0129691120237112
0.0137756373733282
0.0144616048783063
0.0150069864466786
0.0153710190206766
0.0154761048033833
0.0152086541056633
0.0144405057653784
0.0130556374788284
0.0109740644693374
0.0081757418811321
0.0047206026501953
0.0007558325305581
-0.0034951663110405
-0.0077625354751944
-0.0117689110338687
-0.0152607290074229
-0.0180259384214878
-0.0199083946645259
-0.0208243429660797
-0.0207727402448654
-0.0198342185467481
-0.0181609708815813
-0.0159572884440422
-0.013451843522489
-0.0108695207163691
-0.0084110908210277
-0.0062400884926319
-0.0044693802483379
-0.0031494605354964
-0.002267982577905
-0.0017609202768653
-0.0015278307255357
-0.0014471698086708
-0.0013944657985121
-0.0012620952911674
-0.0009719480294734
-0.000478166854009
0.0002347219269722
0.00115372473374
0.0022387686185538
0.0034277543891221
0.0046494044363498
0.005838147830218
0.00694245332852
0.0079268161207437
0.0087712230160832
0.0094708707183599
0.0100349262356758
0.0104784928262233
0.010806038044393
0.0109917344525456
0.0109664816409349
0.0106205847114324
0.0098228892311453
0.0084492256864905
0.0064132427796721
0.0036949757486581
0.0003608870320022
-0.0034313548821955
-0.0074486746452748
-0.0114165060222148
-0.0150560922920703
-0.0181140601634979
-0.0203861333429813
-0.0217370837926864
-0.0221148803830146
-0.0215570367872715
-0.0201844424009323
-0.0181805063039064
-0.0157631412148475
-0.0131572289392352
-0.010570365935564
-0.0081741800531744
-0.0060923201963305
-0.0043955268338322
-0.0031017148867249
-0.0021784701384603
-0.001550892018713
-0.0011161202564835
-0.0007603303529322
-0.0003757793456315
0.0001238378463312
0.000793284852989
0.0016529316781088
0.0026924461126327
0.0038784500211477
0.0051637887954711
0.0064969910308718
0.0078294649720191
0.0091173630207777
0.0103197731077671
0.0113996276631951
0.0123277008533477
0.0130854649469256
0.013667220249772
0.0140813440084457
0.01434778701514
0.0144892716780304
0.0145146958529949
0.0144020868465304
0.0140919294208288
0.0134913381189107
0.0124868378043174
0.0109675768762826
0.0088553940877318
0.0061320634558796
0.0028582497034221
-0.0008193592075258
-0.0046807322651147
-0.0084654353559017
-0.0119117451831698
-0.014789349399507
-0.0169235505163669
-0.018210157752037
-0.0186201725155115
-0.0181970484554767
-0.0170470532029867
-0.0153227904811501
-0.0132043091580271
-0.0108809610828757
-0.0085359094664454
-0.0063334102742373
-0.0044047720730304
-0.0028354115784168
-0.0016596692148596
-0.0008622778113931
-0.0003837083932012
-0.0001300671137869
1.2498116120696068e-05
0.0001603276468813
0.0004136317875236
0.0008417749777436
0.0014793777372688
0.0023320934269577
0.0033830674365162
0.0045955856330692
0.0059155928902328
0.0072782346978783
0.0086165089160203
0.0098689040169119
0.0109863709658384
0.0119375484064221
0.0127099817618727
0.0133081302046775
0.013750328682363
0.0140632325783371
0.0142721384763717
0.0143919829279184
0.0144218718633055
0.0143400486558675
0.0140986507758498
0.0136200655251741
0.0127987219020724
0.011515961959958
0.0096696503460407
0.0072074653580784
0.0041495850309729
0.0005938312970101
-0.0032930187880992
-0.0072913086041808
-0.0111536905169487
-0.0146381063386797
-0.0175351481884717
-0.0196849033236503
-0.0209893211722373
-0.021419433876872
-0.0210144184529781
-0.0198723711073398
-0.0181360393762588
-0.0159800015389919
-0.0135988593101501
-0.011191957630217
-0.0089440001174807
-0.0070038251578807
-0.0054661706089973
-0.004362478852272
-0.0036644414067268
-0.0032975801732391
-0.0031581218354403
-0.0031290119513869
-0.0030926936306059
-0.0029412889853119
-0.0025878765154629
-0.0019769156351685
-0.0010879093315452
6.713042967021465e-05
0.0014476436190307
0.0029894935432821
0.0046125641092658
0.0062303328886628
0.0077608223073184
0.0091371778398752
0.0103144086897373
0.0112723708152771
0.0120164640247821
0.0125725893303751
0.0129758603870868
0.0132613219320774
0.0134603735059499
0.0135967768728733
0.0136775188148021
0.0136800725013017
0.0135416937991976
0.0131582850590348
0.0123976599425077
0.0111245214939117
0.0092289233580231
0.0066530900076031
0.0034148162230849
-0.000380304409191
-0.0045454083010554
-0.0088342735543847
-0.0129711171612143
-0.0166823901236057
-0.0197252500802278
-0.0219103991985321
-0.0231198463588953
-0.0233190432190895
-0.0225601959973573
-0.0209738370031118
-0.0187502391636371
-0.0161158293485641
-0.0133087392896413
-0.0105550345033407
-0.0080478806048631
-0.0059310561046004
-0.0042859027162194
-0.0031255036592483
-0.0024011139757931
-0.0020156255923211
-0.00183821702376
-0.0017235046252608
-0.0015351241454482
-0.001166139729321
-0.0005493150092661
0.0003426205366849
0.0014991112984716
0.0028756321407854
0.0044049760326743
0.006011348683387
0.0076206517405807
0.0091673284769058
0.0105986399576067
0.011877741664648
0.0129856914281845
0.0139204151928424
0.0146926147863268
0.0153207629919052
0.0158272422850132
0.016234029084444
0.0165578424930572
0.0168098341673612
0.0169961042702198
0.017108678817749
0.0171080529689788
0.0169092454016208
0.0163816511631011
0.0153664806857705
0.0137096615508198
0.0112993707880377
0.0080971522256731
0.0041611064225435
-0.0003432231023907
-0.0051554339006543
-0.0099577698856592
-0.0144235314801335
-0.0182593055069446
-0.0212329421192407
-0.0231881644576787
-0.0240510627627372
-0.0238336622714996
-0.0226329416036605
-0.020620334893465
-0.0180225484073162
-0.0150974970310926
-0.0121066346764564
-0.0092862248420715
-0.0068240938708186
-0.0048428578302264
-0.0033886511810123
-0.0024331626482307
-0.0018904446624219
-0.0016377777792513
-0.0015352233313024
-0.0014454824849963
-0.0012504644691944
-0.0008589895442128
-0.0002102316357195
0.0007209945470094
0.001922896830365
0.003353344509378
0.0049480847083032
0.0066286236979067
0.0083128921687603
0.0099270576611161
0.0114145129919052
0.0127388201653957
0.0138816032558679
0.0148393604904413
0.0156194418668746
0.0162357501685619
0.0167063511908054
0.0170525033026933
0.0172972101718187
0.0174611620604991
0.0175558775663375
0.0175743121653795
0.0174792576581239
0.0171945784240961
0.016605868935585
0.0155741926282644
0.0139614548534154
0.01165965013206
0.0086185447871685
0.0048707020469009
0.0005451771430671
-0.0041405465453863
-0.0089079495519399
-0.0134544521570205
-0.0174908451735973
-0.0207728389650583
-0.0231237262487411
-0.0244457814842462
-0.0247220434248447
-0.0240115839987993
-0.0224398467689752
-0.0201878771185874
-0.0174788944423198
-0.014557403512299
-0.0116642797365784
-0.0090120695531368
-0.0067599550820887
-0.0049944114871323
-0.0037265829741954
-0.0029050346929579
-0.0024330359883606
-0.0021857649553567
-0.0020288338419049
-0.0018373883794993
-0.0015115041751414
-0.000982999568805
-0.0002133253292413
0.0008092907373793
0.002068483736366
0.003520208178088
0.0050975866615772
0.006718301679939
0.0082967849448323
0.0097595257684588
0.0110549852252006
0.0121536515653133
0.0130432015284895
0.0137237114831805
0.014202426187694
0.0144893079996109
0.0145965842530131
0.0145411621779203
0.0143424291163682
0.0140097085386514
0.0135254077613353
0.0128337144851684
0.0118386354297399
0.0104147810488939
0.0084313359111547
0.0057829655706882
0.0024234605953097
-0.0016037221066653
-0.0061495518311858
-0.0109689775854349
-0.0157570540904998
-0.0201961491256952
-0.0239962600171566
-0.0269219726324081
-0.0288078561425209
-0.0295687746256589
-0.0292083472013473
-0.0278204903006553
-0.0255795568227767
-0.0227209515869617
-0.019513826817274
-0.0162282325327396
-0.0131052136421203
-0.0103342030197381
-0.0080370502546429
-0.0062622865661978
-0.0049896612763404
-0.0041421307250857
-0.0036035703960806
-0.0032348926179111
-0.0028873952105641
-0.0024223022628575
-0.0017338402103632
-0.0007628730963915
0.0005032697226852
0.0020390385761857
0.003788546193391
0.0056720897555351
0.0075972154736518
0.009472370147705
0.0112173780798912
0.0127719137817621
0.0141023211181163
0.0152022903785109
0.0160854738205671
0.0167755596339702
0.017299897968769
0.0176832247525453
0.017935961484909
0.0180402435362339
0.0179389994591474
0.0175311621278524
0.0166791286319494
0.0152346044778823
0.0130787966772913
0.0101621588692069
0.0065280674025416
0.0023149892222136
-0.0022573196329176
-0.0069113699719309
-0.0113419443368911
-0.0152495615184307
-0.0183742046356201
-0.0205235444009304
-0.0215887799859046
-0.0215483419597148
-0.0204676855355501
-0.0184956882148981
-0.0158486887812614
-0.0127827050164341
-0.0095636853948235
-0.0064421198330819
-0.003631837433204
-0.0012902049347758
0.0004971590824425
0.0017191440565511
0.0024303356185555
0.0027385943103581
0.0027878279797732
0.0027322201058268
0.002710617147386
0.0028325752355158
0.0031766341999173
0.003790192073211
0.0046846978366374
0.0058349017053842
0.0071860486641526
0.0086616082116961
0.0101735023781657
0.0116383414715528
0.0129902986809611
0.0141845755279064
0.0151949943974614
0.0160114280879497
0.0166405979543924
0.0171051397919654
0.0174356643110513
0.0176589973270893
0.0177863202989101
0.0178014244884252
0.0176496841013431
0.0172317400574684
0.0164075661450624
0.0150161627680063
0.0129098519682884
0.0099911028519272
0.0062423627823591
0.0017465860582888
-0.0033059804700315
-0.0086295921355485
-0.0138755366206169
-0.0186803806573152
-0.0227155666798353
-0.0257248040288686
-0.0275452211499214
-0.0281166434288024
-0.0274820476770401
-0.0257765688002109
-0.0232061110436916
-0.0200229864567518
-0.0165021549910306
-0.0129162054508924
-0.0095101334154605
-0.006479519419372
-0.0039545525796711
-0.0019925683736801
-0.0005816530901938
0.0003469744697213
0.0009044863982126
0.0012286527780815
0.0014629119541496
0.0017343712970614
0.0021393485367298
0.0027370154857635
0.003547181840986
0.0045543471351265
0.0057196384295821
0.006994271185249
0.0083275316283106
0.0096668377518653
0.0109554165974259
0.0121375815942883
0.0131684690713882
0.0140173062682151
0.0146669168025255
0.0151147609576582
0.0153707396239042
0.0154504710808396
0.0153678664937615
0.0151260364800691
0.0147042693570256
0.0140455495566129
0.0130536630749702
0.0116055998951196
0.0095795607194304
0.0068949814885854
0.0035576522350311
-0.0003031026571989
-0.004422640427947
-0.0084239309653639
-0.0118722757324576
-0.0143490433692932
-0.0155195398256182
-0.0151758026331663
-0.0132571775466203
-0.0098531460389494
-0.005185468122363
0.0004245257005095
0.0065916273742914
0.0129013210535049
0.018944676965475
0.0243496000766754
0.0288020651787519
0.0320581905543804
0.0339520499110221
0.034402310848236
0.0334156304597854
0.0310822036117315
0.0275631882250309
0.0230732951313257
0.0178611539304256
0.0121895726770162
0.0063166301697492
0.0004776734858751
-0.0051292795687913
-0.0103514064103364
-0.0150803383439779
-0.0192468948662281
-0.0228193402290344
-0.0258025769144296
-0.0282294396311044
-0.0301484633237123
-0.0316168293356895
-0.0326950848102569
-0.0334399566054344
-0.0339000150561332
-0.0341159887611866
-0.0341220572590827
-0.0339460112154483
-0.0336091518402099
-0.0331288129091262
-0.0325272902846336
-0.0318471379578113
-0.0311672985553741
-0.0306109189987182
-0.030335359275341
-0.0305043421685695
-0.031253345310688
-0.0326573587954044
-0.0347056947648525
-0.0372900441288948
-0.0402082279324531
-0.0431839898228645
-0.0459044352173805
-0.0480655767023563
-0.0494091548025608
-0.0497463792562484
-0.0489723607897758
-0.0470712259411811
-0.0441117770969867
-0.0402374379336833
-0.0356524735689163
-0.0306025519967079
-0.0253493972122669
-0.0201436597853899
-0.0152018591761589
-0.010689178481698
-0.0067063756287097
-0.0032833535224199
-0.0003833454102277
0.0020840782672166
0.0042445436120033
0.0062376521527767
0.0081963650882244
0.0102298744022846
0.0124124344438314
0.014778958633542
0.0173274688422679
0.0200269129127264
0.0228246077895164
0.0256521366536617
0.0284351296722888
0.0311046000570058
0.033602301031351
0.0358817689120769
0.0379100516438484
0.0396701321005821
0.0411615408957004
0.0423976071178913
0.0434014871716499
0.0442011132836341
0.0448226295411586
0.045285377651453
0.0455947928130626
0.045728363096714
0.0456225834786891
0.0451710857450962
0.0442362129688262
0.0426720380783081
0.0403559543192386
0.0372246243059635
0.0333051979541778
0.0287292748689651
0.0237234756350517
0.0185812450945377
0.0136240059509873
0.0091593842953443
0.005445372313261
0.0026646200567483
0.00090953707695
0.0001809392124414
0.0003976505249738
0.0014120899140834
0.0030303932726383
0.0050318483263254
0.007185224443674
0.0092675583437085
0.0110854590311646
0.0124924927949905
0.0134026110172271
0.0138002634048461
0.0137390522286295
0.0133247077465057
0.0126903243362903
0.0119746755808591
0.0113068325445055
0.0107940835878252
0.0105139818042516
0.0105109680444002
0.0107935359701514
0.0113327866420149
0.0120683601126074
0.0129227293655276
0.0138150239363312
0.0146682448685169
0.0154153201729059
0.0160052366554737
0.0164036266505718
0.0165898501873016
0.016555517911911
0.0163051318377256
0.0158584788441658
0.0152518469840288
0.0145327514037489
0.0137450695037841
0.012907238677144
0.0119905732572078
0.0109072141349315
0.0095171462744474
0.0076554827392101
0.005172318778932
0.0019734296947717
-0.0019506970420479
-0.0065122433006763
-0.0115291625261306
-0.0167441293597221
-0.0218549109995365
-0.0265500880777835
-0.030546449124813
-0.0336227044463157
-0.0356413200497627
-0.0365527458488941
-0.036389771848917
-0.0352631509304046
-0.0333527848124504
-0.0308865569531917
-0.0281142517924308
-0.0252827070653438
-0.0226112008094787
-0.0202696844935417
-0.0183631777763366
-0.0169243831187486
-0.0159184001386165
-0.0152601655572652
-0.0148358037695288
-0.0145195424556732
-0.0141884703189134
-0.0137364408001303
-0.0130828442052006
-0.0121776415035128
-0.0110045410692691
-0.0095788724720478
-0.0079404776915907
-0.0061440146528184
-0.0042490642517805
-0.0023154588416218
-0.0004032063297927
0.0014297785237431
0.0031326934695243
0.004665152169764
0.0059988447465002
0.0071205925196409
0.0080346949398517
0.0087603041902184
0.0093248533084988
0.0097536481916904
0.0100520607084035
0.0101842228323221
0.0100613068789243
0.0095491604879498
0.0084947049617767
0.0067621739581227
0.0042687319219112
0.0010132687166333
-0.0029065487906336
-0.0072951889596879
-0.0118799954652786
-0.0163460969924926
-0.0203761346638202
-0.0236873999238014
-0.0260617770254611
-0.0273638665676116
-0.0275482945144176
-0.0266612246632576
-0.0248332060873508
-0.022259846329689
-0.0191764626652002
-0.0158337950706481
-0.0124791171401739
-0.0093412436544895
-0.0066108768805861
-0.0044176937080919
-0.0028157727792859
-0.001781428232789
-0.0012219793861731
-0.0009959402959793
-0.00094078987604
-0.0008985748281702
-0.000733241206035
-0.0003402507281862
0.0003472100943326
0.0013519889907911
0.002652449067682
0.0041941422969102
0.0059051718562841
0.0077045876532793
0.0095080770552158
0.0112378168851137
0.0128315687179565
0.0142450425773859
0.015451231971383
0.0164403729140758
0.0172189082950353
0.0178061835467815
0.0182269345968961
0.0184985622763633
0.0186172220855951
0.0185466147959232
0.0182107202708721
0.0174948927015066
0.0162611175328493
0.0143768675625324
0.0117506068199872
0.0083653656765818
0.0043005379848182
-0.0002663140185177
-0.0050774095579981
-0.0098249837756156
-0.0141869187355041
-0.0178652051836252
-0.020621970295906
-0.022303257137537
-0.0228485204279422
-0.0222909785807132
-0.0207511000335216
-0.0184235293418169
-0.0155560811981558
-0.0124201923608779
-0.009280290454626
-0.0063694980926811
-0.0038687158375978
-0.0018882271833717
-0.0004600335378199
0.0004555508494377
0.0009546647779643
0.0011723085772246
0.0012633397709578
0.0013807509094476
0.0016541767399758
0.0021740940865129
0.0029859342612326
0.0040938165038824
0.0054673431441187
0.0070470310747623
0.0087524689733982
0.0104962084442377
0.0121961012482643
0.0137808164581656
0.0151924937963485
0.0163894332945346
0.0173499472439289
0.0180760826915502
0.0185914225876331
0.0189307276159524
0.0191240031272172
0.0191768147051334
0.0190515145659446
0.0186600070446729
0.0178725607693195
0.0165391508489847
0.0145226763561367
0.01173897087574
0.0081901205703616
0.0039814766496419
-0.000681611476466
-0.0055177444592118
-0.0102083645761013
-0.0144404582679271
-0.0179418213665485
-0.0205054525285959
-0.0220056623220443
-0.022406131029129
-0.0217577535659074
-0.0201882161200046
-0.0178888030350208
-0.0150961745530366
-0.0120658511295914
-0.0090446313843131
-0.0062478804029524
-0.0038427689578384
-0.0019376432755962
-0.0005750380223616
0.0002696487936191
0.0006780482362955
0.000770554121118
0.0006875796243548
0.0005720353219658
0.0005529396003112
0.0007309725042432
0.0011674826964735
0.0018813695060089
0.0028544284868985
0.0040387851186096
0.0053648552857339
0.0067539121955633
0.0081325573846697
0.0094414874911308
0.0106375617906451
0.0116937682032585
0.0125978859141469
0.0133473398163914
0.0139427483081817
0.0143862478435039
0.014683524146676
0.0148388091474771
0.0148366708308458
0.0146207381039857
0.0140839219093322
0.0130786281079053
0.011449210345745
0.0090742353349924
0.0059016915038228
0.0019748066551983
-0.0025550154969096
-0.0074398266151547
-0.0123699940741062
-0.0170179810374975
-0.0210787449032068
-0.024300679564476
-0.0265075545758008
-0.0276122931391
-0.0276209767907857
-0.026626992970705
-0.0247953850775957
-0.0223397929221391
-0.0194987021386623
-0.0165127422660589
-0.0136002786457538
-0.0109363608062267
-0.0086412262171506
-0.0067759784869849
-0.0053427265956997
-0.0042891716584563
-0.0035197751130908
-0.0029144152067601
-0.0023486532736569
-0.0017109389882534
-0.0009155547013506
9.02293249964714e-05
0.0013231867924332
0.0027634687721729
0.0043598739430308
0.0060437605716288
0.0077451560646295
0.0094035705551505
0.0109732002019882
0.0124228512868285
0.0137317785993218
0.0148878144100308
0.0158880688250064
0.0167354103177785
0.0174326226115226
0.0179787129163742
0.0183668360114097
0.0185860227793455
0.0186204835772514
0.0184374675154685
0.0179724264889955
0.0171231497079134
0.0157595127820968
0.013753805309534
0.0110213086009025
0.0075535671785473
0.0034372480586171
-0.0011440441012382
-0.0059280227869749
-0.0106095504015684
-0.0148825896903872
-0.0184763986617326
-0.0211826302111148
-0.0228717103600502
-0.0234979540109634
-0.0230990294367074
-0.0217901244759559
-0.0197489336133003
-0.0171958394348621
-0.0143713047727942
-0.011508235707879
-0.0088086118921637
-0.0064324149861931
-0.0044893864542245
-0.0030272118747234
-0.002026277128607
-0.0014089425094425
-0.0010597453219816
-0.0008496769005432
-0.0006578276515938
-0.0003859308199025
3.5040880902670324e-05
0.0006469131913036
0.0014715564902871
0.0025145295076072
0.0037618367932736
0.0051758773624897
0.0066977711394429
0.0082561774179339
0.009778045117855
0.0111977020278573
0.0124626606702804
0.0135368108749389
0.0144014870747923
0.0150535926222801
0.0155015969648957
0.0157624799758195
0.0158603824675083
0.0158222913742065
0.0156674236059188
0.0153937814757227
0.0149668669328093
0.0143146002665162
0.0133304055780172
0.0118850097060203
0.0098513346165418
0.0071406746283173
0.0037364540621638
-0.0002848459407687
-0.0047511761076748
-0.009413868188858
-0.0139812566339969
-0.0181564576923847
-0.0216733124107122
