bvp
-0.0197462271898984
-0.0163872241973876
-0.0126383705064654
-0.0087813138961792
-0.0050875390879809
-0.0017922488041222
0.0009288173168897
0.0029754051938652
0.0043256399221718
0.0050275544635951
0.0051863566040992
0.004948197863996
0.0044799614697694
0.0039499066770076
0.0035129603929817
0.0032989762257784
0.0034003192558884
0.0038609127514064
0.0046725533902645
0.0057824747636914
0.0071129049174487
0.0085813794285058
0.0101087428629398
0.0116182770580053
0.0130355479195714
0.0142922904342412
0.01533321198076
0.0161233134567737
0.0166506208479404
0.0169206708669662
0.016946043819189
0.0167354177683591
0.0162838716059923
0.0155619625002145
0.0145042911171913
0.013010025024414
0.0109668867662549
0.0082940896973013
0.0049834563396871
0.0011183497263118
-0.0031309251207858
-0.0075239776633679
-0.0117753809317946
-0.0155903585255146
-0.0187034513801336
-0.0209067519754171
-0.0220650900155305
-0.0221217051148414
-0.0210978519171476
-0.0190918650478124
-0.0162764973938465
-0.0128848291933536
-0.0091823497787117
-0.0054364674724638
-0.0018938104622066
0.0012358389794826
0.0037952146958559
0.0056940806098282
0.0069128749892115
0.0074945241212844
0.0075363111682236
0.007181636057794
0.0066020153462886
0.0059722941368818
0.0054483981803059
0.0051539530977606
0.0051740072667598
0.0055477633140981
0.0062641780823469
0.0072674723342061
0.0084683373570442
0.0097577515989542
0.0110209435224533
0.0121496450155973
0.0130575969815254
0.0136955119669437
0.0140528157353401
0.0141475703567266
0.014015894383192
0.0137029401957988
0.0132533516734838
0.0127014014869928
0.0120557434856891
0.0112797934561967
0.0102842282503843
0.008942112326622
0.00711863161996
0.0047035235911607
0.0016413941048085
-0.0020433333702385
-0.0062320427969098
-0.0107121570035815
-0.0151976896449923
-0.0193715877830982
-0.0229339264333248
-0.0256377775222063
-0.0273116398602724
-0.0278740208595991
-0.0273402873426675
-0.0258164443075656
-0.0234780013561248
-0.0205442495644092
-0.0172580517828464
-0.0138686066493391
-0.0106128901243209
-0.007697113789618
-0.0052775968797504
-0.0034424429759383
-0.0022065043449401
-0.001525403233245
-0.0013126352569088
-0.0014496369985863
-0.0017971046036109
-0.0022098342888057
-0.0025517987087368
-0.0027115861885249
-0.0026117456145584
-0.0022079383488744
-0.0014855890767648
-0.0004581053508445
0.0008369038114324
0.0023443503305315
0.0039983713068068
0.0057299369946122
0.0074766869656741
0.0091867120936512
0.0108139393851161
0.0123143270611763
0.0136449318379163
0.0147667452692985
0.0156517475843429
0.0162817947566509
0.016635401174426
0.0166755206882953
0.0163439158350229
0.0155628835782408
0.014249375090003
0.012336490675807
0.0097947176545858
0.0066543947905302
0.0030219631735235
-0.0009233523160219
-0.0049501974135637
-0.0088003138080239
-0.0122116422280669
-0.0149432802572846
-0.016804439947009
-0.0176774822175502
-0.0175279732793569
-0.0164075568318367
-0.0144500099122524
-0.0118536353111267
-0.0088561391457915
-0.0057113412767648
-0.0026662307791411
5.976745160296559e-05
0.0022873091511428
0.0038849553093314
0.0047791297547519
0.0049627483822405
0.004496147390455
0.0035010399296879
0.0021465476602315
0.0006248597055673
-0.0008768099360167
-0.002196431858465
-0.0032059787772595
-0.0038146732840687
-0.003970060031861
-0.0036556969862431
-0.0028865472413599
-0.0017058335943147
-0.0001834217982832
0.001590154482983
0.0035143408458679
0.0054874904453754
0.0074131549336016
0.0092052752152085
0.0107885468751192
0.0120920725166797
0.0130400070920586
0.013543214648962
0.0134997861459851
0.0128097040578722
0.011396300047636
0.00922826025635
0.0063394987955689
0.0028394206892699
-0.0010903028305619
-0.0052125556394457
-0.0092627555131912
-0.0129765886813402
-0.0161113701760768
-0.0184671245515346
-0.0199084393680095
-0.0203802417963743
-0.0199121162295341
-0.0186122618615627
-0.0166540909558534
-0.0142551735043525
-0.0116530824452638
-0.0090847266837954
-0.0067665847018361
-0.0048733800649642
-0.0035192887298762
-0.0027463489677757
-0.0025253291241824
-0.0027687652036547
-0.0033491370268166
-0.0041183456778526
-0.0049234796315431
-0.005614467896521
-0.0060503724962472
-0.006110556423664
-0.0057079065591096
-0.0048014312051236
-0.0034036468714475
-0.0015762466937303
0.0005830111913383
0.0029538529925048
0.0054055829532444
0.0078104166314005
0.0100573468953371
0.0120624415576457
0.0137716783210635
0.0151533186435699
0.0161845590919256
0.0168421529233455
0.0170961376279592
0.0169039815664291
0.0162105299532413
0.0149570005014538
0.0130975591018795
0.0106187043711543
0.007558474317193
0.0040235067717731
0.000196483451873
-0.0036724980454891
-0.0072947363369166
-0.0103873340412974
-0.0127156767994165
-0.0141210928559303
-0.0145319858565926
-0.0139643363654613
-0.0125156370922923
-0.0103487018495798
-0.0076709808781743
-0.0047194422222673
-0.0017449771985411
0.0010119499638676
0.0033473246730864
0.0051129907369613
0.0062308809719979
0.0067005692981183
0.0065936301834881
0.0060379994101822
0.0052004507742822
0.0042650080285966
0.0034068711102008
0.0027723279781639
0.0024678925983607
0.0025524138472974
0.0030342985410243
0.0038810358382761
0.0050359643064439
0.0064302147366106
0.0079868594184517
0.0096228457987308
0.0112533876672387
0.0127990012988448
0.0141934305429458
0.0153900198638439
0.0163648407906293
0.017112486064434
0.017629574984312
0.0178953614085912
0.0178618505597114
0.0174520909786224
0.0165660697966814
0.0150949535891413
0.0129415551200509
0.0100488262251019
0.0064303837716579
0.0021888236515223
-0.0024839269462972
-0.0073231067508459
-0.0120210796594619
-0.0162648744881153
-0.0197735745459795
-0.0223281010985374
-0.0237911008298397
-0.0241185203194618
-0.0233621820807456
-0.0216599702835083
-0.0192159861326217
-0.0162780098617076
-0.0131146870553493
-0.009990831837058
-0.0071402830071747
-0.0047386744990944
-0.0028835199773311
-0.0015891105867922
-0.0007960377261042
-0.0003910065279342
-0.0002338293124921
-0.0001835669972933
-0.0001142394030466
7.726083276793361e-05
0.0004660662962123
0.0010982056846842
0.0019884011708199
0.00311577366665
0.0044294418767094
0.0058633470907807
0.0073447367176413
0.0087948087602853
0.0101326880976557
0.0112849986180663
0.0121961263939738
0.0128357727080583
0.0131997615098953
0.0133033748716115
0.0131728090345859
0.0128357829526066
0.0123068280518054
0.0115705970674753
0.0105753652751445
0.0092430859804153
0.0074888570234179
0.0052419211715459
0.0024707624688744
-0.0007902616634964
-0.0044293166138231
-0.0082679968327283
-0.0120836654677987
-0.0156321115791797
-0.0186709109693765
-0.0209866799414157
-0.0224214885383844
-0.0228907279670238
-0.0223888158798217
-0.0209845565259456
-0.0188106782734394
-0.0160488411784172
-0.0129115656018257
-0.009625781327486
-0.0064183548092842
-0.003499235259369
-0.0010417657904326
0.000832833815366
0.0020607530605047
0.0026381970383226
0.0026272707618772
0.0021511712111532
0.0013711082283407
0.0004600975662469
-0.0004141877871006
-0.0011009031441062
-0.0014791791327297
-0.0014731740811839
-0.0010606391588225
-0.0002683331258594
0.0008413235191255
0.0021825809963047
0.0036538771819323
0.0051453430205583
0.0065534133464097
0.0078014736063778
0.0088522862643003
0.0097010387107729
0.0103580439463257
0.0108358981087803
0.0111429337412118
0.0112748751416802
0.0112003646790981
0.0108478069305419
0.0101058799773454
0.0088447295129299
0.0069519146345555
0.0043690758757293
0.0011210860684514
-0.0026700864546
-0.0067954706028103
-0.0109897684305906
-0.0149683021008968
-0.0184575617313385
-0.0212190244346857
-0.0230712965130805
-0.0239077489823102
-0.0237052328884601
-0.0225231852382421
-0.0204961467534303
-0.0178216323256492
-0.0147370835766196
-0.0114894993603229
-0.0083138840273022
-0.0054211225360631
-0.0029829880222678
-0.0011127184843644
0.0001495773904025
0.000837642874103
0.0010448090033605
0.0009046946652233
0.0005734318401664
0.0002102248836308
-4.173559136688709e-05
-6.740656681358814e-05
0.0002160898875445
0.000857735518366
0.0018672773148864
0.0032131990883499
0.0048315795138478
0.0066388207487761
0.0085424054414033
0.010448707267642
0.0122670009732246
0.0139158889651298
0.0153341135010123
0.0164821743965148
0.0173249244689941
0.0178067497909069
0.0178375132381916
0.0172978229820728
0.0160627290606498
0.0140365101397037
0.0111883478239178
0.0075756763108074
0.0033474192023277
-0.0012700171209871
-0.0059967162087559
-0.0105254175141453
-0.0145503906533122
-0.0178007110953331
-0.0200704429298639
-0.0212381612509489
-0.0212742760777473
-0.0202401243150234
-0.0182793121784925
-0.0155993439257144
-0.0124481655657291
-0.0090883076190948
-0.0057699526660144
-0.0027087768539786
-6.936676800251007e-05
0.0020488766022026
0.0036182035692036
0.0046753361821174
0.0053069172427058
0.0056356233544647
0.0058049182407557
0.0059570516459643
0.0062077520415186
0.0066324169747531
0.0072706500068306
0.0081347990781068
0.0092085869982838
0.0104429442435503
0.0117617454379796
0.0130743542686104
0.0142861688509583
0.0153087582439184
0.0160730518400669
0.0165403336286544
0.0167037956416606
0.0165779422968626
0.0161770433187484
0.0154904425144195
0.0144669078290462
0.0130182020366191
0.0110437739640474
0.008464740589261
0.005252540577203
0.0014481809921562
-0.0028267868328839
-0.007369446568191
-0.0119102885946631
-0.0161452237516641
-0.0197742786258459
-0.0225350074470043
-0.024228885769844
-0.0247402470558881
-0.0240475498139858
-0.0222287476062774
-0.0194553434848785
-0.0159684680402278
-0.012044571340084
-0.0079658366739749
-0.0039987824857234
-0.0003768014721572
0.002715322189033
0.0051564136520028
0.0068983887322247
0.0079615395516157
0.0084176771342754
0.008371946401894
0.0079513592645525
0.0072980565018951
0.006558293942362
0.0058647636324167
0.005322178825736
0.0050049200654029
0.0049616759642958
0.005216599907726
0.0057659465819597
0.006577250547707
0.0075938175432384
0.00874082185328
0.0099329929798841
0.0110863540321588
0.0121303284540772
0.0130164455622434
0.0137231592088937
0.0142503725364804
0.0145975574851036
0.01473627705127
0.0145956166088581
0.0140653988346457
0.0130114452913403
0.011301776394248
0.0088427476584911
0.0056148041039705
0.0016966965049505
-0.0027300789952278
-0.0074009578675031
-0.0120037589222192
-0.0162170492112636
-0.0197465270757675
-0.0223573725670576
-0.0239004716277122
-0.0243285279721021
-0.0236957427114248
-0.0221430119127035
-0.0198765359818935
-0.0171433053910732
-0.014205016195774
-0.0113151427358388
-0.0086996490135788
-0.0065338467247784
-0.0049209580756723
-0.0038875683676451
-0.0033931913785636
-0.0033441050909459
-0.0036080447025597
-0.0040286662988364
-0.0044412072747945
-0.0046883570030331
-0.0046362187713384
-0.0041910158470273
-0.0033086934126913
-0.0019903078209608
-0.0002705152146518
0.0017871968448162
0.0040905475616455
0.0065278373658657
0.0089843990281224
0.0113522727042436
0.0135367680341005
0.0154682146385312
0.0171081535518169
0.0184435434639453
0.01947932690382
0.0202334225177764
0.0207282472401857
0.0209747813642025
0.0209544263780117
0.0206091403961181
0.019841281697154
0.0185226555913686
0.0165181159973144
0.0137210525572299
0.0100898686796426
0.0056745642796158
0.0006260308437049
-0.0048112696968019
-0.0103209922090172
-0.0155506152659654
-0.0201546549797058
-0.0238353051245212
-0.0263742916285991
-0.0276511013507843
-0.0276480130851268
-0.0264480449259281
-0.0242228247225284
-0.0212063770741224
-0.0176662169396877
-0.0138817438855767
-0.0101243611425161
-0.0066342391073703
-0.00360087165609
-0.0011512109776958
0.0006585425580851
0.0018447898328304
0.0024877004325389
0.0027135335840284
0.002669941401109
0.0025005051866173
0.0023315649013966
0.0022711427882313
0.0024057044647634
0.0027908890042454
0.0034432606771588
0.0043376344256103
0.0054114060476422
0.0065772263333201
0.0077412612736225
0.0088191237300634
0.0097450269386172
0.010473377071321
0.0109748095273971
0.0112353721633553
0.0112600792199373
0.0110735585913062
0.0107193458825349
0.0102566257119178
0.0097474912181496
0.009243169799447
0.008781274780631
0.0083848126232624
0.0080484487116336
0.0077197863720357
0.007292513269931
0.0066149989143013
0.0055124298669397
0.0038221185095608
0.0014343429356813
-0.0016731191426515
-0.0054161180742084
-0.0096087846904993
-0.0139882946386933
-0.0182485170662403
-0.0220785960555076
-0.0252029970288276
-0.0274140536785125
-0.0285882037132978
-0.0286855213344097
-0.027744673192501
-0.0258804187178611
-0.0232745632529258
-0.0201560445129871
-0.0167759414762258
-0.0133797582238912
-0.0101831564679741
-0.0073595819994807
-0.0050345296040177
-0.0032766945660114
-0.0020890932064503
-0.0014105003792792
-0.0011279080063104
-0.0010914534796029
-0.0011312197893857
-0.0010802315082401
-0.0007972242310643
-0.0001827701926231
0.000808963086456
0.0021666679531335
0.0038332361727952
0.0057258522137999
0.0077544343657791
0.0098305828869342
0.0118648698553442
0.013767322525382
0.0154631789773702
0.0169115476310253
0.0181076619774103
0.0190661642700433
0.019803661853075
0.0203357879072427
0.0206829719245433
0.0208742320537567
0.0209444053471088
0.0209252927452325
0.0208367761224508
0.0206807237118482
0.0204336028546094
0.0200346447527408
0.0193756055086851
0.0183051638305187
0.016653262078762
0.0142693072557449
0.0110630076378583
0.0070349108427762
0.0022894176654517
-0.0029687047936022
-0.0084501877427101
-0.0138091146945953
-0.018684821203351
-0.0227481182664632
-0.0257368963211774
-0.0274820365011692
-0.0279266908764839
-0.0271294210106134
-0.0252465642988681
-0.0225033462047576
-0.0191660448908805
-0.0155160278081893
-0.0118227479979395
-0.008323086425662
-0.0052075376734137
-0.0026054214686155
-0.0005781406653113
0.0008708753157407
0.0017849901923909
0.0022506490349769
0.0023891017772257
0.002339715603739
0.0022390221711248
0.0022004407364875
0.0023045670241117
0.0025997285265475
0.003104991512373
0.0038140153046697
0.0047014714218676
0.005732427816838
0.0068677295930683
0.0080620059743523
0.0092633496969938
0.0104178208857774
0.011473573744297
0.0123831089586019
0.0131052089855074
0.0136089529842138
0.013879214413464
0.0139179369434714
0.0137382270768284
0.013357556425035
0.0127969551831483
0.0120828915387392
0.0112443137913942
0.0103013860061764
0.0092473560944199
0.0080322166904807
0.0065612937323749
0.0047142459079623
0.0023774961009621
-0.0005197273567318
-0.003972906153649
-0.0078836735337972
-0.0120664173737168
-0.0162758827209472
-0.0202384553849697
-0.0236795805394649
-0.0263517573475837
-0.0280625112354755
-0.0286971312016248
-0.0282368343323469
-0.0267665069550275
-0.0244602560997009
-0.0215509813278913
-0.0182985533028841
-0.0149631556123495
-0.0117850610986351
-0.0089673586189746
-0.0066603170707821
-0.0049486816860735
-0.0038437996990978
-0.0032869921997189
-0.0031667554285377
-0.0033404263667762
-0.0036492915824055
-0.0039287623949348
-0.0040215151384472
-0.0037959786131978
-0.0031647738069295
-0.0020942983683198
-0.0006058707367628
0.001228914479725
0.003304072888568
0.0055008642375469
0.0077006816864013
0.0097906924784183
0.0116731077432632
0.0132774896919727
0.0145664848387241
0.0155327022075653
0.0161918606609106
0.0165761541575193
0.016730535775423
0.0167080853134393
0.0165593028068542
0.0163228213787078
0.0160244219005107
0.0156769454479217
0.0152740301564335
0.0147815039381384
0.0141323218122124
0.0132268238812685
0.0119383158162236
0.0101275714114308
0.0076748151332139
0.0045251827687025
0.000721572432667
-0.0035925433039665
-0.0081913210451602
-0.0127922277897596
-0.0170869771391153
-0.0207778811454772
-0.0236113294959068
-0.0254023876041173
-0.0260513592511415
-0.0255509968847036
-0.0239850543439388
-0.021519374102354
-0.0183818731456995
-0.0148339997977018
-0.0111434618011116
-0.0075604226440191
-0.0042965933680534
-0.0015129439998418
0.0006872066296637
0.0022646435536444
0.0032442009542137
0.003707873634994
0.00378133286722
0.0036100880242884
0.0033362009562551
0.0030889015179127
0.0029816962778568
0.00310182524845
0.0034970096312463
0.0041735433042049
0.00510497065261
0.0062408195808529
0.0075115826912224
0.0088350661098957
0.0101270582526922
0.011313596740365
0.0123399663716554
0.0131717212498188
0.0137904733419418
0.0141913117840886
0.014384176582098
0.0143933352082967
0.0142494905740022
0.013982318341732
0.013617075048387
0.0131687056273221
0.0126325031742453
0.0119718061760067
0.0111090606078505
0.0099344570189714
0.0083327544853091
0.0062132659368216
0.0035320213064551
0.0003063275944441
-0.0033767083659768
-0.0073592057451605
-0.0114223938435316
-0.0153111033141613
-0.0187672600150108
-0.0215595941990613
-0.0235051289200782
-0.0244855247437953
-0.0244577694684267
-0.0234539303928613
-0.0215702820569276
-0.0189556442201137
-0.0158026330173015
-0.0123344240710139
-0.008785892277956
-0.0053844656795263
-0.0023327567614614
0.0002066779416054
0.002125674393028
0.0033826015423983
0.0040072500705718
0.0040957010351121
0.0037926582153886
0.0032623936422169
0.0026599154807627
0.0021154878195375
0.0017313270363956
0.0015784476418048
0.0016927369870245
0.0020775385200977
0.0027092308737337
0.0035408991388976
0.0045102653093636
0.0055548129603266
0.0066233025863766
0.007675427943468
0.0086782798171043
0.0096088871359825
0.0104564372450113
0.0112192220985889
0.0119030214846134
0.0125220343470573
0.0130950072780251
0.0136349713429808
0.0141395796090364
0.0145886801183223
0.0149483503773808
0.0151750445365905
0.0152143668383359
0.0149957099929451
0.0144293662160635
0.0134077910333871
0.0118119586259126
0.0095311235636472
0.0064941998571157
0.0027002221904695
-0.0017582995351403
-0.0066882111132144
-0.0118139637634158
-0.0168136488646268
-0.0213573090732097
-0.0251402594149112
-0.0279141329228878
-0.0295147653669118
-0.0298766549676656
-0.029031403362751
-0.0270990412682294
-0.024274555966258
-0.0208049956709146
-0.0169621482491493
-0.0130217000842094
-0.0092495661228895
-0.0058858571574091
-0.0031201995443552
-0.0010668872855603
0.0002455804497003
0.000869303708896
0.0009236587211489
0.0005767799448221
2.3814616724848747e-05
-0.0005359179340302
-0.0009234780445694
-0.0010033161379396
-0.0006954511627554
2.596108242869377e-05
0.0011389460414648
0.0025794834364205
0.0042504929006099
0.006036577746272
0.0078214788809418
0.0095029566437006
0.010999547317624
0.0122507568448781
0.0132220480591058
0.0139138353988528
0.0143581014126539
0.0146018862724304
0.014694070443511
0.0146807543933391
0.0146031500771641
0.0144960135221481
0.0143864378333091
0.0142909428104758
0.0142108490690588
0.0141289979219436
0.0140073327347636
0.0137808416038751
0.0133510418236255
0.0125902984291315
0.0113606704398989
0.0095380125567317
0.0070358808152377
0.0038314054254442
-1.207459717988968e-05
-0.0043381666764616
-0.0089130382984876
-0.0134535487741231
-0.0176564268767833
-0.0212322976440191
-0.0239426977932453
-0.0256246477365493
-0.0261981412768363
-0.025666220113635
-0.0241135116666555
-0.0217024963349103
-0.0186659339815378
-0.0152908209711313
-0.0118884267285466
-0.0087557043880224
-0.0061433929949998
-0.0042346147820353
-0.0031260449904948
-0.0028155872132629
-0.0032084418926388
-0.0041421111673116
-0.005417626351118
-0.0068226242437958
-0.0081440489739179
-0.0091812293976545
-0.0097667602822184
-0.0097888335585594
-0.009202254936099
-0.0080210771411657
-0.0062992959283292
-0.0041142595000565
-0.0015606246888637
0.0012503499165177
0.0041958228684961
0.0071501489728689
0.0099914101883769
0.0126098087057471
0.0149202961474657
0.0168687179684638
0.0184271968901157
0.0195894055068492
0.0203713942319154
0.0208115968853235
0.0209637302905321
0.0208808667957782
0.0205941777676343
0.020093971863389
0.0193228553980588
0.0181872174143791
0.0165790319442749
0.0144006237387657
0.0115950936451554
0.0081747472286224
0.0042331796139478
-5.897483788430691e-05
-0.0044661373831331
-0.0087097203359007
-0.0125049706548452
-0.0155996512621641
-0.0177986323833465
-0.0189800690859556
-0.019109196960926
-0.0182395558804273
-0.0165002029389143
-0.0140764024108648
-0.0111852996051311
-0.0080527206882834
-0.0048966309987008
-0.0019128625281155
0.0007390705868601
0.0029464706312865
0.0046480372548103
0.0058337566442787
0.0065402169711887
0.0068413102999329
0.006837542168796
0.006646241992712
0.0063909366726875
0.0061849914491176
0.0061129750683903
0.0062208413146436
0.0065163546241819
0.0069781159982085
0.0075714574195444
0.0082614123821258
0.0090194335207343
0.0098271081224083
0.0106746619567275
0.01155521068722
0.0124586690217256
0.0133663760498166
0.0142519976943731
0.0150893749669194
0.0158538054674863
0.0165142491459846
0.0170309878885746
0.0173579528927803
0.0174356177449226
0.0171776581555604
0.0164673626422882
0.015169309452176
0.0131514193490147
0.0103151127696037
0.0066315187141299
0.0021704183891415
-0.002895176410675
-0.0083072539418935
-0.0137513801455497
-0.0188938528299331
-0.0234234575182199
-0.0270859785377979
-0.0297064557671546
-0.0311972014605999
-0.0315528735518455
-0.0308433063328266
-0.0292084701359272
-0.0268467180430889
-0.0239924769848585
-0.0208899583667516
-0.0177690703421831
-0.0148251075297594
-0.0122024565935134
-0.0099860904738307
-0.0082059074193239
-0.0068494612351059
-0.0058723203837871
-0.0052038584835827
-0.0047541982494294
-0.0044237691909074
-0.0041140727698802
-0.0037395139224827
-0.0032342982012778
-0.0025517591275274
-0.0016642374685034
-0.0005658690351992
0.0007279536221176
0.0021892448421567
0.0037902521435171
0.0055081909522414
0.0073194853030145
0.009192744269967
0.0110847456380724
0.0129403695464134
0.0146968550980091
0.0162870418280363
0.0176332890987396
0.0186329241842031
0.0191520228981971
0.0190373416990041
0.0181374195963144
0.0163279101252555
0.0135408639907836
0.0097886733710765
0.0051769595593214
-9.185262024402618e-05
-0.005729011259973
-0.0113896457478404
-0.0167162455618381
-0.0213834457099437
-0.0251357778906822
-0.0278117172420024
-0.0293505005538463
-0.0297854375094175
-0.0292303189635276
-0.0278625003993511
-0.0259024184197187
-0.0235899146646261
-0.021158643066883
-0.0188098326325416
-0.0166913494467735
-0.0148880518972873
-0.0134239858016371
-0.0122732846066355
-0.0113710183650255
-0.0106188263744115
-0.009893249720335
-0.0090625789016485
-0.0080064618960022
-0.0066329007968306
-0.0048910230398178
-0.0027749650180339
-0.0003170501440763
0.0024230037815868
0.0053686746396124
0.0084379035979509
0.011551578529179
0.0146367819979786
0.0176291912794113
0.0204767156392335
0.0231383591890335
0.0255768559873104
0.0277542863041162
0.0296315662562847
0.0311628933995962
0.032282892614603
0.0328945703804492
0.0328688509762287
0.0320595577359199
0.0303318463265895
0.0275975111871957
0.0238474868237972
0.0191751234233379
0.0137822031974792
0.0079612508416175
0.0020618054550141
-0.0035484372638165
-0.0085260160267353
-0.0125913433730602
-0.0155527293682098
-0.017312915995717
-0.0178670939058065
-0.0172995422035455
-0.015777476131916
-0.0135353794321417
-0.010849411599338
-0.0080077806487679
-0.0052812406793236
-0.0028986688703298
-0.0010306818876415
0.0002201525494456
0.0008224439807236
0.0008126287721097
0.0002869360614567
-0.0006106838118284
-0.0017075042705982
-0.0028263507410883
-0.0038040471263229
-0.0045037362724542
-0.0048313867300748
-0.004750404972583
-0.0042798900976777
-0.0034773864317685
-0.0024189450778067
-0.001185705885291
0.0001447550021111
0.0015065311454236
0.0028493113350123
0.0041349120438098
0.005332913249731
0.0064216218888759
0.00738723622635
0.0082116443663835
0.0088550765067338
0.0092468038201332
0.0092863356694579
0.0088507374748587
0.0078085819259285
0.0060438998043537
0.0034891846589744
0.0001588481245562
-0.0038301884196698
-0.0082581434398889
-0.0128212431445717
-0.017168391495943
-0.0209502279758453
-0.0238670315593481
-0.025703627616167
-0.0263474807143211
-0.0257897712290287
-0.0241113454103469
-0.0214628018438816
-0.0180482696741819
-0.0141128841787576
-0.0099288197234272
-0.0057743182405829
-0.0019069742411375
0.0014620712026953
0.004188276361674
0.006203940603882
0.0075188484042882
0.0082132350653409
0.008421566337347
0.0083086574450135
0.0080441143363714
0.0077832266688346
0.0076579945161938
0.0077714631333947
0.0081891408190131
0.0089318817481398
0.0099770715460181
0.011267608962953
0.0127224642783403
0.014248770661652
0.0157583765685558
0.017180111259222
0.0184614583849906
0.019566923379898
0.0204779282212257
0.0211908854544162
0.0217104163020849
0.0220392905175685
0.0221668723970651
0.0220564566552639
0.0216360427439212
0.0207997132092714
0.0194234549999237
0.0173927769064903
0.0146320359781384
0.0111270043998956
0.0069375894963741
0.0021996484138071
-0.0028799569699913
-0.008036240004003
-0.0129735590890049
-0.0174001920968294
-0.0210580322891473
-0.0237460173666477
-0.0253376811742782
-0.025788452476263
-0.0251305792480707
-0.0234627127647399
-0.0209408681839704
-0.0177686046808958
-0.0141823124140501
-0.0104311732575297
-0.0067554917186498
-0.0033658856991678
-0.0004221324343234
0.0019828188233077
0.003823644015938
0.0051300106570124
0.0059725474566221
0.0064542032778263
0.0067000621929764
0.0068369405344128
0.0069729313254356
0.0071924668736755
0.0075625237077474
0.0081347012892365
0.008935478515923
0.0099524008110165
0.0111313546076416
0.0123875411227345
0.013620788231492
0.0147283822298049
0.0156164811924099
0.0162141360342502
0.0164847392588853
0.0164242684841156
0.0160485282540321
0.015380285680294
0.0144385863095521
0.0132250925526022
0.0117093101143836
0.0098257167264819
0.0074901152402162
0.0046262564137578
0.0011928435415029
-0.0027928864583373
-0.0072393505834043
-0.0119757084175944
-0.0167620033025741
-0.0213177576661109
-0.0253607034683227
-0.028640728443861
-0.0309637747704982
-0.0322092957794666
-0.0323398783802986
-0.0313991010189056
-0.0295023191720247
-0.02682676166296
-0.0235981903970241
-0.0200697891414165
-0.0164958704262971
-0.013104879297316
-0.010076381266117
-0.0075278440490365
-0.0055113239213824
-0.0040158093906939
-0.0029713683761656
-0.0022560083307325
-0.0017147796461358
-0.0011915072100237
-0.0005564230959862
0.0002827332355082
0.0013832373078912
0.0027701396029442
0.0044316118583083
0.0063167084008455
0.008343948982656
0.0104153016582131
0.0124305663630366
0.0143001833930611
0.0159520916640758
0.0173333901911973
0.0184113904833793
0.0191695988178253
0.0195921659469604
0.0196455605328083
0.0192707665264606
0.0183889716863632
0.0169174931943416
0.0147890336811542
0.0119731659069657
0.0084999809041619
0.0044716922566294
5.821418017148972e-05
-0.0045131747610867
-0.0089776273816823
-0.0130640976130962
-0.0165241435170173
-0.019148651510477
-0.0207805372774601
-0.0213345251977443
-0.0208179391920566
-0.0193358082324266
-0.0170740615576505
-0.0142698241397738
-0.0111807007342576
-0.0080581968650221
-0.0051267463713884
-0.0025687282904982
-0.0005130772478878
0.0009755855426192
0.001903430558741
0.0023414269089698
0.0024074367247521
0.0022437707521021
0.0019956631585955
0.0017929603345692
0.0017343857325613
0.0018745870329439
0.0022207973524928
0.0027444278821349
0.0034001106396317
0.0041389423422515
0.004910874646157
0.0056654098443686
0.006359766703099
0.006967335473746
0.0074761342257261
0.0078775407746434
0.0081494441255927
0.0082392059266567
0.0080556226894259
0.0074772220104932
0.0063766012899577
0.0046546780504286
0.0022746250033378
-0.0007172250188887
-0.0041889357380568
-0.0079340916126966
-0.0116944555193185
-0.0151920272037386
-0.0181606300175189
-0.02037182636559
-0.0216559804975986
-0.0219190046191215
-0.0211545675992965
-0.0194469131529331
-0.0169594623148441
-0.0139120919629931
-0.0105555737391114
-0.0071493815630674
-0.0039406535215675
-0.0011395048350095
0.0011047139996662
0.0027152847032994
0.0036855828948318
0.0040703527629375
0.003973560873419
0.0035306250210851
0.002893220167607
0.0022191933821886
0.0016564317047595
0.0013221263652667
0.0012907634954899
0.001593196298927
0.0022206355351954
0.0031333544757217
0.0042738784104585
0.0055766343139112
0.0069712717086076
0.0083839260041713
0.0097374841570854
0.0109499553218483
0.0119312433525919
0.0125807728618383
0.0127880442887544
0.0124395554885268
0.0114374998956918
0.00972580909729
0.0073096249252557
0.0042623844929039
0.000726934755221
-0.0030875711236149
-0.0069223176687955
-0.0105012813583016
-0.0135649070143699
-0.0158936474472284
-0.017325822263956
-0.0177736468613147
-0.017231423407793
-0.0157733038067817
-0.013544606976211
-0.0107472166419029
-0.0076182791963219
-0.0044045983813703
-0.0013405308127403
0.0013673400972038
0.0035580587573349
0.0051365243270993
0.006084113381803
0.0064571578986942
0.0063767936080694
0.0060095032677054
0.0055379047989845
0.0051295976154506
0.0049157114699482
0.0049816537648439
0.0053652268834412
0.0060611236840486
0.0070318202488124
0.0082200802862644
0.009557569399476
0.010967681184411
0.0123670483008027
0.0136714596301317
0.0148031804710626
0.0156923942267894
0.0162699371576309
0.0164542812854051
0.0161430295556783
0.0152218779549002
0.0135927153751254
0.0112056154757738
0.0080804917961359
0.0043183546513319
0.0001043426454998
-0.0043032658286392
-0.0086044371128082
-0.0125013142824172
-0.0157367140054702
-0.0181168913841247
-0.0195196773856878
-0.0198970921337604
-0.0192791633307933
-0.0177717022597789
-0.0155409583821892
-0.0127936042845249
-0.0097604170441627
-0.0066772908903658
-0.0037584204692393
-0.0011722433846443
0.0009669663850218
0.0025941552594304
0.0036908111069351
0.0042922119610011
0.0044884751550853
0.0044052274897694
0.0041782017797231
0.0039382860995829
0.0038035220932215
0.0038701242301613
0.0042001423425972
0.0048085264861583
0.0056626233272254
0.0067014098167419
0.0078562274575233
0.0090585965663194
0.010244664736092
0.0113600604236125
0.0123558472841978
0.0131755284965038
0.0137419672682881
0.013950552791357
0.0136745814234018
0.0127843432128429
0.0111727137118577
0.0087829772382974
0.0056352880783379
0.0018394597573205
-0.0024113187100738
-0.0068586654961109
-0.011205967515707
-0.0151514867320656
-0.0184194147586822
-0.0207852255553007
-0.0220960993319749
-0.0222863033413887
-0.021385621279478
-0.0195159707218408
-0.0168726053088903
-0.0136946476995944
-0.0102361245080828
-0.0067451810464262
-0.0034507650416344
-0.0005491350311785
0.0018155263969674
0.0035688590724021
0.0047099734656512
0.0053016999736428
0.0054564522579312
0.0053186020813882
0.0050424523651599
0.0047731194645166
0.0046334234066307
0.0047136112116277
0.0050652637146413
0.0057002319954335
0.0065918378531932
0.0076808035373687
0.0088899563997983
0.0101399514824152
0.0113558527082204
0.0124668469652533
0.0134021714329719
0.0140809351578354
0.0144018922001123
0.014245880767703
0.0134923094883561
0.0120413303375244
0.0098349172621965
0.0068737231194972
0.0032324674539268
-0.0009286652784794
-0.0053699184209108
-0.0097972443327307
-0.0138962650671601
-0.0173691939562559
-0.0199694484472274
-0.0215259604156017
-0.021956680342555
-0.0212741084396839
-0.0195800624787807
-0.0170505754649639
-0.0139172915369272
-0.0104447677731513
-0.0069037405773997
-0.003547305939719
-0.0005908325547352
0.0018069696379825
0.0035587875172495
0.0046563372015953
0.0051684072241187
0.0052253413014113
0.0049917576834559
0.004636947531253
0.0043121413327753
0.0041368277743458
0.0041919779032468
0.0045166672207415
0.0051071159541606
0.0059252441860735
0.0069156936369836
0.0080151902511715
0.0091524608433246
0.0102536706253886
0.0112546598538756
0.0121063562110066
0.0127669228240847
0.0131891621276736
0.0133111467584967
0.0130493473261594
0.0122993374243378
0.0109509145841002
0.0089133121073246
0.0061440248973667
0.0026747216470539
-0.0013729934580624
-0.0057848459109663
-0.0102714775130152
-0.0145103549584746
-0.0181939601898193
-0.0210641846060752
-0.022934041917324
-0.0237026680260896
-0.0233599040657281
-0.0219797026365995
-0.0197084806859493
-0.0167516265064477
-0.0133562749251723
-0.0097887348383665
-0.0063108569011092
-0.0031576687470078
-0.0005118673434481
0.0015183114446699
0.0029016928747296
0.003671892452985
0.0039186966605484
0.0037819270510226
0.0034356615506112
0.003061503637582
0.0028178575448691
0.0028168961871415
0.0031178803183138
0.0037326195742934
0.0046351207420229
0.0057710516266524
0.0070650484412908
0.0084283528849482
0.0097688259556889
0.0110018802806735
0.0120602147653698
0.012899862602353
0.0135003868490457
0.013861771672964
0.014004573225975
0.0139701040461659
0.0138097302988171
0.0135659407824277
0.013254745863378
0.0128481648862361
0.0122618125751614
0.0113611435517668
0.0099843256175518
0.0079755447804927
0.0052272398024797
0.0017202775925397
-0.0024536158889532
-0.0070963623002171
-0.0119306212291121
-0.0166352279484272
-0.020882349461317
-0.0243758000433444
-0.0268840491771698
-0.0282617267221212
-0.0284587107598781
-0.0275183729827404
-0.0255676191300153
-0.0228001456707716
-0.0194558091461658
-0.0158005803823471
-0.0121063394472002
-0.0086260847747325
-0.0055661769583821
-0.0030667148530483
-0.0011963478755205
4.4469255954027176e-05
0.0007153556216508
0.0009232474258169
0.0008088822942227
0.0005326565587893
0.0002565502654761
0.0001245620660483
0.0002488596364855
0.000701738288626
0.0015087598003447
0.0026492567267268
0.0040675182826817
0.0056830318644642
0.0073984852060675
0.009113760665059
0.0107406442984938
0.0122106270864605
0.0134755838662385
0.0145030710846185
0.0152725996449589
0.0157778989523649
0.0160319656133651
0.0160687509924173
0.0159378517419099
0.0156933795660734
0.0153811778873205
0.015028266236186
0.0146347386762499
0.0141634019091725
0.0135301714763045
0.012607904151082
0.0112447431311011
0.0092909727245569
0.0066365418024361
0.00325029483065
-0.0007994957268238
-0.005344278179109
-0.0101273655891418
-0.0148354396224021
-0.0191423911601305
-0.0227477792650461
-0.0254093799740076
-0.0269694477319717
-0.0273668132722377
-0.0266347154974937
-0.0248903091996908
-0.0223197359591722
-0.0191574338823556
-0.0156623851507902
-0.0120973121374845
-0.0087099922820925
-0.0057143829762935
-0.003271210938692
-0.001469625160098
-0.000317039899528
0.0002555244136601
0.000374834286049
0.0002032616175711
-8.337339386343956e-05
-0.0003189360722899
-0.0003659408539533
-0.0001261476427316
0.0004538223147392
0.0013790426310151
0.00260986154899
0.0040749968029558
0.0056868232786655
0.0073545332998037
0.0089955134317278
0.0105409063398838
0.0119345476850867
0.0131334904581308
0.0141124725341796
0.0148658975958824
0.0154058914631605
0.0157563351094722
0.0159427560865879
0.0159863661974668
0.0159073192626237
0.0157280378043651
0.0154666732996702
0.0151234986260533
0.0146682411432266
0.0140307545661926
0.0130970366299152
0.0117204328998923
0.0097546242177486
0.0070961783640086
0.0037205049302428
-0.0002948713954538
-0.0047679021954536
-0.0094354646280407
-0.0139910075813531
-0.0181219428777694
-0.0215426553040742
-0.0240247510373592
-0.0254235193133354
-0.0256915185600519
-0.0248736478388309
-0.0230929981917142
-0.0205360390245914
-0.0174340866506099
-0.0140411835163831
-0.0106153702363371
-0.0073998188599944
-0.0045970706269145
-0.0023441405501216
-0.0006993440911173
0.0003539144527167
0.0008894524071365
0.0010189486201852
0.0008755170274525
0.0005983768496662
0.0003231647424399
0.0001765007618814
0.0002640003804117
0.000652773771435
0.0013638033997267
0.0023800902999937
0.0036575160920619
0.0051310821436345
0.0067242849618196
0.0083588156849145
0.0099564623087644
0.0114410230889916
0.0127475522458553
0.0138318035751581
0.0146744176745414
0.0152824949473142
0.0156844109296798
0.0159145481884479
0.0159999709576368
0.0159588903188705
0.0158055890351533
0.0155520504340529
0.0152010694146156
0.0147324139252305
0.0140901785343885
0.0131797585636377
0.0118778999894857
0.0100555010139942
0.0076094949617981
0.0044957059435546
0.0007521542720496
-0.0034924480132758
-0.0080249719321727
-0.0125698037445545
-0.016824210062623
-0.0204976722598075
-0.023345723748207
-0.0251941066235303
-0.0259523130953311
-0.0256186667829751
-0.0242780894041061
-0.0220916457474231
-0.0192773193120956
-0.0160829182714223
-0.0127598093822598
-0.0095442347228527
-0.0066406936384737
-0.0042054532095789
-0.0023355339653789
-0.0010640263790264
-0.0003624280216172
-0.0001502992818132
-0.000307238777168
-0.0006833502557128
-0.0011116259265691
-0.0014304486103355
-0.0015114757698029
-0.001274189678952
-0.0006823728326708
0.0002632688265293
0.0015270294388756
0.0030419891700148
0.0047236555255949
0.0064837168902158
0.0082334829494357
0.0098873730748891
0.0113735301420092
0.0126405982300639
0.0136570278555154
0.0144095718860626
0.014902776107192
0.0151585591956973
0.0152126988396048
0.015104972757399
0.0148700224235653
0.014535536058247
0.0141198728233575
0.0136222979053854
0.0130122015252709
0.0122230453416705
0.0111514553427696
0.0096665136516094
0.0076354551129043
0.0049621411599218
0.0016224468126893
-0.0023181133437901
-0.0067039402201771
-0.0112993763759732
-0.015809716656804
-0.0199164357036352
-0.0233212634921073
-0.0257856864482164
-0.027156988158822
-0.0273789204657077
-0.026487736031413
-0.0245993994176387
-0.0218953415751457
-0.0186083447188138
-0.0150033626705408
-0.0113496063277125
-0.0078930081799626
-0.0048382198438048
-0.002335192868486
-0.0004672373179346
0.0007530654547736
0.0013782186433672
0.0015153997810557
0.0013132817111909
0.0009431259240955
0.0005774579476565
0.0003739474341273
0.0004608915187418
0.0009204815141856
0.0017799260094761
0.0030169705860316
0.0045714462175965
0.0063564628362655
0.0082727465778589
0.0102225141599774
0.0121147092431783
0.0138667682185769
