bvp
0.0028884513303637
0.0035733939148485
0.0043069384992122
0.005048647057265
0.0057629011571407
0.0064189787954092
0.0069886595010757
0.0074467649683356
0.0077769625931978
0.0079770507290959
0.0080590788275003
0.0080425776541233
0.0079449117183685
0.0077775293029844
0.0075443293899297
0.0072335605509579
0.0068133790045976
0.0062431534752249
0.0054876883514225
0.0045203217305243
0.0033249964471906
0.0019050053087994
0.0002896452788263
-0.0014653229154646
-0.0032797290477901
-0.0050523863174021
-0.0066672647371888
-0.0080024898052215
-0.0089425835758447
-0.0093971537426114
-0.0093222437426447
-0.0087313847616314
-0.0076920753344893
-0.0063153048977255
-0.0047404672950506
-0.0031134351156651
-0.0015611525159329
-0.0001665228919591
0.0010525314137339
0.0021506419871002
0.0032418735790997
0.0044708224013447
0.0059823836199939
0.007898929528892
0.0102998260408639
0.0132033145055174
0.0165686532855033
0.0203216653317213
0.0243807770311832
0.0286730378866195
0.0331431254744529
0.0377515405416488
0.0424650311470031
0.0472438372671604
0.0520239248871803
0.0567062869668006
0.0611641108989715
0.0652568787336349
0.0688388496637344
0.0717610418796539
0.0738735496997833
0.0750334039330482
0.0751131176948547
0.0740015506744384
0.0716008841991424
0.0678289756178855
0.0626279488205909
0.0559762641787529
0.0479053035378456
0.038518376648426
0.0280001163482666
0.0166058763861656
0.0046377852559089
-0.0075756162405014
-0.0196936912834644
-0.0313835330307483
-0.0423436872661113
-0.0523195043206214
-0.0611115023493766
-0.0685840621590614
-0.0746730715036392
-0.0793880969285965
-0.0828099399805069
-0.0850844085216522
-0.0864059925079345
-0.0869925767183303
-0.0870633870363235
-0.0868211761116981
-0.0864333063364029
-0.0860174447298049
-0.0856353938579559
-0.085292711853981
-0.0849476754665374
-0.0845303833484649
-0.0839606076478958
-0.0831559598445892
-0.0820387974381446
-0.0805502980947494
-0.0786643028259277
-0.0763898789882659
-0.0737630277872085
-0.0708370357751846
-0.0676752552390098
-0.0643422976136207
-0.0608943961560726
-0.0573742240667343
-0.0538081154227256
-0.050196997821331
-0.0465022698044776
-0.0426428094506263
-0.0385167524218559
-0.0340442098677158
-0.0292128305882215
-0.02410270832479
-0.0188744012266397
-0.0137281259521842
-0.0088619217276573
-0.00444514490664
-0.0006016930565237
0.0026038363575935
0.0051723271608352
0.0071610817685723
0.0086641674861311
0.0097928186878561
0.0106595391407608
0.0113688092678785
0.0120160654187202
0.0126889664679765
0.0134660582989454
0.0144134368747472
0.0155780967324972
0.0169790890067815
0.0186026897281408
0.0204038321971893
0.0223142802715301
0.024255646392703
0.026150980964303
0.0279332511126995
0.0295509099960327
0.0309688188135623
0.0321663543581962
0.0331371799111366
0.0338899344205856
0.0344453565776348
0.0348314307630062
0.0350785963237285
0.0352129638195037
0.0352523997426033
0.0352118462324142
0.0351118259131908
0.0349789783358573
0.0348393209278583
0.0347128212451934
0.0346119552850723
0.034543789923191
0.0345139652490615
0.0345270410180091
0.03458022326231
0.0346534475684165
0.0346992462873458
0.0346350669860839
0.0343449488282203
0.0336942858994007
0.0325513109564781
0.0308115296065807
0.0284266136586666
0.0254281796514987
0.0219326354563236
0.0181292667984962
0.0142577867954969
0.0105778761208057
0.0073385313153266
0.0047507584095001
0.0029636099934577
0.0020514577627182
0.0020151287317276
0.0027869679033756
0.0042357072234153
0.0061792954802513
0.0084062553942203
0.0106980241835117
0.012854004278779
0.0147163085639476
0.0161815453320741
0.0172026101499795
0.0177876614034175
0.0179898850619792
0.0178900621831417
0.0175818391144275
0.0171598345041275
0.0167119838297367
0.0163183379918336
0.0160489026457071
0.0159554183483123
0.0160633716732263
0.0163707844913005
0.0168528668582439
0.0174688715487718
0.0181683003902435
0.0188965424895286
0.0196000523865222
0.0202281586825847
0.0207325890660285
0.0210653934627771
0.0211713761091232
0.0209789890795946
0.020400796085596
0.0193477105349302
0.0177480932325124
0.015561819076538
0.0127928331494331
0.009504210203886
0.0058269519358873
0.0019533606246113
-0.0018838103860616
-0.0054392609745264
-0.0084822913631796
-0.0108192088082432
-0.0123138511553406
-0.0129065522924065
-0.0126223023980855
-0.0115620326250791
-0.0098845902830362
-0.0077879880554974
-0.0054908148013055
-0.0032145665027201
-0.0011667422950267
0.0004790024831891
0.0016044778749346
0.0021622916683554
0.0021785756107419
0.0017410586588084
0.00097724981606
3.428896889090538e-05
-0.000938345270697
-0.0018112333491444
-0.0024959805887192
-0.0029489065054804
-0.0031589758582413
-0.0031361195724457
-0.002906686393544
-0.0025121869985014
-0.0020074490457773
-0.00145512400195
-0.0009168302640318
-0.0004480443894863
-0.0001010354608297
7.003452628850937e-05
2.779066562652588e-06
-0.0003814175724983
-0.001173086464405
-0.0024533662945032
-0.0042702620849013
-0.0066222883760929
-0.0094495490193367
-0.0126291941851377
-0.015979653224349
-0.0192826390266418
-0.0223128758370876
-0.0248581264168024
-0.0267341770231723
-0.0278059020638465
-0.0280066169798374
-0.027344861999154
-0.0259022414684295
-0.0238249823451042
-0.0213088206946849
-0.0185804367065429
-0.015872897580266
-0.0133940922096371
-0.0112971095368266
-0.0096632670611143
-0.008502660319209
-0.007768630515784
-0.0073787337169051
-0.0072327558882534
-0.0072224852629005
-0.007240392267704
-0.0071909995749592
-0.0069979201070964
-0.0066065653227269
-0.0059877443127334
-0.0051398258656263
-0.0040864986367523
-0.0028727706521749
-0.0015603471547365
-0.0002188477665185
0.0010850680992007
0.0022879187017679
0.0033164881169795
0.004078752361238
0.0044681346043944
0.0043751150369644
0.0037047397345304
0.0023992778733372
0.0004563126713037
-0.0020620264112949
-0.0050262543372809
-0.0082446346059441
-0.0114796925336122
-0.0144763775169849
-0.0169952921569347
-0.0188417248427867
-0.0198823288083076
-0.0200471375137567
-0.0193283483386039
-0.0177845135331153
-0.0155422855168581
-0.0127874203026294
-0.0097443535923957
-0.0066463858820497
-0.0037057576701045
-0.0010944544337689
0.001066003460437
0.0027117822319269
0.0038398094475269
0.0045035080984234
0.0048011252656579
0.0048587759956717
0.0048086177557706
0.0047649247571825
0.0048083611764013
0.0049856435507535
0.0053193420171737
0.0058171460404992
0.0064746299758553
0.0072738486342132
0.0081829987466335
0.0091565130278468
0.0101351644843816
0.0110490843653678
0.0118202911689877
0.0123632065951824
0.0125882253050804
0.0124058332294225
0.0117304064333438
0.0104950657114386
0.0086777005344629
0.0063203345052897
0.0035323742777109
0.0004810099489986
-0.0026292090769857
-0.0055820033885538
-0.0081707797944545
-0.0102166607975959
-0.0115864463150501
-0.0122050587087869
-0.0120596000924706
-0.011198142543435
-0.0097219524905085
-0.0077709620818495
-0.0055108293890953
-0.0031225478742271
-0.0007836129516363
0.0013577698264271
0.0031980227213352
0.0046761771664023
0.0057664127089083
0.006475924514234
0.0068459305912256
0.0069492487236857
0.0068802745081484
0.0067386720329523
0.0066137523390352
0.0065731313079595
0.0066549386829137
0.0068667512387037
0.0071937567554414
0.0076113031245768
0.0080938786268234
0.0086141237989068
0.0091367708519101
0.0096209738403558
0.0100308526307344
0.0103392405435442
0.0105174016207456
0.0105220209807157
0.0102924136444926
0.0097581353038549
0.0088508743792772
0.0075158127583563
0.0057234093546867
0.0034830467775464
0.0008524544537067
-0.0020605041645467
-0.0051021231338381
-0.0080844275653362
-0.0108046000823378
-0.013069624081254
-0.0147212333977222
-0.0156580917537212
-0.0158498473465442
-0.0153348250314593
-0.0142073258757591
-0.0126046808436512
-0.0106904674321413
-0.008634403347969
-0.0065968018025159
-0.0047161481343209
-0.0030981849413365
-0.0018102079629898
-0.0008798451162874
-0.0002961559221148
-1.433398574590683e-05
3.445474430918693e-05
-6.92242756485939e-05
-0.0002423264086246
-0.000404201913625
-0.0004819827154278
-0.0004197843372821
-0.0001876261085271
0.0002158302813768
0.0007681008428335
0.001431155949831
0.0021599098108708
0.0029110768809914
0.0036481525748968
0.0043403995223343
0.0049603446386754
0.0054814773611724
0.00587820680812
0.0061300746165215
0.0062241670675575
0.0061480607837438
0.0058763278648257
0.0053632846102118
0.0045494479127228
0.003375285770744
0.0017958953976631
-0.0001985658891499
-0.0025628572329878
-0.005194644909352
-0.0079469922930002
-0.0106422249227762
-0.0130892880260944
-0.0151084577664732
-0.0165557414293289
-0.0173367634415626
-0.0174108706414699
-0.0167917609214782
-0.0155455702915787
-0.0137860868126153
-0.0116668445989489
-0.0093669658526778
-0.0070698545314371
-0.0049412110820412
-0.0031128204427659
-0.0016683844150975
-0.0006318934028968
3.0235209123929963e-05
0.0003925201890524
0.0005491228075698
0.000595849007368
0.0006202604272402
0.0006951544783078
0.0008706363150849
0.001173781347461
0.0016167392022907
0.0022008388768881
0.0029157719109207
0.0037387013435363
0.0046340879052877
0.0055575417354702
0.0064614089205861
0.0072980979457497
0.0080265142023563
0.0086200721561908
0.0090685654431581
0.009375836700201
0.009555822238326
0.009627821855247
0.0096132718026638
0.00953019130975
0.0093832649290561
0.0091566313058137
0.0088130068033933
0.0082945916801691
0.0075265681371092
0.0064304238185286
0.0049443780444562
0.0030409162864089
0.0007394801359623
-0.0018843996804207
-0.0046988171525299
-0.0075282929465174
-0.0101777398958802
-0.0124628916382789
-0.0142355430871248
-0.0153934173285961
-0.0158815719187259
-0.0156938303261995
-0.0148717798292636
-0.0135022420436143
-0.0117163145914673
-0.0096807330846786
-0.0075724092312157
-0.0055497554130852
-0.0037374556995928
-0.0022194408811628
-0.0010351371020078
-0.0001827436499297
0.0003746463917195
0.0007023862563073
0.0008833007887005
0.0010057892650365
0.0011546555906534
0.0014018355868756
0.0017973170615732
0.0023629516363143
0.0030907155014574
0.003949022386223
0.0048948400653898
0.0058829826302826
0.0068692509084939
0.0078118108212947
0.0086753759533166
0.0094341831281781
0.0100711276754736
0.0105772605165839
0.0109519464895129
0.0112034063786268
0.0113488249480724
0.0114106321707367
0.0114087155088782
0.0113517148420214
0.011234488338232
0.0110409669578075
0.0107401749119162
0.0102780582383275
0.0095777064561843
0.0085473228245973
0.0070956703275442
0.0051576509140431
0.0027226516976952
-0.0001460332423448
-0.0033121928572654
-0.0065880725160241
-0.0097590424120426
-0.0126029103994369
-0.0149113545194268
-0.0165159292519092
-0.0173115655779838
-0.0172675922513008
-0.0164234340190887
-0.0148795628920197
-0.0127894319593906
-0.0103440675884485
-0.0077482471242547
-0.0052000470459461
-0.0028755757957696
-0.0009123682975769
0.0006018681451678
0.001629845239222
0.0021855626255273
0.0023380224592983
0.002203875221312
0.0019261566922068
0.0016515934839844
0.001512037590146
0.0016101887449622
0.0020121242851018
0.0027426453307271
0.0037802709266543
0.0050603011623024
0.0064907371997833
0.0079712960869073
0.0094060497358441
0.0107125593349337
0.0118304891511797
0.0127245895564556
0.013383712619543
0.0138205243274569
0.0140635818243026
0.0141406552866101
0.0140715511515736
0.0138764400035142
0.0135806389153003
0.0132050476968288
0.0127552207559347
0.0122166685760021
0.011549973860383
0.010686308145523
0.0095307314768433
0.0079774763435125
0.0059379311278462
0.0033736010082066
0.0003183430526405
-0.003117746207863
-0.0067574121057987
-0.0103731369599699
-0.0137127116322517
-0.0165331810712814
-0.0186341796070337
-0.0198779813945293
-0.0201943665742874
-0.0195818189531564
-0.0181135144084692
-0.0159389339387416
-0.0132691515609622
-0.0103510459885001
-0.0074398717842996
-0.0047708572819828
-0.002531970385462
-0.000844394788146
0.0002465369179844
0.0007707253098487
0.0008235094137489
0.0005493150092661
0.000119399279356
-0.0002983757294714
-0.0005667684599757
-0.0005880524404346
-0.0003001317381858
0.0003247335553169
0.0012758439406752
0.0025023405905812
0.0039200102910399
0.0054272208362817
0.006924757733941
0.0083288634195923
0.0095726735889911
0.0106056127697229
0.011399483308196
0.0119524942710995
0.0122818918898701
0.0124153047800064
0.0123880710452795
0.0122369574382901
0.0119866766035556
0.0116366669535636
0.0111518362537026
0.0104579851031303
0.0094470484182238
0.0079961419105529
0.0059992563910782
0.0034053046256303
0.000247633550316
-0.0033474543597549
-0.007172827143222
-0.0109661063179373
-0.0144427493214607
-0.0173349753022193
-0.019429113715887
-0.0205885097384452
-0.0207601096481084
-0.0199719462543725
-0.018326848745346
-0.0159925874322652
-0.0131854824721813
-0.0101481396704912
-0.007124254014343
-0.004333377815783
-0.0019492149585857
-8.301727939397097e-05
0.0012254778994247
0.0020075384527444
0.0023557769600301
0.0024036969989538
0.0022971050348132
0.0021694931201636
0.0021301095839589
0.0022602218668907
0.002609590999782
0.0031930985860526
0.0039924117736518
0.0049640238285064
0.0060520586557686
0.007200030144304
0.0083514731377363
0.0094453897327184
0.0104209352284669
0.0112257879227399
0.0118203731253743
0.0121830850839614
0.0123168583959341
0.0122502660378813
0.012030191719532
0.0117092877626419
0.0113341752439737
0.010937275364995
0.0105310622602701
0.010105924680829
0.0096308505162596
0.0090503096580505
0.0082771386951208
0.0071910279802978
0.0056544970721006
0.0035486239939928
0.0008127093315124
-0.0025299224071204
-0.0063649741932749
-0.0104979528114199
-0.0146763976663351
-0.01861541159451
-0.0220276117324829
-0.0246586315333843
-0.0263208374381065
-0.0269163623452186
-0.0264412015676498
-0.0249759145081043
-0.0226773098111152
-0.0197650734335184
-0.0164956171065568
-0.0131357060745358
-0.0099407220259308
-0.0071291709318757
-0.0048544285818934
-0.0031864766497164
-0.0021136340219527
-0.0015595101285725
-0.0014022386167198
-0.0014899844536557
-0.0016578834038227
-0.0017503782873973
-0.0016405850183218
-0.0012420825660228
-0.0005173631943762
0.0005208069924265
0.0018190566916018
0.0032993229106068
0.0048752948641777
0.0064631169661879
0.0079837115481495
0.0093644754961133
0.0105483839288353
0.0115030165761709
0.0122176716104149
0.0126945748925209
0.012946618720889
0.0130004473030567
0.01289445720613
0.0126699851825833
0.0123658701777458
0.0120168402791023
0.0116465967148542
0.0112573159858584
0.0108210016041994
0.0102712549269199
0.0095002874732017
0.0083728767931461
0.0067579681053757
0.0045651942491531
0.0017707939259707
-0.0015718592330813
-0.0053304131142795
-0.0093009583652019
-0.0132285906001925
-0.016835892572999
-0.0198560152202844
-0.022068478167057
-0.023327212780714
-0.0235711857676506
-0.0228205770254135
-0.0211689434945583
-0.0187750458717346
-0.0158479064702987
-0.0126242274418473
-0.0093471631407737
-0.0062480773776769
-0.0035245178733021
-0.0013167061842978
0.0003066768404096
0.0013497981708496
0.0018794897478073
0.0020064844284206
0.0018677049083635
0.0016122864326462
0.0013851996045559
0.0013099876232445
0.0014747559325769
0.00192381744273
0.0026579680852591
0.0036404128186404
0.00480542704463
0.006071203853935
0.0073543610051274
0.0085828378796577
0.0097057307139039
0.0106955179944634
0.0115388911217451
0.0122232940047979
0.0127326045185327
0.0130531033501029
0.0131812877953052
0.0131291113793849
0.0129235098138451
0.0125985872000455
0.0121875163167715
0.0117206834256649
0.011223517358303
0.0107068084180355
0.0101519860327243
0.0095004737377166
0.0086549296975135
0.0074928631074726
0.0058942497707903
0.0037790471687912
0.0011374829337
-0.0019592749886214
-0.00536575820297
-0.0088775753974914
-0.0122528485953807
-0.0152395367622375
-0.0176037438213825
-0.0191552191972732
-0.0197710394859313
-0.0194162428379058
-0.0181523561477661
-0.0161260198801755
-0.0135417282581329
-0.0106289228424429
-0.0076124677434563
-0.0046930806711316
-0.0020384551025927
0.0002215758431702
0.0020012801978737
0.0032654730603098
0.004030514974147
0.0043554431758821
0.0043288944289088
0.0040619457140564
0.003683584742248
0.0033248891122639
0.0030923946760594
0.0030483927112072
0.0032098018564283
0.0035614364314824
0.0040711527690291
0.0046977400779724
0.0053925933316349
0.0061021568253636
0.0067732976749539
0.0073568997904658
0.0078108515590429
0.0081071089953184
0.0082369102165102
0.0082070650532841
0.0080328453332185
0.0077342134900391
0.0073325582779943
0.0068474211730062
0.0062965801917016
0.0056934207677841
0.0050345659255981
0.0042865760624408
0.0033850800246
0.0022450378164649
0.0007761474698781
-0.0010970686562359
-0.0034160232171416
-0.0061712432652711
-0.0092836711555719
-0.0125982780009508
-0.0159050337970256
-0.0189735852181911
-0.0215820334851741
-0.0235393065959215
-0.0247051902115345
-0.0250017773360013
-0.024414200335741
-0.0229904912412166
-0.0208432748913764
-0.0181414522230625
-0.0150887016206979
-0.0119014754891395
-0.0087910564616322
-0.0059455535374581
-0.003513753414154
-0.0015940013108775
-0.0002281831111758
0.0006019279826432
0.0009726991411298
0.0010028542019426
0.0008322296198457
0.0006060407031327
0.000458188354969
0.0004919646307826
0.0007686116732656
0.0013078534975647
0.0020949630998075
0.0030880412086844
0.0042247800156474
0.0054320562630891
0.0066383490338921
0.0077828215435147
0.0088164443150162
0.009699972346425
0.0104046687483787
0.0109140556305646
0.0112224044278264
0.011329174041748
0.0112333726137876
0.0109285349026322
0.010394805110991
0.0095931878313422
0.0084702987223863
0.0069743487983942
0.0050766482017934
0.0027870116755366
0.0001572370529174
-0.0027184716891497
-0.0057007526047527
-0.0086078522726893
-0.0112320268526673
-0.0133677432313561
-0.0148401502519845
-0.0155246648937463
-0.0153580028563737
-0.0143445525318384
-0.0125582329928874
-0.0101355258375406
-0.0072595765814185
-0.0041403686627745
-0.0009955172426998
0.0019674315117299
0.0045719351619482
0.0066953590139746
0.0082799065858125
0.0093264561146497
0.0098831756040453
0.0100358827039599
0.0098964339122176
0.0095884734764695
0.0092338435351848
0.0089390212669968
0.0087825031951069
0.0088097993284463
0.0090353963896632
0.0094475839287042
0.0100189335644245
0.010717736557126
0.0115105118602514
0.0123608689755201
0.0132314655929803
0.0140823740512132
0.0148692205548286
0.0155514571815729
0.0161002539098262
0.0164977461099624
0.0167359765619039
0.01681256480515
0.0167169030755758
0.0164170935750007
0.0158553030341863
0.0149478903040289
0.0135925393551588
0.0116874184459447
0.0091578904539346
0.005983387120068
0.0022203240077942
-0.0019818812143057
-0.0063806073740124
-0.0106669776141643
-0.0145124420523643
-0.0176160428673028
-0.0197446439415216
-0.0207601878792047
-0.0206243079155683
-0.0193843226879835
-0.0171568039804697
-0.0141170965507626
-0.0104912314563989
-0.0065441243350505
-0.0025617175269871
0.0011715919245034
0.0044003562070429
0.0069253295660018
0.0086200833320617
0.0094381598755717
0.0094148162752389
0.0086577031761407
0.0073274099268019
0.00561557803303
0.0037237061187624
0.0018448662012815
0.0001486768014729
-0.0012307297438383
-0.0022017704322934
-0.0027194749563932
-0.0027894666418433
-0.002467231824994
-0.0018458687700331
-0.001035557128489
-0.0001469566486775
0.0007156976498663
0.0014592986553907
0.002009960822761
0.0023208344355225
0.0023755636066198
0.0021824175491929
0.0017590671777725
0.00111691839993
0.0002489313483238
-0.0008752010762691
-0.0023010708391666
-0.0040766210295259
-0.0062382197938859
-0.0087896510958671
-0.0116822477430105
-0.0148080270737409
-0.0180055946111679
-0.0210801064968109
-0.0238331854343414
-0.0260857045650482
-0.0276902262121438
-0.0285424590110778
-0.0285895485430955
-0.0278337597846984
-0.0263378638774156
-0.0242256447672843
-0.0216655228286981
-0.0188448540866374
-0.0159499365836381
-0.0131529998034238
-0.0106008248403668
-0.0084030665457248
-0.0066227307543158
-0.0052712610922753
-0.0043101315386593
-0.0036622434854507
-0.0032277298159897
-0.0028972835280001
-0.0025656786747276
-0.0021433508954942
-0.0015604752115905
-0.0007686512544751
0.0002531204372644
0.0014930390752851
0.0029100119136273
0.0044462825171649
0.0060418150387704
0.0076411496847867
0.0091916378587484
0.0106415580958127
0.0119448639452457
0.0130684645846486
0.0139935044571757
0.01471359282732
0.0152320321649312
0.0155521463602781
0.0156676284968853
0.0155583210289478
0.0151853347197175
0.014491225592792
0.0134130595251917
0.0119004268199205
0.00993088260293
0.0075273877009749
0.0047776470892131
0.0018379008397459
-0.0010898718610405
-0.0037923958152532
-0.0060752145946025
-0.0077848080545663
-0.0088173020631074
-0.0091161839663982
-0.0086706327274441
-0.0075171440839767
-0.0057432297617197
-0.0034905485808849
-0.0009490670636296
0.0016647009178996
0.0041416808962821
0.0063076191581785
0.0080352444201707
0.0092526851221919
0.0099484007805585
0.0101674301549792
0.0100032286718487
0.0095843579620122
0.0090540954843163
0.0085481256246566
0.0081760110333561
0.0080103129148483
0.0080852042883634
0.0084005231037735
0.0089262770488858
0.0096099721267819
0.010386767797172
0.0111885629594326
0.0119544006884098
0.0126401800662279
0.0132186440750956
0.0136706512421369
0.0139763075858354
0.0141122248023748
0.0140555836260318
0.0137893920764327
0.0133055243641138
0.0126014053821563
0.0116690658032894
0.0104859769344329
0.0090134860947728
0.0072063812986016
0.0050362478941679
0.0025174659676849
-0.0002788305282592
-0.0032260078005492
-0.006153801921755
-0.0088688116520643
-0.0111825708299875
-0.0129362288862466
-0.0140124196186661
-0.0143436025828123
-0.013924921862781
-0.012820852920413
-0.0111556705087423
-0.0090940967202186
-0.0068219187669456
-0.0045270826667547
-0.0023824211675673
-0.0005334435845725
0.0009109935490414
0.0018869664054363
0.0023836458567529
0.0024470849893987
0.0021684085950255
0.0016624460695311
0.0010556743945926
0.0004787112120538
4.737102426588535e-05
-0.0001592505723237
-0.000105635728687
0.0002072136849164
0.0007502641528844
0.0014721411280333
0.002305366564542
0.0031748889014124
0.0040090992115437
0.0047513688914477
0.0053655011579394
0.005832499358803
0.0061454595997929
0.0063065327703952
0.0063227955251932
0.0061991093680262
0.0059294211678206
0.0054888124577701
0.0048273270949721
0.0038706874474883
0.0025358414277434
0.0007576392963528
-0.0014873603358864
-0.0041663073934614
-0.0071824472397565
-0.0103766405954957
-0.0135415755212306
-0.0164467580616474
-0.0188695676624774
-0.0206259097903966
-0.0215937625616788
-0.0217259861528873
-0.0210521947592496
-0.0196673683822155
-0.0177112463861703
-0.0153530780225992
-0.0127820037305355
-0.0101918056607246
-0.0077604819089174
-0.0056294579990208
-0.0038898806087672
-0.0025847172364592
-0.0017187080811709
-0.0012616356834769
-0.0011466268915683
-0.0012753554619848
-0.001533914823085
-0.001810340443626
-0.0020044744014739
-0.0020309586543589
-0.0018245377577841
-0.0013516616309061
-0.0006170644192025
0.0003409744240343
0.0014590383507311
0.002657625125721
0.0038517117500305
0.0049619521014392
0.0059260185807943
0.0067065074108541
0.0072910930030047
0.0076879104599356
0.007921865209937
0.0080274790525436
0.008032914251089
0.0079430937767028
0.0077307377941906
0.0073361862450838
0.0066746743395924
0.0056509766727685
0.004183798097074
0.002232905011624
-0.0001839674077928
-0.0029820939525961
-0.0060068750753998
-0.0090495888143777
-0.0118820816278457
-0.0142913311719894
-0.0161000620573759
-0.0171794481575489
-0.0174616854637861
-0.0169452130794525
-0.0156903434544801
-0.0138120185583829
-0.0114683164283633
-0.0088441055268049
-0.0061340839602053
-0.0035248203203082
-0.0011758876498788
0.0007954094326123
0.0023205433972179
0.0033746915869414
0.003968312870711
0.0041494066826999
0.0040106736123561
0.0036820601671934
0.003307806327939
0.0030232537537813
0.0029390051495283
0.0031291055493056
0.0036225751973688
0.0044047725386917
0.0054276809096336
0.0066201081499457
0.0078957006335258
0.0091600362211465
0.0103182792663574
0.011289095506072
0.0120230186730623
0.012511545792222
0.0127784833312034
0.0128624700009822
0.0128044867888093
0.012642883695662
0.0124119073152542
0.0121354646980762
0.0118087129667401
0.0113786552101373
0.0107451248914003
0.0097874691709876
0.008400441147387
0.0065199867822229
0.0041376636363565
0.0013112298911437
-0.0018307822756469
-0.0050972257740795
-0.0082580279558897
-0.0110773593187332
-0.0133447870612144
-0.0148998843505978
-0.0156485214829444
-0.0155674442648887
-0.014699600636959
-0.013144395314157
-0.0110463174059987
-0.0085879806429147
-0.0059813549742102
-0.0034431852400302
-0.0011627965141087
0.0007171011529862
0.0021050544455647
0.0029650493524968
0.0033233328722417
0.0032650390639901
0.0029161584097892
0.0024213560391217
0.0019247878808528
0.0015526667702943
0.0013980818912386
0.0015134855639189
0.0019128995481878
0.0025778876151889
0.0034611914306879
0.0044909208081662
0.0055819265544414
0.00665183365345
0.0076327179558575
0.0084756286814808
0.0091510796919465
0.0096469493582844
0.0099627384915947
0.0101022338494658
0.010071818716824
0.0098853651434183
0.0095658851787447
0.0091413762420415
0.0086386781185865
0.0080694211646914
0.0074107339605689
0.0066003259271383
0.0055520078167319
0.0041783959604799
0.0024109352380037
0.0002200887538492
-0.0023648892529308
-0.0052490145899355
-0.008279507048428
-0.0112606203183531
-0.0139769073575735
-0.0162237435579299
-0.0178343039005994
-0.018697652965784
-0.0187684167176485
-0.0180695559829473
-0.0166890174150466
-0.0147677278146147
-0.0124805346131324
-0.0100165251642465
-0.0075621362775564
-0.0052881487645208
-0.0033371513709425
-0.0018065944314002
-0.0007353613618761
-0.0001062641676981
0.0001408395764883
9.832464274950324e-05
-0.0001176920632133
-0.0003810526104643
-0.0005763060762546
-0.0006170665146782
-0.000451509229606
-5.988022894598544e-05
0.0005491492920555
0.0013452952262014
0.002284538000822
0.003315663896501
0.0043877488933503
0.0054547218605875
0.0064723324030637
0.0073935058899223
0.0081708906218409
0.0087672704830765
0.009164897724986
0.0093656973913311
0.0093860561028122
0.0092534003779292
0.0090035386383533
0.0086734583601355
0.0082913264632225
0.0078688468784093
0.0073950076475739
0.0068321218714118
0.0061187874525785
0.0051786350086331
0.0039341156370937
0.0023258083965629
0.0003308861050754
-0.0020244214683771
-0.0046601714566349
-0.0074475286528468
-0.0102199716493487
-0.0127878487110137
-0.0149575462564826
-0.0165560245513916
-0.0174556747078895
-0.017591193318367
-0.0169672835618257
-0.0156575143337249
-0.0137926321476697
-0.0115437135100364
-0.0091027095913887
-0.0066589512862265
-0.004377853590995
-0.0023868777789175
-0.0007671250496059
0.0004467996186576
0.0012563458876684
0.0016912083374336
0.0018123495392501
0.0017109540058299
0.001494938856922
0.0012719684746116
0.0011366370599716
0.0011626130435615
0.0013965109828859
0.0018548420630395
0.0025274169165641
0.0033835568465292
0.0043771620839834
0.0054495194926857
0.0065306797623634
0.0075459694489836
0.0084304567426443
0.0091399857774376
0.0096529684960842
0.0099709639325737
0.0101168062537908
0.0101253073662519
0.0100316097959876
0.00986232701689
0.0096323741599917
0.009346792474389
0.0090004038065671
0.0085715232416987
0.0080164596438407
0.007274298928678
0.0062791928648948
0.0049694897606968
0.00329738878645
0.0012447223998606
-0.0011643220204859
-0.003855048213154
-0.006697712931782
-0.0095180999487638
-0.0121234878897666
-0.0143301533535122
-0.0159809496253728
-0.0169536005705595
-0.0171716716140508
-0.0166198220103979
-0.0153532335534691
-0.0134950671344995
-0.0112207736819982
-0.0087325712665915
-0.0062312642112374
-0.003892290405929
-0.0018506142077967
-0.000196544569917
0.0010209036991
0.0017910273745656
0.0021423795260488
0.0021435448434203
0.0018969275988638
0.0015242248773574
0.0011491349432617
0.0008825657423585
0.0008105888264253
0.0009829900227487
0.0014071804471313
0.0020544966682791
0.0028748963959515
0.0038103915285319
0.0048026293516159
0.0057972311042249
0.0067478260025382
0.0076144034974277
0.0083568133413791
0.0089394636452198
0.0093462448567152
0.0095847146585583
0.0096787717193365
0.0096618495881557
0.0095693068578839
0.0094275111332535
0.0092439707368612
0.0090021854266524
0.0086595956236124
0.0081473160535097
0.0073772454634308
0.0062572108581662
0.0047091068699955
0.0026916768401861
0.0002256918232887
-0.0025923687499016
-0.0055986186489462
-0.0085869040340185
-0.0113368462771177
-0.0136401858180761
-0.0153268165886402
-0.0162843968719244
-0.0164670906960964
-0.0158952511847019
-0.0146474838256835
-0.0128483744338154
-0.0106558809056878
-0.0082474006339907
-0.0058029936626553
-0.0034896752331405
-0.0014505464350804
0.00020292843692
0.0013984302058815
0.0021099760197103
0.0023633770179003
0.0022352882660925
0.0018393822247162
0.0013050427660346
0.0007620699470862
0.0003319496754556
0.000117271207273
0.0001883530057966
0.0005733869038522
0.0012581503251567
0.0021932863164693
0.0033025431912392
0.0044935056939721
0.0056749014183878
0.0067715900950133
0.007728177588433
0.0085077071562409
0.0090908519923686
0.0094732176512479
0.009660574607551
0.0096644666045904
0.0095021054148674
0.0092000793665647
0.0087916413322091
0.0083032269030809
0.0077404952608048
0.0070803239941596
0.0062698861584067
0.0052370517514646
0.0039073368534445
0.0022204113192856
0.0001484795939177
-0.0022875312715768
-0.0050123566761612
-0.0079000759869813
-0.0107840616255998
-0.0134721463546156
-0.0157655552029609
-0.0174812823534011
-0.0184741746634244
-0.0186527762562036
-0.0179885625839233
-0.0165241584181785
-0.0143789891153573
-0.0117402486503124
-0.0088354870676994
-0.0058954739943146
-0.0031214756891131
-0.0006686989217996
0.0013573294272646
0.0029021590016782
0.0039640115574002
0.0045877988450229
0.0048499684780836
0.0048473528586328
0.0046916091814637
0.0044964086264371
0.0043601128272712
0.0043568043038249
0.0045324889943003
0.0048979865387082
0.0054294653236866
0.006085374392569
0.006824439857155
0.0076110642403364
0.0084116226062178
0.0091911172494292
0.0099149160087108
0.0105520859360694
0.0110757648944854
0.0114632695913314
0.0117005230858922
0.0117857754230499
0.0117254564538598
0.0115246977657079
0.0111778816208243
0.0106601305305957
0.0099232234060764
0.0089026493951678
0.0075331898406147
0.0057651661336421
0.0035781902261078
0.000990139786154
-0.0019401258323341
-0.0051132901571691
-0.008388995192945
-0.0115892048925161
-0.0145150385797023
-0.0169726535677909
-0.0187966879457235
-0.0198655873537063
-0.0201103594154119
-0.0195240266621112
-0.0181693527847528
-0.0161740612238645
-0.0137140480801463
-0.0109918834641575
-0.0082143936306238
-0.0055745453573763
-0.0032405341044068
-0.0013455131556838
2.6784749934449792e-05
0.0008543239673599
0.0011774627491831
0.0010871578706428
0.0007076170295476
0.0001780369202606
-0.0003656059270724
-0.0008071265183389
-0.0010592071339488
-0.0010630686301738
-0.0007879239274188
-0.0002311444841325
0.0005887647857889
0.0016392142279073
0.0028717725072056
0.0042196423746645
0.0056012459099292
0.0069296462461352
0.0081254905089735
0.0091255567967891
0.0098865469917654
0.0103892525658011
0.0106378439813852
0.0106512513011693
0.0104516139253973
0.0100526949390769
0.0094513557851314
0.0086246812716126
0.0075306412763893
0.0061149839311838
0.0043298839591443
0.0021579368039965
-0.0003702405374497
-0.0031690979376435
-0.0061010140925645
-0.008987907320261
-0.0116303339600563
-0.0138311590999364
-0.0154200661927461
-0.0162739846855402
-0.0163300819694995
-0.0155928283929824
-0.0141370417550206
-0.0121029904112219
-0.0096767889335751
-0.0070635508745908
-0.004469390027225
-0.0020883299876004
-8.15980602055788e-05
0.0014429879374802
0.002437915187329
0.0029129891190677
0.0029301613103598
0.0025937012396752
0.0020348217803984
0.0013939547352492
0.0008041725959628
0.0003777588717639
0.0001929537393152
0.0002853327896445
0.0006514899432659
0.0012600827030837
0.0020635141991078
0.003006144426763
0.0040273931808769
0.0050651570782065
0.0060619814321398
0.0069708353839814
0.0077575054019689
0.0083994576707482
0.0088817197829484
0.0091882282868027
0.0092927888035774
0.0091535300016403
0.0087110940366983
0.0078978296369314
0.0066569074988365
0.0049573094584047
0.0028032567352056
0.0002445320715196
-0.0026170492637902
-0.0056316740810871
-0.0086147869005799
-0.0113637559115886
-0.0136770633980631
-0.0153792463243007
-0.016344241797924
-0.0165067370980978
-0.0158631522208452
-0.0144702037796378
-0.0124439913779497
-0.0099531169980764
-0.0072011137381196
-0.0044053145684301
-0.0017766947858035
0.0005031651817262
0.0023055314086377
0.0035691389348357
0.0043014348484575
0.0045686597004532
0.004479534458369
0.0041682180017232
0.0037787472829222
0.0034474472049623
0.003284269478172
0.0033609294332563
0.0037087090313434
0.0043213837780058
0.0051606050692498
0.006165430881083
0.0072640655562281
0.008383709937334
0.0094582140445709
0.0104313716292381
0.0112561210989952
0.01189636439085
0.012332571670413
0.0125611331313848
0.0125765362754464
0.0123465247452259
0.0118044065311551
0.0108639672398567
0.0094444155693054
0.0074941180646419
0.0050089890137314
0.0020452341996133
-0.0012747725704684
-0.0047667203471064
-0.0082024671137332
-0.0113392919301986
-0.0139503041282296
-0.0158496219664812
-0.0169115513563156
-0.0170818455517292
-0.0163819994777441
-0.0149099500849843
-0.0128282774239778
-0.0103333871811628
-0.0076264203526079
-0.0049045626074075
-0.0023574051447212
-0.0001488574780523
0.0016069838311523
0.00285933050327
0.0036199244204908
0.0039511285722255
0.0039481115527451
0.0037236153148114
0.0033976407721638
0.003086669370532
0.002893767086789
0.0029015007894486
0.003164563793689
0.0037051618564873
0.0045127756893634
0.0055463770404458
0.0067435703240334
0.0080353431403636
0.0093539617955684
0.0106310760602355
0.0117960926145315
0.0127830673009157
0.0135439466685056
0.014054037630558
0.0143022388219833
0.0142747145146131
0.0139416204765439
0.0132521754130721
0.0121410246938467
0.0105464467778801
0.0084350174292922
0.0058215046301484
0.002777632093057
-0.0005685703363269
-0.0040397397242486
-0.0074246055446565
-0.0105036227032542
-0.0130767822265625
-0.0149848349392414
-0.0161219611763954
-0.0164405833929777
-0.0159531645476818
-0.0147347524762153
-0.0129214618355035
-0.0106995729729533
-0.0082808258011937
-0.0058664754033088
-0.0036196499131619
-0.001658663386479
-6.040686275810003e-05
0.0011399399954825
0.0019505243981257
0.0024173392448574
0.0026143193244934
0.0026342868804931
0.0025775751564651
0.0025365753099322
0.0025832368992269
0.0027642517816275
0.0031002052128314
0.0035874983295798
0.0042056497186422
0.0049257455393671
0.0057132607325911
0.0065282769501209
0.0073285736143589
0.008072018623352
0.0087160998955369
0.009219080209732
0.0095423767343163
0.0096515696495771
0.0095143541693687
0.0090901795774698
0.0083180293440818
0.007120412774384
0.0054259174503386
0.0031967796385288
0.0004502069205045
-0.0027307420969009
-0.0061981184408068
-0.0097529012709856
-0.0131681477651
-0.0162139870226383
-0.0186805315315723
-0.0203985255211591
-0.0212559960782527
-0.0212085098028183
-0.020281670615077
-0.018565434962511
-0.0162028595805168
-0.0133785400539636
-0.0103089362382888
-0.0072263032197952
-0.0043519749306142
-0.0018701218068599
9.21068713068962e-05
0.0014777190517634
0.0022999646607786
0.0026302824262529
0.0025835570413619
0.002304243389517
0.001948223914951
0.0016584822442382
0.0015435100067406
0.0016670699696987
0.0020491855684667
0.0026713469997048
0.0034803445450961
0.0043999515473842
0.0053550107404589
0.0062887342646718
0.00716283172369
0.0079509885981678
0.008633641526103
0.0091949496418237
0.009622685611248
0.0099107241258025
0.0100577306002378
0.0100582372397184
0.0098919887095689
0.0095153991132974
0.008857425302267
0.0078268069773912
0.0063341348432004
0.0043219928629696
0.0017899312078952
-0.0011926600709557
-0.0044865757226943
-0.0078966515138745
-0.0111943008378148
-0.0141451060771942
-0.0165413618087768
-0.018228031694889
-0.0191126614809036
-0.0191660188138484
-0.0184190161526203
-0.0169558823108673
-0.0149076813831925
-0.0124477976933121
-0.0097816940397024
-0.0071232630871236
-0.0046644285321235
-0.0025528680998831
-0.0008814358152449
0.0003158021718263
0.0010613524354994
0.0014239733573049
0.0015011900104582
0.0014019503723829
0.0012375207152217
0.0011145181488245
0.0011219170410186
0.0013198992237448
0.0017373596783727
0.0023721121251583
0.0031919642351567
0.0041420054621994
0.0051567070186138
0.0061704786494374
0.0071241147816181
0.0079697491601109
0.0086760092526674
0.0092273671180009
0.0096171163022518
0.009843279607594
0.0099088670685887
0.0098193306475877
0.0095717757940292
0.009141125716269
0.0084769679233431
0.0075124180875718
0.0061771748587489
0.0044160624966025
0.0022142669185996
-0.0003802734427154
-0.0032499320805072
-0.0062189204618334
-0.0090780816972255
-0.0116200260818004
-0.0136731378734111
-0.0151161029934883
-0.0158753842115402
-0.0159231126308441
-0.015280713327229
-0.0140207670629024
-0.012261226773262
-0.0101530915126204
-0.0078655946999788
-0.0055696847848594
-0.0034195811022073
-0.0015381494304165
-9.740208042785524e-06
0.0011248188093304
0.001872812048532
0.0022874386049807
0.0024549388326704
0.0024754807818681
0.0024479576386511
0.0024613824207335
0.0025851938407868
0.0028595649637281
0.0032950399909168
0.0038804919458925
0.0045904461294412
0.0053891250863671
0.0062354709953069
0.0070873466320335
