bvp
-0.0216129701584577
-0.0305078625679016
-0.0373178236186504
-0.0416178777813911
-0.0432395003736019
-0.0422692485153675
-0.0390185303986072
-0.0339769311249256
-0.0277510955929756
-0.0209921970963478
-0.0143215246498584
-0.0082632498815655
-0.0031932163983583
0.0006878934800624
0.0033568586222827
0.0049504097551107
0.0057303099893033
0.006030773743987
0.006194791290909
0.0065185432322323
0.0072185900062322
0.0084199355915188
0.0101562282070517
0.0123760439455509
0.0149495974183082
0.0176669973880052
0.0202302429825067
0.0222606547176837
0.0233376398682594
0.0230616386979818
0.0211273692548275
0.0173961948603391
0.0119479615241289
0.0050904140807688
-0.0026744320057332
-0.0107091106474399
-0.018311932682991
-0.0247964784502983
-0.0295722000300884
-0.0322139635682106
-0.0325101539492607
-0.0304836556315422
-0.0263824667781591
-0.0206402912735939
-0.0138134313747286
-0.0065047303214669
0.0007112408056855
0.0073503898456692
0.0130658708512783
0.0176718942821025
0.0211363434791564
0.0235536396503448
0.0251120403409004
0.0260563045740127
0.026647200807929
0.0271259360015392
0.0276902988553047
0.0284815970808267
0.0295767560601234
0.0309804882854223
0.0326135456562042
0.0342957340180873
0.0357323363423347
0.0365243107080459
0.0362155772745609
0.034366674721241
0.0306360647082328
0.0248578526079654
0.0171005297452211
0.0076870289631187
-0.0028300867415964
-0.0137288076803088
-0.024200402200222
-0.0334444232285022
-0.0407648123800754
-0.0456521101295948
-0.0478373393416404
-0.0473106727004051
-0.0443068221211433
-0.0392630770802497
-0.0327558852732181
-0.0254266839474439
-0.0179098695516586
-0.0107677718624472
-0.004436120390892
0.000811340752989
0.0048726047389209
0.0078017977066338
0.0097754150629043
0.0110501609742641
0.011919149197638
0.0126701947301626
0.0135490791872143
0.0147331478074193
0.0163195300847291
0.0183254182338714
0.0206912048161029
0.0232706144452095
0.0258042998611927
0.0279046203941106
0.0290827564895153
0.0288183391094207
0.0266516506671905
0.0222796536982059
0.0156357586383819
0.0069316923618316
-0.0033492939546704
-0.0145033318549394
-0.0256884694099426
-0.0360261872410774
-0.0447080545127391
-0.0510890670120716
-0.0547520257532596
-0.0555434599518775
-0.0535858832299709
-0.0492569990456104
-0.0431305691599845
-0.0358951240777969
-0.0282702147960662
-0.0209289006888866
-0.0144302109256386
-0.0091671841219067
-0.0053378837183117
-0.00294403382577
-0.0018131069373339
-0.001636543427594
-0.0020212458912283
-0.0025478322058916
-0.0028247407171875
-0.0025359285064041
-0.0014809304848313
0.0004054063465446
0.0030624736100435
0.0063296272419393
0.0099645499140024
0.0136471726000308
0.0169821847230196
0.0195184703916311
0.0207948945462703
0.0204044170677661
0.0180642306804656
0.0136848045513033
0.0074216229841113
-0.0003106989897787
-0.0088709378615021
-0.0174708683043718
-0.0252854470163583
-0.0315586663782596
-0.0356822051107883
-0.0372480899095535
-0.0360827706754207
-0.0322635620832443
-0.0261090546846389
-0.0181356277316808
-0.0089866165071725
0.0006503108888864
0.0101225730031728
0.0188766904175281
0.0265023726969957
0.0327585972845554
0.0375814065337181
0.0410662218928337
0.0434241890907287
0.044928390532732
0.045865811407566
0.0465023666620254
0.0470616482198238
0.0477118827402591
0.0485563017427921
0.0496277436614036
0.0508906580507755
0.0522472411394119
0.053536370396614
0.0545206144452095
0.0548765212297439
0.0542128048837184
0.0521251074969768
0.0482699051499366
0.0424341857433319
0.0345926657319068
0.0249458346515893
0.0139241851866245
0.0021516643464565
-0.0096241170540452
-0.0206206124275922
-0.0301143694669008
-0.0375290215015411
-0.0425028465688228
-0.0449223220348358
-0.0449188984930515
-0.0428354665637016
-0.039169892668724
-0.0345027633011341
-0.0294260960072278
-0.0244879648089408
-0.0201469883322715
-0.0167305953800678
-0.0144093232229352
-0.013195926323533
-0.0129621922969818
-0.0134680029004812
-0.0144037548452615
-0.0154401855543255
-0.0162745174020528
-0.0166659820824861
-0.016456801444292
-0.0155774736776947
-0.0140398889780044
-0.0119283832609653
-0.0094047039747238
-0.0067286407575011
-0.0042662965133786
-0.0024579335004091
-0.001749588176608
-0.0025114975869655
-0.0049618436023592
-0.0091096078976988
-0.0147312004119157
-0.0213881209492683
-0.0284792408347129
-0.0353153087198734
-0.0412043631076812
-0.0455381274223327
-0.0478656701743602
-0.0479429326951503
-0.0457590408623218
-0.0415369756519794
-0.0356995686888694
-0.0288040991872549
-0.0214599426835775
-0.0142476642504334
-0.0076554482802748
-0.0020372127182781
0.0024095298722386
0.0056479298509657
0.0077870390377938
0.0090448511764407
0.0096984030678868
0.0100396890193223
0.0103441346436738
0.0108471717685461
0.0117219649255275
0.0130573539063334
0.0148481605574488
0.0170000698417425
0.0193317718803882
0.0215684510767459
0.0233450457453727
0.0242387019097805
0.0238307733088731
0.0217845812439918
0.0179201662540435
0.0122666582465171
0.0050798673182725
-0.0031772591173648
-0.0118823107331991
-0.0203172154724597
-0.0277495793998241
-0.0335306860506534
-0.0371841229498386
-0.0384570360183715
-0.0373322553932666
-0.034013245254755
-0.0288883447647094
-0.0224776752293109
-0.0153677081689238
-0.0081404345110058
-0.0013073524460196
0.0047417962923645
0.0097677940502762
0.0136850429698824
0.0165482554584741
0.0185306016355752
0.0198851823806762
0.0208921395242214
0.0218128468841314
0.0228604786098003
0.0241824053227901
0.0258536152541637
0.0278788935393095
0.030192656442523
0.032646432518959
0.0349906310439109
0.036870677024126
0.0378538966178894
0.0374904982745647
0.0353978648781776
0.0313488394021987
0.0253403633832931
0.0176171958446502
0.0086436690762639
-0.000957207288593
-0.0104757826775312
-0.019190315157175
-0.0264425314962863
-0.0317093878984451
-0.0346589982509613
-0.0351809486746788
-0.033389002084732
-0.0295971184968948
-0.0242728516459465
-0.0179757438600063
-0.0112875131890177
-0.0047423411160707
0.0012315399944782
0.0063463989645242
0.0104599092155694
0.0135619016364216
0.0157568044960498
0.0172382853925228
0.0182511340826749
0.019049996510148
0.0198656320571899
0.0208814051002264
0.0222187936305999
0.0239296555519104
0.0259933453053236
0.0283132977783679
0.0307070463895797
0.0328958258032798
0.0345094017684459
0.0351161360740661
0.0342807807028293
0.0316451303660869
0.0270123612135648
0.0204114560037851
0.0121241947636008
0.0026638335548341
-0.0072893854230642
-0.016975587233901
-0.0256478227674961
-0.0326585285365581
-0.0375295504927635
-0.0399978533387184
-0.0400320440530777
-0.0378186367452144
-0.033723384141922
-0.0282383896410465
-0.0219250619411468
-0.0153550244867801
-0.009046958759427
-0.0034077963791787
0.0013057901524007
0.0049976827576756
0.0077157188206911
0.0096171554177999
0.0109283374622464
0.0119043923914432
0.0127927344292402
0.0138050206005573
0.0150975659489631
0.0167597103863954
0.0188118945807218
0.021206758916378
0.0238222815096378
0.0264496859163045
0.0287885703146457
0.0304588004946708
0.0310354474931955
0.0301105976104736
0.0273726768791675
0.0226792767643928
0.0161035321652889
0.0079463049769401
-0.0012880070134997
-0.0109469844028353
-0.0203053150326013
-0.0286471806466579
-0.0353446789085865
-0.0399265773594379
-0.0421323291957378
-0.0419373139739036
-0.0395402237772941
-0.0353213921189308
-0.0297869443893432
-0.023505050688982
-0.0170364845544099
-0.0108693912625312
-0.0053722090087831
-0.000770540907979
0.0028560343198478
0.00556131452322
0.0075040459632873
0.008909348398447
0.010030229575932
0.0111107118427753
0.0123504139482975
0.0138785848394036
0.0157428458333015
0.0179117508232593
0.0202897991985082
0.0227381456643342
0.0250868797302246
0.0271306503564119
0.0286155883222818
0.0292363781481981
0.0286580324172973
0.0265629570931196
0.0227125417441129
0.0170118622481822
0.009563710540533
0.0006853882223367
-0.0091255558654665
-0.0192540381103754
-0.0290340147912502
-0.0378166064620018
-0.0450382977724075
-0.0502807013690471
-0.0533144101500511
-0.0541185140609741
-0.0528702102601528
-0.0499099195003509
-0.0456900708377361
-0.0407120585441589
-0.0354609452188015
-0.0303496774286031
-0.0256797969341278
-0.0216264463961124
-0.0182478241622447
-0.015503610484302
-0.0132723413407802
-0.0113737937062978
-0.0096004530787467
-0.0077499393373727
-0.0056489836424589
-0.0031693349592387
-0.0002407386200502
0.0031410665251314
0.0069167679175734
0.0109695317223668
0.0151208788156509
0.0191198419779539
0.0226444136351346
0.025322251021862
0.0267680175602436
0.0266420189291238
0.0247255265712738
0.02098791860044
0.0156198125332593
0.009022194892168
0.0017599130515009
-0.0055040079168975
-0.0120841329917311
-0.0173544455319643
-0.0208248514682054
-0.0221979692578315
-0.0213972683995962
-0.0185623876750469
-0.014017510227859
-0.0082262065261602
-0.0017355410382151
0.0048921247944235
0.0111477235332131
0.0166301000863313
0.0210819263011217
0.024405987933278
0.0266575291752815
0.0280110351741313
0.0287121348083019
0.0290300175547599
0.0292182471603155
0.0294854175299406
0.0299752261489629
0.0307581163942813
0.0318385176360607
0.0331690497696399
0.034653902053833
0.0361387990415096
0.0373993255198001
0.0381391830742359
0.0380050204694271
0.0366205237805843
0.033641654998064
0.0288276076316833
0.02210926823318
0.0136333191767334
0.003767573274672
-0.0069333463907241
-0.0177920218557119
-0.0280872844159603
-0.0371350049972534
-0.0443658158183097
-0.0493936687707901
-0.0520577318966388
-0.0524271503090858
-0.0507729090750217
-0.0475137419998645
-0.0431479178369045
-0.0381860397756099
-0.0330947935581207
-0.0282555781304836
-0.0239362455904483
-0.0202741809189319
-0.0172763690352439
-0.0148417921736836
-0.0127968844026327
-0.0109294448047876
-0.0090228905901312
-0.0068940431810915
-0.0044205645099282
-0.0015494696563109
0.0017087185988202
0.0052945683710277
0.0091148493811488
0.0130537943914532
0.0169828701764345
0.0207629688084125
0.0242295209318399
0.0271679982542991
0.029298722743988
0.0302870813757181
0.0297896526753902
0.0275288112461566
0.0233653709292411
0.017343383282423
0.0097049437463283
0.0008801105432212
-0.0085498271510005
-0.0179151725023984
-0.0265360213816165
-0.0338000729680061
-0.0392288006842136
-0.0425249822437763
-0.0435955636203289
-0.0425493344664573
-0.0396722257137298
-0.035383116453886
-0.0301742646843194
-0.0245447792112827
-0.0189451053738594
-0.0137443589046597
-0.0092080831527709
-0.0054770801216363
-0.0025604600086808
-0.0003512892872095
0.0013423766940832
0.002759245224297
0.0041448562406003
0.0057154898531734
0.0076304860413074
0.0099760955199599
0.0127635924145579
0.0159415826201438
0.019416406750679
0.0230714716017246
0.0267759282141923
0.0303805768489837
0.0337098538875579
0.036553144454956
0.0386539436876773
0.0397069379687309
0.039378099143505
0.0373532436788082
0.0334054492413997
0.0274621043354272
0.0196518991142511
0.0103174373507499
-1.1217081919312475e-05
-0.0106756901368498
-0.0209643002599477
-0.0301857516169548
-0.0377386212348938
-0.0431765504181385
-0.0462535172700881
-0.046936348080635
-0.0453913547098636
-0.0419535227119922
-0.0370809286832809
-0.0312993265688419
-0.0251408498734235
-0.0190832186490297
-0.0135005787014961
-0.0086327735334634
-0.0045762211084365
-0.0012970697134733
0.0013415534049272
0.0035469224676489
0.0055573591962456
0.0075964536517858
0.0098348734900355
0.0123732322826981
0.0152434706687927
0.018419224768877
0.021830478683114
0.0253801736980676
0.0289591122418642
0.0324561819434165
0.0357626378536224
0.038766760379076
0.0413350909948349
0.0432844161987304
0.0443616993725299
0.0442539863288402
0.0426311753690242
0.0392092540860176
0.0338247716426849
0.0265023075044155
0.017490005120635
0.0072531215846538
-0.0035715480335056
-0.0142486244440078
-0.0240276977419853
-0.0322270542383194
-0.0383098684251308
-0.0419424585998058
-0.0430266931653022
-0.0417010709643363
-0.0383067540824413
-0.033325869590044
-0.027314780279994
-0.0208477135747671
-0.0144642693921923
-0.0086154025048017
-0.0036158133298158
0.0003835223615169
0.0033925548195838
0.0055530127137899
0.0070962850004434
0.0082980636507272
0.0094328084960579
0.0107330819591879
0.0123636173084378
0.0144124580547213
0.01689438149333
0.0197633132338523
0.0229257773607969
0.0262500308454036
0.0295796766877174
0.0327537357807159
0.0356160700321197
0.0379998311400413
0.039694495499134
0.0404223725199699
0.039849579334259
0.0376364961266517
0.0335111059248447
0.027341516688466
0.0191932842135429
0.0093595888465642
-0.0016477280296385
-0.0131454709917306
-0.0243558771908283
-0.0345003828406333
-0.0428913794457912
-0.0490055829286575
-0.0525316707789897
-0.0533915422856807
-0.0517368540167808
-0.0479214712977409
-0.0424521118402481
-0.035922598093748
-0.0289404578506946
-0.0220578294247388
-0.0157173946499824
-0.0102182254195213
-0.0056998301297426
-0.0021426766179502
0.0006070174276828
0.0027859602123498
0.0046571539714932
0.0064686564728617
0.0084263859316706
0.0106738461181521
0.0132807455956935
0.0162448622286319
0.0195049680769443
0.0229600220918655
0.0264890398830175
0.0299660488963127
0.0332700684666633
0.0362900495529174
0.0389196798205375
0.0410338267683982
0.0424484461545944
0.0428905189037323
0.0420078337192535
0.0394231006503105
0.0348167791962623
0.0280158501118421
0.0190645530819892
0.0082600936293601
-0.0038558207452297
-0.0165524985641241
-0.0289989933371543
-0.0403605252504348
-0.049887828528881
-0.0569953471422195
-0.0613186135888099
-0.0627385973930358
-0.0613777749240398
-0.0575789883732795
-0.0518632158637046
-0.0448629781603813
-0.0372422151267528
-0.0296174585819244
-0.0224936660379171
-0.0162231139838695
-0.0109870182350277
-0.0067974277772009
-0.0035203008446842
-0.0009174258448183
0.001302643911913
0.0034346010070294
0.0057348501868546
0.0083941761404275
0.011520218104124
0.0151249822229146
0.0191283505409955
0.0233833231031894
0.0277093295007944
0.0319206602871418
0.0358482338488101
0.0393557399511337
0.0423486419022083
0.0447712875902652
0.0465822778642177
0.0477053448557853
0.0479794219136238
0.0471441559493541
0.0448741056025028
0.0408480949699878
0.0348325818777084
0.0267585590481758
0.016774233430624
0.0052603865042328
-0.0071945702657103
-0.0198533870279788
-0.0319123715162277
-0.0425933599472045
-0.0512306690216064
-0.0573398768901824
-0.0606586560606956
-0.0611609257757663
-0.0590501204133033
-0.0547294430434703
-0.0487450920045375
-0.0417113155126571
-0.0342392586171627
-0.0268816649913787
-0.0200869962573051
-0.0141616053879261
-0.0092505430802702
-0.0053434781730175
-0.0023018501233309
0.000100826844573
0.0021332129836082
0.0040638507343828
0.006127452943474
0.0084976600483059
0.0112677216529846
0.0144456271082162
0.0179660655558109
0.0217154528945684
0.0255568977445364
0.0293439272791147
0.0329313352704048
0.0361907854676246
0.0390227623283863
0.0413591265678405
0.043153204023838
0.0443496853113174
0.0448394007980823
0.0444246493279933
0.0428213663399219
0.0397052802145481
0.0347886756062507
0.0279057919979095
0.0190864671021699
0.0085986219346523
-0.0030596032738685
-0.0152188763022422
-0.0271238852292299
-0.0380192399024963
-0.0472259260714054
-0.0542066432535648
-0.0586179047822952
-0.0603412613272666
-0.0594845861196517
-0.0563555024564266
-0.0514194555580616
-0.0452469587326049
-0.038446232676506
-0.0315895415842533
-0.0251503810286521
-0.0194603856652975
-0.0146921314299106
-0.0108716022223234
-0.0079074734821915
-0.0056228786706924
-0.0037908600643277
-0.0021721017546951
-0.0005448483861982
0.0012740232050418
0.003412005957216
0.0059298640117049
0.0088196005672216
0.0120116621255874
0.015390507876873
0.0188161376863718
0.0221489928662776
0.0252726860344409
0.0281013492494821
0.030562300235033
0.0325605794787406
0.0339428558945655
0.0344793274998664
0.0338760316371917
0.0318198427557945
0.0280475970357656
0.0224235411733388
0.0150042660534381
0.006067699752748
-0.0039014173671603
-0.0142586380243301
-0.024270499125123
-0.0332001000642776
-0.0403922162950038
-0.0453485287725925
-0.0477853566408157
-0.0476615764200687
-0.0451732464134693
-0.0407178327441215
-0.0348328538239002
-0.028123565018177
-0.0211920663714408
-0.0145714953541755
-0.0086728790774941
-0.003753735916689
8.969544433057308e-05
0.0029099630191922
0.0048816353082656
0.0062641804106533
0.0073561589233577
0.0084441872313618
0.009755128994584
0.0114261712878942
0.013500384055078
0.0159401036798954
0.0186483468860387
0.021494448184967
0.0243400186300277
0.0270580798387527
0.02954220212996
0.0317077673971653
0.0334832109510898
0.034783512353897
0.0354703441262245
0.0353278405964374
0.0340799205005168
0.0314401052892208
0.0271703340113163
0.0211424622684717
0.0133986556902527
0.0041906489059329
-0.0060227131471037
-0.0166205018758773
-0.0268925949931144
-0.0361234098672866
-0.0436732247471809
-0.0490489117801189
-0.0519570633769035
-0.0523322448134422
-0.050334021449089
-0.0463119149208068
-0.040748655796051
-0.034198060631752
-0.0272275991737842
-0.0203654430806636
-0.0140505991876125
-0.0085923504084348
-0.0041476190090179
-0.0007209577597677
0.0018128012306988
0.0036702610086649
0.0051157944835722
0.0064190691336989
0.0078175049275159
0.009487135335803
0.0115270093083381
0.0139617007225751
0.0167574919760227
0.0198378916829824
0.0230911802500486
0.026377934962511
0.0295456610620021
0.0324493944644928
0.0349680595099926
0.0369986183941364
0.0384226329624652
0.0390648990869522
0.0386738032102584
0.0369408726692199
0.0335567668080329
0.0282860901206731
0.0210422500967979
0.0119477659463882
0.0013613277114927
-0.0101472837850451
-0.0218685343861579
-0.0330403968691825
-0.0429310947656631
-0.0509139150381088
-0.0565286949276924
-0.0595211461186409
-0.0598566979169845
-0.0577133148908615
-0.0534563064575195
-0.0475906692445278
-0.0406943447887897
-0.0333498306572437
-0.0260868817567825
-0.0193345658481121
-0.0133814625442028
-0.0083582578226923
-0.0042533073574304
-0.0009477697312831
0.0017478344962
0.0040604500100016
0.0062223877757787
0.00844048243016
0.010871073231101
0.013604786247015
0.0166634656488895
0.0200081765651702
0.0235539972782135
0.027189340442419
0.0307951364666223
0.0342596024274826
0.0374888591468334
0.0404021255671978
0.0428991541266441
0.0448155328631401
0.0458950921893119
0.0457977950572967
0.0441467724740505
0.0406039655208587
0.0349550954997539
0.0271843075752258
0.0175207760185003
0.0064407298341393
-0.0053803753107786
-0.0171505771577358
-0.0280560832470655
-0.0373502746224403
-0.0444277897477149
-0.0488836802542209
-0.0505539439618587
-0.0495252273976802
-0.0461098924279212
-0.0407942757010459
-0.0341711156070232
-0.0268693286925554
-0.0194892790168523
-0.0125430403277277
-0.0064047845080494
-0.0012844037264585
0.002770023420453
0.005847786553204
0.0081407958641648
0.0099055422469973
0.0114217028021812
0.012946942821145
0.014675723388791
0.0167181976139545
0.0191041901707649
0.0217999722808599
0.0247277058660984
0.0277840681374073
0.0308555588126182
0.0338298752903938
0.0366026759147644
0.0390751138329505
0.0411332212388515
0.0426104180514812
0.0432567857205867
0.042745865881443
0.0407271459698677
0.0369012430310249
0.0310927033424377
0.0233132038265466
0.0138035770505666
0.0030340503435581
-0.0083404667675495
-0.0195550788193941
-0.0298247914761304
-0.0384365953505039
-0.0448275879025459
-0.0486398786306381
-0.0497537851333618
-0.0482945665717124
-0.0446049943566322
-0.0391903631389141
-0.0326492227613925
-0.0256021320819854
-0.0186290182173252
-0.012216281145811
-0.0067144935019314
-0.0023143012076616
0.0009562824852764
0.0032141120173037
0.0046858452260494
0.0056627169251441
0.0064525716006755
0.0073363096453249
0.008533970452845
0.01018394716084
0.0123386476188898
0.0149740595370531
0.0180061515420675
0.0213071908801794
0.0247152782976627
0.0280337873846292
0.0310185384005308
0.0333586335182189
0.0346749871969223
0.0345563068985939
0.0326268523931503
0.0286270305514335
0.0224853046238422
0.0143622988834977
0.004658717662096
-0.0060135223902761
-0.0168944522738456
-0.0271631479263305
-0.0360316261649131
-0.0428343787789344
-0.047108769416809
-0.0486509501934051
-0.0475276336073875
-0.0440453626215457
-0.0386950522661209
-0.0320843495428562
-0.0248631760478019
-0.0176483858376741
-0.0109580848366022
-0.005166242364794
-0.0004802225157618
0.0030596703290939
0.0055590569972991
0.0072334259748458
0.0083662448450922
0.0092612924054265
0.0101905306801199
0.0113540105521678
0.0128652360290288
0.0147567195817828
0.0169949494302272
0.0194994397461414
0.0221630800515413
0.0248685888946056
0.0274924580007791
0.0298895966261625
0.0318622216582298
0.0331310145556926
0.033333595842123
0.0320659950375556
0.0289593804627656
0.0237645469605922
0.0164205692708492
0.0070990533567965
-0.003782850690186
-0.0155895166099071
-0.0275341719388961
-0.0387721210718154
-0.04849698767066
-0.0560260564088821
-0.0608716048300266
-0.0627908110618591
-0.0618040487170219
-0.0581796057522296
-0.0523897819221019
-0.0450434684753418
-0.0368052311241626
-0.0283189192414283
-0.0201476514339447
-0.0127289379015564
-0.0063435593619942
-0.001103269867599
0.0030374308116734
0.0062479320913553
0.00877779815346
0.0109121715649962
0.012928694486618
0.0150596238672733
0.017465965822339
0.020227737724781
0.0233481302857399
0.0267685633152723
0.0303915590047836
0.0340970754623413
0.0377426669001579
0.0411547608673572
0.0441118590533733
0.0463207699358463
0.0474096797406673
0.0469623692333698
0.0445902459323406
0.0400195755064487
0.0331713184714317
0.024213558062911
0.0135712549090385
0.0018910327926278
-0.0100318863987922
-0.021347988396883
-0.0312460586428642
-0.0390380658209323
-0.0442374721169471
-0.0466112568974494
-0.0461888834834098
-0.0432358905673027
-0.0382060259580612
-0.0316803380846977
-0.0242979675531387
-0.0166847724467515
-0.0093900794163346
-0.0028392458334565
0.0026956084184348
0.0071037234738469
0.0104218544438481
0.0128064230084419
0.0144988968968391
0.0157813336700201
0.0169242937117815
0.0181441027671098
0.0195808503776788
0.0212955009192228
0.0232802908867597
0.0254749562591314
0.0277844406664371
0.0300959572196006
0.0322911366820335
0.0342472121119499
0.0358192287385463
0.0368058197200298
0.03692227602005
0.0358110144734382
0.0331003628671169
0.0284892320632934
0.0218239724636077
0.013154050335288
0.0027632303535938
-0.0088338684290647
-0.0209371857345104
-0.0327404886484146
-0.0434251800179481
-0.0522517934441566
-0.0586393550038337
-0.0622263625264167
-0.0629062503576278
-0.0608295872807502
-0.0563721135258674
-0.0500762574374675
-0.0425775051116943
-0.0345296300947666
-0.0265394859015941
-0.0191122721880674
-0.012608534656465
-0.0072206943295896
-0.0029735441785305
0.0002533397055231
0.0026871950831264
0.0046145874075591
0.0063305483199656
0.0080939633771777
0.010098417289555
0.0124582238495349
0.0152050629258155
0.0182961430400609
0.0216356571763753
0.0250954143702983
0.0285169892013072
0.0316991284489631
0.0343834422528743
0.0362478271126747
0.0369187369942665
0.0360112078487873
0.0331963486969471
0.0282826945185661
0.0212850850075483
0.0124583635479211
0.0022889748215675
-0.0085538513958454
-0.019295897334814
-0.0291426107287406
-0.0373595058917999
-0.0433531180024147
-0.0467465594410896
-0.047425240278244
-0.0455375798046588
-0.0414585024118423
-0.035728819668293
-0.0289795026183128
-0.021849762648344
-0.0149094434455037
-0.008599198423326
-0.0031984662637114
0.001179170445539
0.0045686960220336
0.0071217035874724
0.0090689379721879
0.0106825092807412
0.0122343134135007
0.0139509867876768
0.0159815475344657
0.0183898154646158
0.0211632549762725
0.024228248745203
0.0274698846042156
0.0307497829198837
0.033910859376192
0.0367632508277893
0.0390578955411911
0.0404694639146328
0.0406121015548706
0.0390934571623802
0.035593532025814
0.0299453772604465
0.0221931021660566
0.0126133412122726
0.0017017349600791
-0.0098713207989931
-0.021331625059247
-0.031886838376522
-0.0408125482499599
-0.0475304499268531
-0.0516698807477951
-0.0531023144721984
-0.0519443489611148
-0.0485309958457946
-0.0433639511466026
-0.037041787058115
-0.0301810204982757
-0.0233404468744993
-0.016965752467513
-0.0113623570650815
-0.0066893338225781
-0.0029670083895325
-9.62867052294314e-05
0.0021116398274898
0.0038979167584329
0.0055152978748083
0.0071898763999342
0.0090922713279724
0.0113233132287859
0.013913245871663
0.0168293826282024
0.0199895873665809
0.0232806839048862
0.0265749283134937
0.0297305285930633
0.0325684286653995
0.0348387360572814
0.0362044125795364
0.0362618416547775
0.0345989353954792
0.0308787543326616
0.0249283444136381
0.0168074965476989
0.0068360995501279
-0.0044286958873271
-0.0162555798888206
-0.0278238020837306
-0.0383163467049598
-0.0470087453722953
-0.0533398278057575
-0.0569612272083759
-0.0577683821320533
-0.0559062808752059
-0.0517415702342987
-0.0458067953586578
-0.0387288033962249
-0.0311494693160057
-0.023650212213397
-0.0166947860270738
-0.0105962036177515
-0.0055056037381291
-0.0014208173379302
0.0017870906740427
0.0043345573358237
0.0064833313226699
0.008501237258315
0.0106241460889577
0.0130218574777245
0.015778549015522
0.0188939869403839
0.0223015882074832
0.0258926339447498
0.0295373052358627
0.0331006571650505
0.0364525392651557
0.0394640900194644
0.0419832170009613
0.0437983199954032
0.0446180365979671
0.0440885238349437
0.0418530404567718
0.0376424975693225
0.0313618406653404
0.0231377780437469
0.0133255142718553
0.0024844859726727
-0.008675024844706
-0.019370213150978
-0.0288363620638847
-0.036413699388504
-0.0416177585721015
-0.044186845421791
-0.044102769345045
-0.0415813699364662
-0.0370341800153255
-0.0310094840824604
-0.0241205804049968
-0.0169686768203973
-0.0100776087492704
-0.003853736910969
0.0014352211728692
0.0056685861200094
0.0088660456240177
0.0111670577898621
0.0127976816147565
0.0140269976109266
0.0151224099099636
0.016313487663865
0.017768207937479
0.019580528140068
0.0217674393206834
0.0242774616926908
0.0270117186009883
0.029848663136363
0.0326590351760387
0.0353092141449451
0.0376580692827701
0.0395429916679859
0.0407550744712352
0.0410225316882133
0.0400216802954673
0.0374202243983745
0.0329484567046165
0.026481632143259
0.0181033667176961
0.0081291571259498
-0.0029104277491569
-0.0143219362944364
-0.0253277719020843
-0.035155214369297
-0.0431253127753734
-0.0487340614199638
-0.0517081953585147
-0.0520237907767295
-0.0498920902609825
-0.0457196198403835
-0.0400493927299976
-0.0334913097321987
-0.0266486201435327
-0.0200508460402488
-0.0141052864491939
-0.0090708434581756
-0.0050509171560406
-0.0020037926733493
0.0002308418042957
0.001895316876471
0.0032704074401408
0.0046263099648058
0.0061800293624401
0.0080711003392934
0.0103562418371438
0.0130178146064281
0.0159791558980941
0.0191216710954904
0.0223039891570806
0.0253813937306404
0.0282133035361766
0.030648386105895
0.0324956998229026
0.0335037931799888
0.033370241522789
0.0317889302968978
0.0285159721970558
0.0234294235706329
0.0165757797658443
0.0082003427669405
-0.0012518167495727
-0.0111723635345697
-0.0208566673099994
-0.0295879822224378
-0.0367232598364353
-0.0417652241885662
-0.0444126389920711
-0.0445870980620384
-0.0424346476793289
-0.0383001081645488
-0.0326750949025154
-0.026129201054573
-0.0192419253289699
-0.0125448359176516
-0.006472741253674
-0.0013280846178531
0.0027365079149603
0.0057174712419509
0.0077402107417583
0.0090232230722904
0.0098346807062625
0.0104483272880315
0.0111053613945841
0.0119877532124519
0.0132053336128592
0.0147956050932407
0.0167336240410804
0.0189475957304239
0.0213326588273048
0.0237613841891288
0.0260959547013044
0.0281978137791156
0.0299213156104087
0.0310870893299579
0.0314531326293945
0.0307134166359901
0.0285380631685256
0.0246431306004524
0.0188671965152025
0.0112350080162286
0.0019896887242794
-0.0084176436066627
-0.019370948895812
-0.0301501117646694
-0.0400084294378757
-0.0482622049748897
-0.0543726086616516
-0.0580024719238281
-0.0590421706438064
-0.057605892419815
-0.0540043115615844
-0.0486988015472888
-0.0422417037189006
-0.0352121293544769
-0.0281557217240333
-0.0215321034193038
-0.0156744867563247
-0.0107686147093772
-0.0068535287864506
-0.0038386255037039
-0.0015363804996013
0.0002895975485444
0.0018774345517158
0.0034355488605797
0.0051236832514405
0.0070410687476396
0.0092248227447271
0.0116595774888992
0.0142911188304424
0.0170384980738163
0.0198064316064119
0.0224969945847988
0.0250146184116601
0.0272600837051868
0.029111685231328
0.0303992573171854
0.0308850854635238
0.0302686505019664
0.0282296314835548
0.0245040096342563
0.0189644172787666
0.0116770174354314
0.0029232911765575
-0.0068158777430653
-0.0169102866202592
-0.0266530588269233
-0.0353409461677074
-0.042352445423603
-0.0472166836261749
-0.0496619679033756
-0.0496340058743953
-0.0472844615578651
-0.0429429747164249
-0.0370811820030212
-0.0302614886313676
-0.0230688117444515
-0.0160395521670579
-0.0096032153815031
-0.0040465742349624
0.0004960130900144
0.0040310346521437
0.0066816727630794
0.0086555704474449
0.010205628350377
0.0115871336311101
0.0130185205489397
0.0146566228941082
0.0165923107415437
0.0188541244715452
0.0214076563715934
0.024161659181118
0.0269879251718521
0.0297435261309146
0.0322908163070678
0.0345128923654556
0.0363099500536918
0.0375706069171428
0.0381371602416038
0.0377908013761043
0.0362703613936901
0.0333218798041343
0.0287631843239069
0.0225476939231157
0.014814686961472
0.0059042042121291
-0.0036753190215677
-0.0133088314905762
-0.022343860939145
-0.0301605630666017
-0.0362397767603397
-0.0402204506099224
-0.041934847831726
-0.041416261345148
-0.0388838052749633
-0.0347086526453495
-0.0293642245233058
-0.0233687628060579
-0.0172295533120632
-0.011388286948204
-0.0061724474653601
-0.0017726859077811
0.0017485525459051
0.0044350177049636
0.0064130183309316
0.0078663993626832
0.0090084904804825
0.0100512476637959
0.011177116073668
0.012519272044301
0.0141519475728273
0.0160908233374357
0.01830037496984
0.0207039788365364
0.0231964960694313
0.0256597325205802
0.0279703326523304
0.0299827102571725
0.0314929597079753
0.0322192348539829
0.0318258516490459
0.029985774308443
0.0264567174017429
0.0211478918790817
0.0141629381105303
0.0058115622960031
-0.0034123908262699
-0.0128825968131423
-0.0219107549637556
-0.0298257675021886
-0.0360519140958786
-0.0401714406907558
-0.0419629365205764
-0.0414190739393234
-0.038743931800127
-0.034321442246437
-0.0286586172878742
-0.0223199184983968
-0.0158605650067329
-0.0097624585032463
-0.0043848138302564
5.99883496761322e-05
0.0035064327530562
0.0060195480473339
0.0077668875455856
0.0089798551052808
0.0099105620756745
0.0107958083972334
0.0118345757946372
0.0131737291812896
0.0148947294801473
0.0170056913048028
0.0194465778768062
0.0221067108213901
0.024848710745573
0.0275309197604656
0.030019361525774
0.0321809239685535
0.0338556915521621
0.0348249450325965
0.0348018519580364
0.0334583781659603
0.0304836612194776
0.0256597399711608
0.0189348068088293
0.0104671912267804
0.0006240061484277
-0.0100549571216106
-0.0209128521382808
-0.0312440451234579
-0.0403672754764556
-0.0476967319846153
-0.0528035573661327
-0.0554583631455898
-0.0556484535336494
-0.0535672642290592
-0.0495790652930736
-0.044168010354042
-0.0378786101937294
-0.0312510840594768
-0.0247604809701442
-0.0187745988368988
-0.0135358087718486
-0.0091572795063257
-0.0056285373866558
-0.0028336783871054
-0.0005813585594296
0.0013581253588199
0.0032151937484741
0.0051889456808567
0.0074239699169993
0.0099991066381335
0.012928738258779
0.0161719918251037
0.0196468494832515
0.0232498552650213
0.0268745794892311
0.0304137580096721
0.0337399393320083
0.036675214767456
0.0389654785394668
0.0402756966650486
0.0402191914618015
0.0384209081530571
0.0345992222428321
0.0286428481340408
0.020663408562541
0.0110112531110644
0.0002487692981958
-0.0109125152230262
-0.0216966904699802
-0.0313521698117256
-0.0392265543341636
-0.0448285192251205
-0.0478808842599391
-0.0483459681272506
-0.0464117564260959
-0.0424530059099197
-0.036980465054512
-0.0305778831243515
-0.0238299760967493
-0.0172572322189807
-0.0112684089690446
-0.0061306059360504
-0.0019594766199588
0.0012696739286184
0.0036969054490327
0.0055462643504142
0.0070915333926677
0.0086143156513571
0.010355420410633
0.0124799357727169
0.0150682106614112
0.0181230008602142
0.0215821489691734
0.0253335479646921
0.0292326770722866
0.0331209376454353
0.0368364341557025
0.0402062758803367
0.0430192202329635
0.0449981838464736
0.0458022952079772
0.0450720153748989
0.042503286153078
0.0379205718636512
0.0313287898898124
0.0229424759745597
0.0131878219544887
0.0026691032107919
-0.0078958552330732
-0.0177568215876817
-0.0262147840112447
-0.0326975509524345
-0.0368207544088363
-0.0384262464940547
-0.0375900790095329
-0.0346012338995933
-0.0299185439944267
-0.0241088941693305
-0.0177711248397827
-0.0114635610952973
-0.0056522255763411
-0.000677959062159
0.0032642893493175
0.006132548674941
0.0080269565805792
0.0091595379635691
0.0098097957670688
0.0102769266813993
0.0108371926471591
0.0117103923112154
0.0130397034808993
0.0148865617811679
0.0172369387000799
0.0200160946696996
0.0231076553463935
0.0263637620955705
0.0295943617820739
0.0325430706143379
0.0348716005682945
0.0361716821789741
0.0360119864344596
0.0340134799480438
0.0299342069774866
0.0237397029995918
0.0156384371221065
0.0060738050378859
-0.0043209078721702
-0.0147924143821001
-0.0245529394596815
-0.0328703448176384
-0.0391482487320899
-0.0429901108145713
-0.0442446731030941
-0.0430178269743919
-0.0396413467824459
-0.0346111878752708
-0.0285146255046129
-0.021957941353321
-0.0154996514320373
-0.0095923524349927
-0.0045423614792525
-0.0004963683895766
0.0025482350029051
0.0047177020460367
0.0062247398309409
0.0073265028186142
0.008286197669804
0.0093365721404552
0.0106457900255918
0.0122990552335977
0.0143022276461124
0.0165983848273754
0.0190878733992576
0.0216477364301681
0.0241481214761734
0.0264579374343156
0.0284276157617568
0.0298540964722633
0.0304572395980358
0.0298918895423412
0.0277956947684288
0.0238635949790477
0.0179348178207874
0.0100604705512523
0.0005244929343461
-0.0101784756407141
-0.021394032984972
-0.0323773697018623
-0.0423715114593505
-0.0506896786391735
-0.0567931570112705
-0.0603479444980621
-0.0612491369247436
-0.0596143342554569
-0.0557559616863727
-0.0501408986747264
-0.0433367304503917
-0.0359424799680709
-0.0285143554210662
-0.0215097665786743
-0.0152595816180109
-0.0099573452025651
-0.0056589758023619
-0.002296223770827
0.0002963580191135
0.0023458017967641
0.0041020060889422
0.0057986476458609
0.0076194610446691
0.0096809174865484
0.0120324119925498
0.0146642364561557
0.0175176952034235
0.0204977300018072
0.0234886575490236
0.0263628624379634
0.0289651062339544
0.0310794189572334
0.0324110239744186
0.0326040647923946
0.0312917679548263
0.0281669534742832
0.0230596382170915
0.016002282500267
0.0072614187374711
-0.0026750983670353
-0.0131507907062768
-0.0234178006649017
-0.0327223502099514
-0.0403875596821308
-0.0458865240216255
-0.0488990023732185
-0.0493424125015735
-0.0473697260022163
-0.0433378331363201
-0.037755187600851
-0.0312134139239788
-0.0243123974651098
-0.0175948720425367
-0.0114993704482913
-0.0063313273712992
-0.0022507491521537
0.0007258544210344
0.0027110280934721
0.0039167646318674
0.0046131629496812
0.0050880401395261
0.0056089861318469
0.0063847261480987
0.0075374115258455
0.0090970434248447
0.0110166408121585
0.0131996981799602
0.0155291110277175
0.017889454960823
0.0201772693544626
0.0222937986254692
0.0241188500076532
0.0254802033305168
0.0261418633162975
0.0258213803172111
0.024236649274826
0.0211744755506515
0.0165535099804401
0.0104592610150575
0.0031557041220366
-0.0049210209399461
-0.0131944995373487
-0.0210103206336498
-0.0277174301445484
-0.0327460169792175
-0.0356693044304847
-0.036250315606594
-0.0344706885516643
-0.0305347573012113
-0.0248467400670051
-0.0179610960185527
-0.0105102742090821
-0.0031229481101036
0.0036472557112574
0.0093685341998934
0.0137574449181556
0.0166937299072742
0.0182207040488719
0.0185275897383689
0.0179166663438081
0.0167598277330398
0.0154511565342545
0.0143621433526277
0.0138026950880885
0.0139928581193089
0.0150502985343337
0.0169926062226295
0.0197515320032835
0.0231920275837183
0.0271213836967945
0.0312801375985145
0.0353252701461315
0.0388266146183013
0.0412930361926555
0.0422321334481239
0.041229885071516
0.0380270294845104
0.0325730852782726
0.0250482000410556
0.0158523544669151
0.0055691818706691
-0.0050877635367214
-0.0153439175337553
-0.0244457516819238
-0.0317453406751155
-0.0367739275097847
-0.039293173700571
-0.039311122149229
-0.0370597057044506
-0.0329459384083747
-0.0274888258427381
-0.0212489925324916
-0.0147621631622314
-0.0084903538227081
-0.0027953272219747
0.0020710914395749
0.0059677558019757
0.0088616516441106
0.0108196577057242
0.0119903413578867
0.0125784995034337
0.0128133259713649
0.0129119148477911
0.0130498819053173
0.0133500937372446
0.0138893956318497
0.0147125730291008
0.0158427953720092
0.0172868035733699
0.0190340559929609
0.0210409723222255
0.02319261059165
0.0252549834549427
0.0268511921167373
0.0274873711168766
0.0266310684382915
0.023824093863368
0.0187924653291702
0.0115170078352093
0.0022565517574548
-0.0084702391177415
-0.0199432484805583
-0.0313309505581855
-0.0417919531464576
-0.0505696572363376
-0.0570700466632843
-0.0609177537262439
-0.0619863532483577
-0.0603981614112854
-0.0564943924546241
-0.0507827624678611
-0.0438678599894046
