bvp
0.0135311679914593
0.015770012512803
0.0176983773708343
0.0195031370967626
0.0213400833308696
0.0233265198767185
0.0255345162004232
0.0279836021363735
0.0306373462080955
0.0334103293716907
0.0361839272081851
0.0388173274695873
0.0411417335271835
0.0429420880973339
0.0439443886280059
0.0438215397298336
0.0422224886715412
0.0388300232589244
0.0334401912987232
0.0260367058217525
0.0168333202600479
0.0062725227326154
-0.0050156498327851
-0.0162829682230949
-0.0267484355717897
-0.035687506198883
-0.0425115451216697
-0.0468279421329498
-0.0484760887920856
-0.0475332364439964
-0.0442873314023017
-0.0391878262162208
-0.0327891074120998
-0.0256898421794176
-0.018468813970685
-0.011623241007328
-0.0055208271369338
-0.0003756075166165
0.0037534784059971
0.0069459206424653
0.0093866158276796
0.0113212577998638
0.0130079314112663
0.0146736837923526
0.0164859294891357
0.0185443125665187
0.0208865851163864
0.0234938487410545
0.0262908693403005
0.0291504487395286
0.0319015122950077
0.0343292206525802
0.0361645817756652
0.0370771177113056
0.0366915613412857
0.0346383452415466
0.0306265633553266
0.0245187766849994
0.0163860898464918
0.0065289521589875
-0.004537908360362
-0.0161309354007244
-0.0274674035608768
-0.037755511701107
-0.0462924763560295
-0.0525453351438045
-0.0561982132494449
-0.0571668557822704
-0.0555895343422889
-0.0518017560243606
-0.0462940223515033
-0.0396506190299987
-0.0324758179485797
-0.0253232270479202
-0.0186433922499418
-0.0127524184063076
-0.0078171892091631
-0.0038555210921913
-0.0007539429934695
0.0016937347827479
0.0037345706950873
0.0056090345606207
0.0075180693529546
0.0096030123531818
0.0119368201121687
0.0145271094515919
0.0173279494047164
0.0202558133751153
0.0232057273387908
0.0260618440806865
0.0286947954446077
0.0309407617896795
0.032569907605648
0.033270925283432
0.0326758250594139
0.0304174199700355
0.0261985771358013
0.0198666676878929
0.0114814043045043
0.0013481918722391
-0.0099979257211089
-0.0218470264226198
-0.0333895087242126
-0.043799240142107
-0.0523146912455558
-0.0583096444606781
-0.0613482408225536
-0.0612174421548843
-0.0579285696148872
-0.0516847558319568
-0.0428264439105987
-0.0317819789052009
-0.0190427564084529
-0.0051572918891906
0.0092755760997533
0.0236277170479297
0.0372776612639427
0.0496561042964458
0.0602940246462821
0.0688667148351669
0.0752240046858787
0.0793936774134635
0.0815552994608879
0.0819940343499183
0.0810448378324508
0.0790406391024589
0.0762732550501823
0.0729593336582183
0.0692113786935806
0.0650362074375152
0.0603703819215297
0.0551270991563797
0.0492204949259758
0.0425601042807102
0.0350366160273551
0.0265244096517562
0.0169108472764492
0.0061436370015144
-0.0057152807712554
-0.0184382572770118
-0.0315992161631584
-0.0445756129920482
-0.0565908700227737
-0.0668018907308578
-0.0744251459836959
-0.0788659378886222
-0.079810693860054
-0.077264666557312
-0.071534439921379
-0.0631672292947769
-0.0528674572706222
-0.0414065904915332
-0.0295382589101791
-0.0179299861192703
-0.0071186684072017
0.0025083757936954
0.0107121169567108
0.0173898935317993
0.0225575827062129
0.0263219848275184
0.0288445688784122
0.0303104221820831
0.0309085585176944
0.0308161191642284
0.0301831178367137
0.029120959341526
0.0276964493095874
0.0259313955903053
0.023809291422367
0.0212862789630889
0.0183014720678329
0.014783751219511
0.0106484778225421
0.0057841278612613
4.362314939498901e-05
-0.0067513287067413
-0.0147918239235877
-0.0242421925067901
-0.0351817682385444
-0.0475479587912559
-0.0611008033156394
-0.0754191428422927
-0.0899302586913108
-0.1039643287658691
-0.1168205216526985
-0.1278384029865265
-0.1364675313234329
-0.1423227041959762
-0.1452167332172393
-0.1451664268970489
-0.1423729360103607
-0.1371902227401733
-0.1300914734601974
-0.121625006198883
-0.112353965640068
-0.1027914136648178
-0.0933466106653213
-0.0842938348650932
-0.0757685750722885
-0.0677872821688652
-0.0602813959121704
-0.0531307533383369
-0.0461794957518577
-0.039233524352312
-0.0320538505911827
-0.0243554078042507
-0.0158191174268722
-0.0061306618154048
0.0049538165330886
0.0175401717424392
0.0315495058894157
0.0466945059597492
0.0624801777303218
0.0782385021448135
0.0932005643844604
0.1065961793065071
0.1177606284618377
0.1262245327234268
0.1317697316408157
0.1344422847032547
0.1345212459564209
0.1324566751718521
0.1287978440523147
0.1241192519664764
0.118946760892868
0.1136992797255516
0.1086606681346893
0.1039789915084838
0.0996817350387573
0.0956998243927955
0.0918976664543151
0.0881062522530555
0.0841580256819725
0.0799211114645004
0.0753269642591476
0.0703865885734558
0.0651914253830909
0.0599000453948974
0.0547156669199466
0.0498522743582725
0.0454943925142288
0.0417700074613094
0.0387424752116203
0.0364129245281219
0.0347297303378582
0.0336031652987003
0.0329205617308616
0.0325583927333354
0.0323880016803741
0.0322712175548076
0.0320457406342029
0.0315091684460639
0.0304174404591321
0.0285068769007921
0.0255343616008758
0.0213203318417072
0.0157833658158779
0.0089686587452888
0.0010692700743675
-0.0075762048363685
-0.0165173783898353
-0.0252454653382301
-0.0332533568143844
-0.0400948598980903
-0.0454333797097206
-0.0490723624825477
-0.0509684197604656
-0.0512298010289669
-0.050098031759262
-0.0479091927409172
-0.0450424328446388
-0.0418775901198387
-0.0387712568044662
-0.0360346026718616
-0.0339030027389526
-0.0325111597776412
-0.0318856984376907
-0.0319531708955764
-0.0325588285923004
-0.0334924086928367
-0.0345185920596122
-0.0354113243520259
-0.0359861403703689
-0.0361231379210948
-0.0357767790555954
-0.0349688306450843
-0.033768318593502
-0.0322752743959426
-0.0306192804127931
-0.0289674252271652
-0.0275337882339954
-0.02658287063241
-0.026417464017868
-0.0273469779640436
-0.0296400226652622
-0.0334703028202056
-0.0388685353100299
-0.045692790299654
-0.0536242835223674
-0.062190294265747
-0.0708119869232177
-0.0788687765598297
-0.0857680886983871
-0.0910168439149856
-0.0942883118987083
-0.0954642742872238
-0.0946381688117981
-0.0920828878879547
-0.0881954804062843
-0.0834367200732231
-0.0782786160707473
-0.0731605514883995
-0.0684524849057197
-0.0644275918602943
-0.0612451247870922
-0.0589421205222606
-0.0574324168264865
-0.056513849645853
-0.0558899864554405
-0.0552124306559562
-0.054138533771038
-0.0523869693279266
-0.0497771352529525
-0.0462476797401905
-0.0418524369597435
-0.0367387346923351
-0.0311163216829299
-0.025223683565855
-0.0193006545305252
-0.0135775543749332
-0.008286029100418
-0.0036840364336967
-7.046014070510864e-05
0.0022341609001159
0.0029373094439506
0.0018320605158805
-0.0011531934142112
-0.0059180632233619
-0.0121716558933258
-0.0194399878382682
-0.0271032750606536
-0.0344569385051727
-0.0407852977514267
-0.0454383492469787
-0.0479017794132232
-0.0478503108024597
-0.045177437365055
-0.0399980098009109
-0.0326237082481384
-0.0235150158405303
-0.0132178515195846
-0.0023000985383987
0.008699893951416
0.0193165987730026
0.0291971564292907
0.0381298437714576
0.04605133831501
0.0530322641134262
0.0592454075813293
0.0649232491850853
0.0703150406479835
0.0756497681140899
0.0811059400439262
0.0867920815944671
0.0927417501807212
0.0989217460155487
0.1052475422620773
0.1115955486893653
0.1178030744194984
0.1236567422747612
0.1288765668869018
0.1331062763929367
0.1359233260154724
0.1368804425001144
0.1355773210525512
0.1317443251609802
0.125315174460411
0.1164705827832222
0.1056426763534545
0.0934802964329719
0.080784797668457
0.0684289634227752
0.0572674199938774
0.0480440109968185
0.0413066670298576
0.0373482555150985
0.0361864194273948
0.0375814959406852
0.0410849377512931
0.0461058840155601
0.0519841685891151
0.0580667927861213
0.0637826174497604
0.0686997547745704
0.0725527852773666
0.075243204832077
0.0768244042992591
0.0774753093719482
0.0774596184492111
0.0770712420344352
0.0765801668167114
0.0761966630816459
0.0760570988059043
0.0762238502502441
0.0766921490430831
0.0774008631706237
0.0782453864812851
0.0790846496820449
0.079731710255146
0.0799280479550361
0.0793235078454017
0.0774891525506973
0.0739684626460075
0.0683575123548507
0.0604000240564346
0.0500672236084938
0.0375941395759582
0.0234724543988704
0.0084089934825897
-0.0067481491714715
-0.0211046021431684
-0.0338189117610454
-0.0441948324441909
-0.05175606533885
-0.0562923923134803
-0.0578696317970752
-0.0568051189184188
-0.0536176115274429
-0.0489571206271648
-0.0435181930661201
-0.0379500165581703
-0.0327886529266834
-0.028424022719264
-0.0250869765877723
-0.0228452123701572
-0.0216142013669013
-0.021187700331211
-0.0212837196886539
-0.0215944070369005
-0.0218288823962211
-0.0217482205480337
-0.0211908277124166
-0.0200813487172126
-0.0184241756796836
-0.0162893421947956
-0.0137957781553268
-0.0110974051058292
-0.0083867982029914
-0.0059230737388134
-0.0040604174137115
-0.0032473802566528
-0.0039865523576736
-0.0067589879035949
-0.011929266154766
-0.0196538791060447
-0.0298144519329071
-0.0419941022992134
-0.0555069111287593
-0.0694750696420669
-0.0829324945807457
-0.0949340537190437
-0.1046591252088546
-0.1114973723888397
-0.1151058375835418
-0.1154341697692871
-0.1127146556973457
-0.1074160486459732
-0.1001704484224319
-0.0916888564825058
-0.0826782435178756
-0.0737676471471786
-0.065450944006443
-0.0580532625317573
-0.0517211928963661
-0.046432614326477
-0.0420250371098518
-0.0382410436868667
-0.034780066460371
-0.0313437618315219
-0.0276752971112728
-0.023594781756401
-0.0190187841653823
-0.0139571614563465
-0.0084966123104095
-0.0027797184884548
0.0030163638293743
0.008696187287569
0.0140473172068595
0.0188180580735206
0.0226862020790576
0.0252529382705688
0.0260808281600475
0.0247685201466083
0.0210447162389755
0.0148564241826534
0.0064188539981842
-0.0037910528481006
-0.0150863528251647
-0.0266454666852951
-0.0375986844301223
-0.0471177473664283
-0.0544992573559284
-0.0592346675693988
-0.0610590726137161
-0.0599710494279861
-0.0562191419303417
-0.0502579361200332
-0.0426839813590049
-0.0341589897871017
-0.0253282189369201
-0.0167490486055612
-0.0088430121541023
-0.0018743984401226
0.0040522702038288
0.0089811794459819
0.0130770746618509
0.0165809467434883
0.0197589397430419
0.0228559058159589
0.0260632280260324
0.0295031163841485
0.0332236513495445
0.0372001565992832
0.0413429848849773
0.0455112904310226
0.0495302155613899
0.0532018989324569
0.0562950782477855
0.0585178099572658
0.0595061443746089
0.0588543526828289
0.0561812371015548
0.0512124709784984
0.0438597351312637
0.0342781171202659
0.0228827893733978
0.0103183165192604
-0.0026116073131561
-0.0150399040430784
-0.0261375941336154
-0.0352023541927337
-0.0417265072464942
-0.0454415120184421
-0.0463370122015476
-0.0446526035666465
-0.0408397689461708
-0.0354981534183025
-0.0292949341237545
-0.0228789709508419
-0.0168059524148702
-0.0114853531122207
-0.007153345271945
-0.0038737319409847
-0.0015631448477506
-3.051944077014923e-05
0.0009789858013391
0.0017408393323421
0.0025142766535282
0.0035160649567842
0.0048987530171871
0.0067322067916393
0.0090015958994627
0.0116243753582239
0.014472983777523
0.017393235117197
0.0202102642506361
0.0227133855223655
0.0246296878904104
0.0256154537200927
0.0252837967127561
0.0232654977589845
0.019290629774332
0.0132693164050579
0.0053479447960853
-0.0040753502398729
-0.0143872927874326
-0.0248405840247869
-0.0346501730382442
-0.0430829711258411
-0.0495337471365928
-0.0535829216241836
-0.0550341494381427
-0.0539278239011764
-0.0505261421203613
-0.0452726930379867
-0.0387323573231697
-0.0315175428986549
-0.0242139808833599
-0.0173186846077442
-0.0111927771940827
-0.0060327262617647
-0.0018718661740422
0.001386291347444
0.0039221690967679
0.0059592816978693
0.0077318944968283
0.0094586461782455
0.0113197565078735
0.0134397912770509
0.0158804114907979
0.0186439715325832
0.0216851234436035
0.0249232426285743
0.0282424427568912
0.0314737632870674
0.0343748480081558
0.0366266369819641
0.0378517024219036
0.0376521088182926
0.0356697775423526
0.0316667705774307
0.0256022047251462
0.0176769774407148
0.008335561491549
-0.0017758202739059
-0.0118900407105684
-0.0212187692523002
-0.0290471538901329
-0.0348122045397758
-0.0381600484251976
-0.0389742515981197
-0.0373713225126266
-0.0336693935096263
-0.0283405259251594
-0.0219552014023065
-0.0151197202503681
-0.0084081878885626
-0.0022995746694505
0.0028706947341561
0.0069356961175799
0.0098910201340913
0.0118653811514377
0.0130812618881464
0.0138112911954522
0.0143347196280956
0.0149011351168155
0.0157059468328952
0.016879079863429
0.0184856578707695
0.0205286294221878
0.0229438990354537
0.0255923494696617
0.0282553154975175
0.0306346490979194
0.0323630422353744
0.0330362021923065
0.0322702750563621
0.0297724604606628
0.0254075173288583
0.0192453432828187
0.0115791568532586
0.0029086559079587
-0.0061116768047213
-0.0147489048540592
-0.0222804918885231
-0.0280874706804752
-0.0317357406020164
-0.0330249108374118
-0.0319974943995475
-0.0289142429828643
-0.0242048725485801
-0.0184028837829828
-0.0120726833119988
-0.0057418318465352
0.0001493943855166
0.0052794553339481
0.0094614923000335
0.0126449465751647
0.0149037577211856
0.0164121892303228
0.0174088478088378
0.0181515961885452
0.0188734214752912
0.0197543129324913
0.0209101140499115
0.0223876796662807
0.0241670422255992
0.0261730160564184
0.0282832104712724
0.0303203389048576
0.0320360213518142
0.0331037566065788
0.0331379733979702
0.0317471176385879
0.0286095701158046
0.0235513150691986
0.0166062619537115
0.0080397380515933
-0.0016733102966099
-0.0119014140218496
-0.0219250656664371
-0.0310157723724842
-0.0385189354419708
-0.0439289398491382
-0.0469444394111633
-0.0474940724670887
-0.0457315817475318
-0.0420041196048259
-0.0367993786931037
-0.0306818913668394
-0.0242263171821832
-0.0179509315639734
-0.0122601669281721
-0.0074111041612923
-0.0035098013468086
-0.0005284324288368
0.0016663810238242
0.0032790070399641
0.0045487126335501
0.0057154288515448
0.0069901775568723
0.0085337162017822
0.0104445377364754
0.012754388153553
0.0154305677860975
0.0183813981711864
0.0214548502117395
0.0244279000908136
0.0269975941628217
0.0287847816944122
0.0293604992330074
0.0283045656979084
0.0252902023494243
0.0201692525297403
0.0130298035219311
0.0042116707190871
-0.0057208603248
-0.0160422660410404
-0.0259517394006252
-0.0346670448780059
-0.0415155217051506
-0.0460115037858486
-0.0479071252048015
-0.0472070463001728
-0.0441466905176639
-0.0391451679170131
-0.0327487625181674
-0.0255684684962034
-0.0182090923190116
-0.0112011497840285
-0.0049507291987538
0.0002889074385166
0.0044252071529626
0.0075138732790946
0.0097285043448209
0.0113176479935646
0.0125576350837945
0.0137118361890316
0.0150015214458107
0.0165875200182199
0.0185626037418842
0.0209516119211912
0.0237148068845272
0.026754168793559
0.0299159176647663
0.0329790562391281
0.0356386341154575
0.0375062227249145
0.038141194730997
0.0371133349835872
0.0340858697891235
0.0288977585732936
0.0216238442808389
0.0125964749604463
0.0023793806321918
-0.0082974443212151
-0.0186217203736305
-0.0277932081371545
-0.0351220853626728
-0.0401090011000633
-0.0424908176064491
-0.0422545745968818
-0.0396229177713394
-0.0350134633481502
-0.0289785750210285
-0.0221331529319286
-0.0150803010910749
-0.00834596529603
-0.0023308433592319
0.0027153845876455
0.0066986456513404
0.0096713462844491
0.011809954419732
0.0133708622306585
0.0146313309669494
0.0158393140882253
0.0171857681125402
0.018795883283019
0.0207300186157226
0.0229879841208457
0.0255183428525924
0.0282331444323062
0.0310153868049383
0.0337079018354415
0.0360899791121482
0.037858560681343
0.0386334136128425
0.0380026660859584
0.0356045179069042
0.0312143601477146
0.0248068273067474
0.0165839772671461
0.0069701522588729
-0.0034258314408361
-0.0138738676905632
-0.0236024782061576
-0.0318882502615451
-0.0381411425769329
-0.0419705212116241
-0.0432235039770603
-0.0419915467500686
-0.0385861471295356
-0.0334897376596927
-0.0272869206964969
-0.0205849222838878
-0.0139432959258556
-0.0078261792659759
-0.0025708870962262
0.0016326755285263
0.0047471947036683
0.00687399180606
0.0082215461879968
0.0090624252334237
0.009685412980616
0.0103530045598745
0.0112738506868481
0.012588420882821
0.0143626853823661
0.0165895838290452
0.019198253750801
0.0220626816153526
0.0249933991581201
0.0277121122926473
0.0298368744552135
0.0309038124978542
0.0304300691932439
0.0280054919421672
0.0233875680714845
0.0165727045387029
0.0078262034803628
-0.002334245480597
-0.0131942201405763
-0.0239252503961324
-0.0336841195821762
-0.0417147278785705
-0.0474329739809036
-0.0504825226962566
-0.0507637709379196
-0.0484381839632988
-0.0439010225236415
-0.0377201102674007
-0.0305530317127704
-0.0230606105178594
-0.0158291701227426
-0.0093111097812652
-0.0037917541339993
0.0006182552315294
0.0039689964614808
0.0064366208389401
0.0082737114280462
0.0097587248310446
0.0111574595794081
0.0126985162496566
0.0145527487620711
0.016812726855278
0.0194843802601099
0.0224959477782249
0.0257173031568527
0.0289804376661777
0.0320830717682838
0.0347676090896129
0.0366993397474288
0.037473227828741
0.0366574227809906
0.0338658578693866
0.0288440249860286
0.021546471863985
0.0121861789375543
0.001240836456418
-0.0105932038277387
-0.0224903207272291
-0.0335994698107242
-0.0431386306881904
-0.0504731237888336
-0.0551768504083156
-0.0570721849799156
-0.0562386289238929
-0.0529842004179954
-0.0477902218699455
-0.0412456393241882
-0.033976525068283
-0.0265752524137496
-0.0195403359830379
-0.0132331838831305
-0.0078526809811592
-0.0034348210319876
0.0001182500272989
0.0029936437495052
0.005424924660474
0.0076548904180526
0.0099025517702102
0.0123369907960295
0.0150635614991188
0.0181225724518299
0.0214942302554845
0.0251086708158254
0.0288605969399213
0.032618410885334
0.0362180285155773
0.0394425801932811
0.0420005917549133
0.0435199700295925
0.0435719341039657
0.0417317226529121
0.0376659445464611
0.0312222968786954
0.0224988237023353
0.0118722636252641
-2.8093811124563217e-05
-0.0123956017196178
-0.0243474077433347
-0.0350271314382553
-0.0436976812779903
-0.0498190186917781
-0.0531003326177597
-0.053514827042818
-0.0512775406241416
-0.0468031913042068
-0.040657103061676
-0.0334921851754188
-0.0259685218334198
-0.0186732485890388
-0.0120599856600165
-0.0064142011106014
-0.0018432741053402
0.0017101783305406
0.0044334917329251
0.0065943789668381
0.0084868315607309
0.0103822508826851
0.0124944932758808
0.0149638596922159
0.0178559832274913
0.0211652852594852
0.0248196609318256
0.0286921598017215
0.0326205566525459
0.036428827792406
0.0399413555860519
0.0429776981472969
0.0453254804015159
0.046708021312952
0.0467763319611549
0.0451467260718345
0.0414782613515853
0.0355657562613487
0.0274178273975849
0.0172969028353691
0.0057156048715114
-0.0066114193759858
-0.0188556611537933
-0.0301783122122287
-0.0398230478167533
-0.0471905842423439
-0.0518932044506073
-0.0537854097783565
-0.0529682263731956
-0.0497637055814266
-0.044662669301033
-0.0382575653493404
-0.0311719812452793
-0.0239939428865909
-0.0172169115394353
-0.0111939050257205
-0.0061142370104789
-0.0020102383568882
0.0012108308728784
0.0037256858777254
0.0057583637535572
0.007549709174782
0.0093274116516113
0.0112774213775992
0.0135247502475976
0.0161258596926927
0.0190702378749847
0.0222913734614849
0.0256844852119684
0.0291235689073801
0.0324742570519447
0.0356028266251087
0.0383714698255062
0.0406056158244609
0.0420487485826015
0.0423500090837478
0.0411107763648033
0.0379730984568595
0.0327143445611
0.0253223348408937
0.0160354450345039
0.005336151458323
-0.0060996413230896
-0.0174823980778455
-0.0280021354556083
-0.0369200035929679
-0.0436462089419364
-0.0477964282035827
-0.0492217652499675
-0.048016533255577
-0.0445078499615192
-0.0392165556550025
-0.0327835716307163
-0.0258778613060712
-0.0191093012690544
-0.0129622220993042
-0.007756101898849
-0.003633078187704
-0.0005687377415597
0.0015967162325978
0.0031115394085645
0.0042616948485374
0.0053283898159861
0.0065569742582738
0.0081343157216906
0.010170504450798
0.0126860700547695
0.0156136825680732
0.018818961456418
0.0221325978636741
0.025378618389368
0.0283840335905551
0.0309643857181072
0.0328951925039291
0.0338931493461132
0.0336298495531082
0.0317813083529472
0.0280980691313743
0.0224766433238983
0.0150164626538753
0.0060466118156909
-0.0038931854069232
-0.0141175305470824
-0.023885354399681
-0.032489888370037
-0.0393338054418563
-0.0439864918589592
-0.0462238229811191
-0.046044111251831
-0.0436558052897453
-0.0394430682063102
-0.0339150354266166
-0.0276417862623929
-0.0211859066039323
-0.0150405205786228
-0.0095798978582024
-0.0050258343107998
-0.0014400426298379
0.0012497976422309
0.0032069506123661
0.0046471431851387
0.0058066872879862
0.006911626085639
0.008149703964591
0.0096528436988592
0.0114920744672417
0.0136789726093411
0.0161697715520858
0.0188753381371498
0.0216786675155162
0.0244487896561622
0.0270400121808052
0.0292779114097356
0.0309348311275243
0.0317053310573101
0.0312120225280523
0.0290626492351293
0.0249412097036838
0.0186984669417142
0.0104160383343696
0.0004281997680664
-0.0107025057077407
-0.0222473219037055
-0.0333977565169334
-0.0433612391352653
-0.0514510050415992
-0.057158526033163
-0.0601992234587669
-0.0605263374745845
-0.0583204589784145
-0.0539635084569454
-0.0479902662336826
-0.0410174578428268
-0.0336678773164749
-0.0265008527785539
-0.0199537090957164
-0.0143033191561698
-0.0096562150865793
-0.0059678060933947
-0.0030800239183008
-0.0007636297959834
0.0012398725375533
0.003178626531735
0.0052595376037061
0.0076288543641567
0.0103595806285738
0.0134464669972658
0.0168166197836399
0.0203546043485403
0.0239281430840492
0.0274040885269641
0.0306546222418546
0.0335507094860076
0.0359369404613971
0.0375975109636783
0.0382397137582302
0.037516139447689
0.0350851379334926
0.0306918267160654
0.0242491159588098
0.015897836536169
0.0060212719254195
-0.0047942837700247
-0.0158329829573631
-0.0263323485851287
-0.0355648659169673
-0.0429151654243469
-0.0479429103434085
-0.0504187680780887
-0.0503331422805786
-0.0478839054703712
-0.0434457659721374
-0.0375217981636524
-0.0306804422289133
-0.0234882030636072
-0.0164485052227973
-0.0099520850926637
-0.0042484626173973
0.0005547320470213
0.004473646171391
0.0076219155453145
0.0101794190704822
0.0123594291508197
0.0143764689564704
0.0164166465401649
0.0186167564243078
0.0210567433387041
0.0237609855830669
0.026701483875513
0.0298042297363281
0.0329643599689006
0.0360686630010604
0.0390155464410781
0.0417184643447399
0.0440867841243743
0.0459942519664764
0.0472498163580894
0.0475844666361808
0.0466675385832786
0.0441557541489601
0.0397668592631816
0.0333621129393577
0.0250122845172882
0.0150237064808607
0.0039190612733364
-0.0076195998117327
-0.0188333261758089
-0.0289736576378345
-0.0373789891600608
-0.0435427315533161
-0.0471716336905956
-0.0482133068144321
-0.0468432046473026
-0.043424155563116
-0.0384496226906776
-0.0324775464832782
-0.0260653607547283
-0.0197135284543037
-0.0138220628723502
-0.0086645819246768
-0.0043788533657789
-0.0009695058688521
0.0016747880727052
0.0037481854669749
0.0054882122203707
0.0071352454833686
0.00889209844172
0.0108966827392578
0.0132149159908294
0.015846012160182
0.0187350995838642
0.0217902287840843
0.0248980820178985
0.0279382821172475
0.0307981353253126
0.0333841070532798
0.0356263816356658
0.0374734699726104
0.0388706475496292
0.0397253222763538
0.0398765318095684
0.0390830039978027
0.0370407737791538
0.0334410928189754
0.0280576944351196
0.0208289586007595
0.0119075216352939
0.001669431105256
-0.0093155931681394
-0.0203468799591064
-0.0306764170527458
-0.0395989939570426
-0.0465358607470989
-0.0510985478758811
-0.053124114871025
-0.0526790432631969
-0.050033088773489
-0.0456142835319042
-0.039956372231245
-0.0336385816335678
-0.0272188857197761
-0.0211722124367952
-0.0158466324210166
-0.011442151851952
-0.0080086104571819
-0.0054594539105892
-0.00360107421875
-0.0021761592943221
-0.0009138418827205
0.0004269052296876
0.0020302466582506
0.0040121516212821
0.0064208908006548
0.0092417821288108
0.0124006681144237
0.0157733336091041
0.0192053467035293
0.0225364975631237
0.0256232600659132
0.0283484626561403
0.0306071285158395
0.0322714298963546
0.0331559218466281
0.0330119282007217
0.0315617434680461
0.0285591799765825
0.0238581262528896
0.017472555860877
0.009611839428544
0.0006793271750211
-0.0087686972692608
-0.0180905945599079
-0.026632884517312
-0.0338003933429718
-0.0391213186085224
-0.0422981120645999
-0.0432338863611221
-0.0420331992208957
-0.0389802977442741
-0.0344969853758811
-0.0290851332247257
-0.0232644975185394
-0.0175154004245996
-0.0122290458530187
-0.0076693058945238
-0.0039591137319803
-0.0010969029972329
0.0010146019048988
0.0025431336835026
0.0037002288736402
0.0047080283984541
0.0057678343728184
0.0070388289168477
0.0086259134113788
0.0105730723589658
0.0128635838627815
0.0154291931539773
0.0181655511260032
0.0209507029503583
0.0236645340919494
0.0262028481811285
0.0284720920026302
0.0303575955331325
0.0316830426454544
0.0321901962161064
0.0315551497042179
0.0294390022754669
0.0255604516714811
0.0197746120393276
0.0121370237320661
0.0029312260448932
-0.0073471809737384
-0.0180438365787267
-0.0284242462366819
-0.0377596989274024
-0.0454045422375202
-0.0508611723780632
-0.0538340210914611
-0.0542632900178432
-0.0523232445120811
-0.0483825132250785
-0.0429415553808212
-0.0365661978721618
-0.0298248771578073
-0.0232297740876674
-0.0171872861683368
-0.0119664296507835
-0.0076889651827514
-0.0043383706361055
-0.001782608218491
0.0001909593120217
0.0018340330570936
0.0033999634906649
0.0051110717467963
0.0071288016624748
0.0095342099666595
0.0123243061825633
0.0154257956892251
0.0187227763235569
0.022084891796112
0.0253870952874422
0.0285227373242378
0.0314097888767719
0.0339840427041053
0.0361718162894248
0.0378475859761238
0.0388016924262046
0.0387427471578121
0.0373376682400703
0.0342731773853302
0.029323810711503
0.022419735789299
0.0137002635747194
0.0035322066396474
-0.0075164474546909
-0.0187397599220275
-0.0293772742152214
-0.0387010127305984
-0.0460936948657035
-0.0511112622916698
-0.0535244718194007
-0.0533344186842441
-0.0507593005895614
-0.0461946353316307
-0.0401559956371784
-0.0332191064953804
-0.0259651951491832
-0.0189259275794029
-0.0125287007540464
-0.007056200876832
-0.0026288833469152
0.0007878504693508
0.003353901207447
0.0053108986467123
0.0069349687546491
0.0084939310327172
0.0102136498317122
0.0122550660744309
0.0147038102149963
0.0175733156502246
0.0208186861127614
0.0243516098707914
0.028050061315298
0.0317722968757152
0.0353774055838584
0.0387350618839263
0.0417140014469623
0.0441547036170959
0.0458390489220619
0.046476311981678
0.0457229055464267
0.0432396605610847
0.0387739017605781
0.0322391875088214
0.0237673744559288
0.0137237096205353
0.0026842239312827
-0.008624505251646
-0.0194154884666204
-0.028939014300704
-0.0365636944770813
-0.041834644973278
-0.0445124879479408
-0.0445890091359615
-0.042274460196495
-0.0379611663520336
-0.0321719981729984
-0.0254982970654964
-0.0185318700969219
-0.0118005909025669
-0.0057181864976882
-0.0005517229437828
0.0035934094339609
0.0067631462588906
0.0091170202940702
0.0108806006610393
0.0123031679540872
0.0136220753192901
0.0150357298552989
0.0166881047189235
0.0186618585139513
0.0209776610136032
0.0236011482775211
0.0264551863074302
0.0294337589293718
0.0324183590710163
0.0352901592850685
0.0379227399826049
0.0401537865400314
0.0417521297931671
0.042403120547533
0.0417316816747188
0.0393652915954589
0.0350210219621658
0.0285926461219787
0.0202112607657909
0.0102594662457704
-0.0006625079549849
-0.0118068782612681
-0.0223696865141391
-0.0315873920917511
-0.0388251915574073
-0.043645791709423
-0.0458463504910469
-0.0454609803855419
-0.0427430234849453
-0.0381343141198158
-0.032211922109127
-0.025613933801651
-0.0189607795327901
-0.0127849169075489
-0.0074768792837858
-0.0032543246634304
-0.0001586514699738
0.0019205438438802
0.0032023983076214
0.003967385739088
0.0045128436759114
0.0051126200705766
0.0059866015799343
0.0072857858613133
0.0090856794267892
0.0113813057541847
0.0140934269875288
0.0170895121991634
0.020206443965435
0.0232657343149185
0.0260722748935222
0.0283896196633577
0.0299122929573059
0.0302693918347358
0.029070982709527
0.0259836018085479
0.0208122413605451
0.0135669503360986
0.0044975597411394
-0.0059122657403349
-0.0169937089085578
-0.0279742926359176
-0.0380680486559867
-0.0465588644146919
-0.0528773367404937
-0.0566623918712139
-0.0577912703156471
-0.0563766211271286
-0.0527400821447372
-0.0473664253950119
-0.0408405773341655
-0.0337762273848056
-0.026744857430458
-0.020213508978486
-0.0145015800371766
-0.0097627295181155
-0.0059940093196928
-0.003068892750889
-0.0007807913934811
0.0011143758893013
0.0028603845275938
0.0046700201928615
0.0067038764245808
0.0090607041493058
0.0117773627862334
0.0148334009572863
0.0181591212749481
0.021648833528161
0.0251759253442287
0.0285991635173559
0.0317516811192035
0.0344137512147426
0.0362815372645854
0.0369584076106548
0.0359960533678531
0.0329837389290332
0.0276529677212238
0.019962191581726
0.0101423868909478
-0.0013033291324973
-0.0136482566595077
-0.0260304361581802
-0.0375582724809646
-0.0474119037389755
-0.0549292787909507
-0.0596720390021801
-0.0614627003669738
-0.0603834725916385
-0.056745808571577
-0.0510471388697624
-0.0439135544002056
-0.0360239148139953
-0.028026832267642
-0.0204689800739288
-0.0137456767261028
-0.0080761276185512
-0.0035040657967329
7.804669439792633e-05
0.0028888145461678
0.0052097304724156
0.0073348637670278
0.0095267826691269
0.011988510377705
0.0148514658212661
0.0181679911911487
0.0219060890376567
0.0259576831012964
0.0301635861396789
0.0343446098268032
0.0383246839046478
0.0419336333870887
0.0449857376515865
0.0472449027001857
0.0484013929963111
0.0480863600969314
0.0459312349557876
0.041654285043478
0.0351447351276874
0.0265218950808048
0.0161590557545423
0.0046617770567536
-0.007202613633126
-0.0186023488640785
-0.0287371166050434
-0.0369213558733463
-0.0426513403654098
-0.0456500500440597
-0.0458852015435695
-0.0435599535703659
-0.0390786118805408
-0.0329905375838279
-0.0259198397397995
-0.0184929389506578
-0.0112709859386086
-0.0046915747225284
0.0009692003950476
0.0056021837517619
0.0092408135533332
0.0120254354551434
0.0141675025224685
0.0159136187285184
0.0175119619816541
0.0191825181245803
0.0210913158953189
0.0233343690633773
0.0259354412555694
0.0288551542907953
0.0320064425468444
0.0352709665894508
0.0385137796401977
0.0415961556136608
0.0443779379129409
0.0466936193406581
0.0483085736632347
0.04889402911067
0.0480520613491535
0.0453866012394428
0.0405948162078857
0.0335524678230285
0.0243736132979393
0.0134313981980085
0.0013329302892088
-0.011148065328598
-0.023163802921772
-0.0338900573551654
-0.0426170788705349
-0.0488247759640216
-0.0522306337952613
-0.0528084114193916
-0.050783172249794
-0.0465981662273407
-0.0408488623797893
-0.0341974981129169
-0.02728933095932
-0.0206840429455041
-0.014807092025876
-0.0099208997562527
-0.0061154658906161
-0.0033210846595466
-0.0013427643571048
9.367428719997406e-05
0.0012916366104036
0.0025351259391754
0.0040541007183492
0.0060050869360566
0.0084574948996305
0.011391345411539
0.0147124100476503
0.018274936825037
0.0219042599201202
0.0254186410456895
0.0286416858434677
0.0313900485634803
0.0334410928189754
0.034510426223278
0.0342634469270706
0.0323629677295684
0.0285421144217252
0.0226845331490039
0.0148886535316705
0.0054920241236686
-0.0049550021067261
-0.0157539118081331
-0.0261406023055315
-0.0353723093867301
-0.0428085066378116
-0.0479769706726074
-0.050618227571249
-0.0507037453353405
-0.048429250717163
-0.0441854000091552
-0.0385053567588329
-0.0319933705031871
-0.025246288627386
-0.018782839179039
-0.0129918111488223
-0.0081065986305475
-0.0042074802331626
-0.0012423209846019
0.0009443908929824
0.002577562816441
0.0039138980209827
0.0052040638402104
0.0066598579287528
0.0084305191412568
0.0105917556211352
0.0131475357338786
0.016039203852415
0.0191586408764123
0.0223664175719022
0.0255121402442455
0.0284424796700477
0.0309795849025249
0.0328809022903442
0.0338193513453006
0.0334076285362243
0.0312596336007118
0.0270716566592454
0.0207050871104002
0.0122493896633386
0.002046363428235
-0.0093316398561
-0.0211436804383993
-0.0325673185288906
-0.0427929162979126
-0.0511125773191452
-0.0569930896162986
-0.0601236708462238
-0.060441642999649
-0.0581373944878578
-0.0536246299743652
-0.0474760569632053
-0.0403450839221477
-0.0328851528465747
-0.0256720073521137
-0.0191416833549737
-0.0135568529367446
-0.0090052420273423
-0.0054218643344938
-0.0026230092626065
-0.000349524692865
0.0016826093196868
0.0037374231033027
0.0060291360132396
0.008701829239726
0.0118137737736105
0.0153350308537483
0.0191645063459873
0.0231577716767787
0.0271540824323892
0.0309969242662191
0.0345447771251201
0.0376652739942073
0.0402084626257419
0.041971106082201
0.042675856500864
0.0419839173555374
0.0395448915660381
0.03507586941123
0.0284516308456659
0.0197733677923679
0.0093877930194139
-0.0021418295800685
-0.0140948127955198
-0.0256702825427055
-0.0360747948288917
-0.0446104146540164
-0.0507511012256145
-0.0541943162679672
-0.054880354553461
-0.0529818348586559
-0.0488689988851547
-0.0430562272667884
-0.0361360609531402
-0.0287062097340822
-0.0213002599775791
-0.0143418991938233
-0.0081290490925312
-0.0028292750939726
0.0015247836709022
0.005025906022638
0.0078596156090497
0.0102613819763064
0.0124762896448373
0.0147227467969059
0.017165208235383
0.0199011676013469
0.0229592658579349
0.026305291801691
0.0298549495637416
0.0334932468831539
0.0370977446436882
0.0405528619885444
0.0437461957335472
0.0465501956641674
0.0487924702465534
0.0502246022224426
0.050513882189989
0.0492787063121795
0.046163123100996
0.0409224443137645
0.0334969088435173
0.0240611713379621
0.0130339469760656
0.0010411408729851
-0.0111541301012039
-0.0227361619472503
-0.0329250879585742
-0.0410640276968479
-0.0466940216720104
-0.0495980195701122
-0.0498068928718566
-0.0475767478346824
-0.0433453507721424
-0.0376704484224319
-0.0311579890549182
-0.0243910793215036
-0.0178690645843744
-0.0119660198688507
-0.0069098356179893
-0.0027787196449935
0.0004839776083827
0.0030409758910536
0.0051262741908431
0.0070008574984967
0.0089017255231738
0.0110052386298775
0.0134131852537393
0.0161525942385196
0.0191838964819908
0.0224161446094512
0.0257285237312316
0.028994221240282
0.0320984795689582
0.0349477306008338
0.0374694094061851
0.0395976677536964
0.0412439703941345
0.0422624349594116
0.0424260608851909
0.0414297729730606
0.0389307253062725
0.0346226505935192
0.0283249747008085
0.0200598686933517
0.0100921532139182
-0.0010803434997797
-0.0127788772806525
-0.0242227092385292
-0.0346224606037139
-0.0432740896940231
-0.0496369898319244
-0.0533871725201606
-0.0544425323605537
-0.0529571510851383
-0.0492875427007675
-0.0439435020089149
-0.0375323072075843
-0.0306915771216154
-0.02401078119874
-0.0179597698152065
-0.0128442905843257
-0.0087936799973249
-0.0057746712118387
-0.0036241742782294
-0.0020931549370288
-0.0008920677937567
0.000265410519205
0.0016214929055422
0.0033446424640715
0.0055200993083417
0.0081594083458185
0.0112148560583591
0.0145878735929727
0.0181391444057226
0.0217085890471935
0.0251375567167997
0.0282781030982732
0.0309777203947305
0.0330448448657989
0.0342201068997383
0.0341801606118679
0.0325845927000045
0.0291534382849931
0.0237477961927652
0.0164287406951189
0.007483322173357
-0.0025855088606476
-0.0131087619811296
-0.0233357958495616
-0.0325300246477127
-0.0400527529418468
-0.0454261600971221
-0.0483734980225563
-0.0488371364772319
-0.046973418444395
-0.0431236401200294
-0.037767082452774
-0.0314627289772033
-0.0247854124754667
-0.0182633996009826
-0.0123220076784491
-0.0072417766787111
-0.0031423601321876
5.963840521872044e-06
0.0023495010100305
0.0041073337197303
0.005527573172003
0.0068502821959555
0.0082795619964599
0.0099645731970667
0.0119883175939321
0.0143656143918633
0.0170517861843109
0.019960094243288
0.0229815021157264
0.025999279692769
0.0288975834846496
0.0315653495490551
0.0338879376649856
0.0357167571783065
0.036828014999628
0.0369056053459644
0.0355745181441307
0.032477032393217
0.027361998334527
0.0201600641012191
0.0110286930575966
0.0003582593053579
-0.0112587017938494
-0.0230867117643356
-0.0343291275203228
-0.0442203655838966
-0.0521107874810695
-0.0575321651995182
-0.0602377615869045
-0.060218445956707
-0.0576965101063251
-0.0530927330255508
-0.0469688586890697
-0.0399530939757823
-0.0326594151556491
-0.0256185941398143
-0.0192311331629753
-0.0137412454932928
-0.0092322593554854
-0.0056439833715558
-0.002806038595736
-0.0004776916466653
0.0016098222695291
0.0037114792503416
0.0060355579480528
0.008722374215722
0.0118306139484047
0.0153339076787233
0.0191333759576082
0.0230839680880308
0.0270261242985725
0.0308129377663135
0.0343242734670639
0.037464864552021
0.0401481389999389
0.0422663874924182
0.0436530783772468
0.0440596081316471
0.0431716926395893
0.0406691022217273
0.0363078489899635
0.0299942921847105
0.0218295380473136
0.0121229430660605
0.0013787006027996
-0.0097480500116944
-0.0205229818820953
-0.030217096209526
-0.0381877310574054
-0.0439462624490261
-0.0472059398889541
-0.0479034930467605
-0.0461930930614471
-0.0424175001680851
-0.0370599515736103
-0.030679864808917
-0.0238424632698297
-0.0170581825077533
