bvp
0.024258267134428
0.0214087776839733
0.017179561778903
0.0116977272555232
0.0052470350638031
-0.0017607593908905
-0.0088352803140878
-0.0154644129797816
-0.021170862019062
-0.0255631599575281
-0.0283724106848239
-0.0294667426496744
-0.0288424529135227
-0.0265977811068296
-0.0229041948914527
-0.017986100167036
-0.0120980106294155
-0.005488290451467
0.0016372621757909
0.0091310311108827
0.0168908294290304
0.0248279627412557
0.032836053520441
0.040776178240776
0.0484769120812416
0.0557398200035095
0.0623437911272048
0.068046823143959
0.0725930780172348
0.0757277384400367
0.07720747590065
0.076807752251625
0.0743459016084671
0.0697210803627967
0.0629491209983825
0.0541739836335182
0.043654665350914
0.0317377895116806
0.0188263356685638
0.0053503550589084
-0.0082585029304027
-0.0215878412127494
-0.0342619828879833
-0.0459567494690418
-0.0564061813056468
-0.0654001384973526
-0.0727858543395996
-0.0784801989793777
-0.0824780687689781
-0.0848463624715805
-0.0857129916548729
-0.0852605700492858
-0.0837205350399017
-0.0813595205545425
-0.0784603059291839
-0.0753035545349121
-0.0721472203731536
-0.0691996216773986
-0.0665938630700111
-0.0643737018108367
-0.0624914467334747
-0.0608161762356758
-0.0591578856110572
-0.0573058724403381
-0.0550661757588386
-0.0522870421409606
-0.0488703958690166
-0.0447734370827674
-0.0400083996355533
-0.0346406698226928
-0.0287826247513294
-0.0225898399949073
-0.0162641704082489
-0.0100566875189542
-0.0042602261528372
0.0008123638108372
0.0048629306256771
0.0076540475711226
0.0090518146753311
0.0090468013659119
0.0077580856159329
0.0054307356476783
0.0024209450930356
-0.0008366983383893
-0.0038753114640712
-0.0062482506036758
-0.0075815320014953
-0.0076172612607479
-0.0062387995421886
-0.0034742765128612
0.0005172677338123
0.0054737888276577
0.0110719893127679
0.016973290592432
0.0228568781167268
0.0284368656575679
0.0334730334579944
0.0377736911177635
0.0411843582987785
0.0435731559991836
0.0448334999382495
0.0449122712016105
0.0438522212207317
0.0418238826096057
0.0391270220279693
0.0361604169011116
0.0333665609359741
0.031163565814495
0.0298857614398002
0.0297423601150512
0.0307867880910635
0.0328985936939716
0.0357906743884086
0.0390409231185913
0.0421379022300243
0.0445412546396255
0.0457595363259315
0.0454390197992324
0.04345378652215
0.039977591484785
0.0354998931288719
0.0307557862251997
0.0265828799456357
0.0237541459500789
0.0228379964828491
0.0241153445094823
0.0275523141026496
0.0328165292739868
0.0393342599272728
0.0463787317276001
0.0531666241586208
0.0589495822787284
0.0630992874503135
0.0651765465736389
0.0649683326482772
0.0624867975711822
0.0579378083348274
0.0516721978783607
0.0441346354782581
0.0358238257467746
0.0272702071815729
0.0190239660441875
0.0116333868354558
0.0056041409261524
0.0013538571074604
-0.0008292058482766
-0.0008248519152402
0.0012911949306726
0.0052393497899174
0.0105486940592527
0.0165899749845266
0.0226318389177322
0.0279176775366067
0.0317515656352043
0.0335810557007789
0.0330616384744644
0.0300859548151493
0.0247758850455284
0.0174443013966083
0.0085384398698806
-0.0014123693108558
-0.0118350684642791
-0.0221478287130594
-0.0317991375923156
-0.0403087884187698
-0.0473053529858589
-0.0525572039186954
-0.055992167443037
-0.057698268443346
-0.0579068772494792
-0.0569633357226848
-0.055283635854721
-0.0532961972057819
-0.0513786152005195
-0.0498130172491073
-0.0487727411091327
-0.0483247376978397
-0.0484357327222824
-0.0489880591630935
-0.0498066619038581
-0.0506907999515533
-0.051445335149765
-0.0519067011773586
-0.0519587434828281
-0.0515364930033683
-0.0506215393543243
-0.0492345914244651
-0.0474279299378395
-0.0452805049717426
-0.0429021790623664
-0.0404522344470024
-0.0381610915064811
-0.0363322012126445
-0.0353141538798809
-0.0354481972754001
-0.0370019897818565
-0.0401072837412357
-0.0447195023298263
-0.0506054535508155
-0.0573598556220531
-0.064449667930603
-0.0712754726409912
-0.0772377997636795
-0.0818024054169654
-0.0845555886626243
-0.0852391868829727
-0.0837692841887474
-0.0802453085780143
-0.0749390572309494
-0.0682544186711311
-0.0606660917401313
-0.0526527091860771
-0.0446385778486728
-0.0369538366794586
-0.0298154205083847
-0.0233241729438304
-0.0174743123352527
-0.0121743902564048
-0.0072761587798595
-0.002605851739645
0.0020090267062187
0.0067216344177722
0.0116490758955478
0.0168519727885723
0.0223247744143009
0.0280072800815105
0.0338057801127433
0.0396086424589157
0.0452897846698761
0.0506990328431129
0.0556459166109561
0.0598889999091625
0.0631407126784324
0.0650933310389518
0.0654647499322891
0.0640530586242675
0.0607892982661724
0.0557805113494396
0.0493255332112312
0.0418885052204132
0.034042228013277
0.0264049060642719
0.0195775032043457
0.0140822269022464
0.0103107541799545
0.0084892660379409
0.0086629539728164
0.0107018798589706
0.0143245048820972
0.0191359743475914
0.0246814712882041
0.0305058509111404
0.0362058989703655
0.0414674915373325
0.0460825711488723
0.0499473698437213
0.0530518218874931
0.0554651357233524
0.0573159344494342
0.0587670058012008
0.0599883124232292
0.0611339695751667
0.0623262003064155
0.0636455789208412
0.0651257783174514
0.0667521208524704
0.0684651359915733
0.0701666176319122
0.071721002459526
0.0729477927088737
0.0736086964607238
0.0734044164419174
0.0720008984208107
0.0690850839018821
0.0644315928220748
0.0579641833901405
0.0497960783541202
0.0402359589934349
0.0297629851847887
0.0189793705940246
0.008544448763132
-0.000900249928236
-0.0088011138141155
-0.0147506380453705
-0.0185275916010141
-0.0201109163463115
-0.0196694694459438
-0.0175348706543445
-0.0141565175727009
-0.0100417155772447
-0.0056931776925921
-0.0015527131035923
0.0020432155579328
0.0048887296579778
0.0069104121066629
0.0081486627459526
0.0087277544662356
0.008825259283185
0.0086445836350321
0.0083876950666308
0.0082302074879407
0.0083054499700665
0.0086933625862002
0.0094093745574355
0.0104051008820533
0.0115861892700195
0.0128305070102214
0.0139925517141819
0.0148949213325977
0.0153158567845821
0.0149894505739212
0.0136298909783363
0.0109749697148799
0.0068385750055313
0.0011601075530052
-0.0059612169861793
-0.0142513252794742
-0.0232710316777229
-0.032461043447256
-0.0412159189581871
-0.0489606782793998
-0.0552115738391876
-0.0596206225454807
-0.0620071142911911
-0.0623720958828926
-0.060888722538948
-0.0578703805804252
-0.0537249334156513
-0.0489010103046894
-0.043834164738655
-0.0389013886451721
-0.034387718886137
-0.0304670222103595
-0.0271989963948726
-0.0245443768799304
-0.0223957784473896
-0.0206111073493957
-0.01903872564435
-0.0175362229347229
-0.0159865114837884
-0.0143082439899444
-0.012457625940442
-0.0104246642440557
-0.0082278288900852
-0.0059091597795486
-0.0035334974527359
-0.001195453107357
0.0009672343730926
0.0027629993855953
0.0039489679038524
0.0042474493384361
0.0033751614391803
0.001089684665203
-0.0027520321309566
-0.0081409737467765
-0.014886237680912
-0.0226181577891111
-0.0308232605457305
-0.038902398198843
-0.0462414398789405
-0.052281592041254
-0.0565822161734104
-0.0588710680603981
-0.0590696781873703
-0.0572874918580055
-0.0537903234362602
-0.0489570125937461
-0.0432354174554348
-0.0370949134230613
-0.0309733133763074
-0.0252304747700691
-0.0201199222356081
-0.0157757923007011
-0.0122110350057482
-0.0093309031799435
-0.0069641415029764
-0.0049056708812713
-0.002957803197205
-0.000958165153861
0.0012064399197697
0.0035969028249382
0.0062292926013469
0.0090834237635135
0.0121032418683171
0.0151987485587596
0.0182569287717342
0.0211511645466089
0.0237376410514116
0.0258409585803747
0.0272436998784542
0.0276952795684337
0.026944613084197
0.0247865989804267
0.0211074259132146
0.0159224346280097
0.009403184056282
0.0018838010728359
-0.0061603826470673
-0.0141628477722406
-0.021539332345128
-0.0277628879994153
-0.0324186161160469
-0.0352365225553512
-0.0361083224415779
-0.0350897945463657
-0.0323867872357368
-0.0283230673521757
-0.0232950411736965
-0.0177237279713153
-0.0120112858712673
-0.0065039740875363
-0.0014619240537285
0.0029619061388075
0.0067256898619234
0.0098797371610999
0.0125335603952407
0.0148241790011525
0.0168916769325733
0.0188616905361413
0.0208333954215049
0.0228725373744964
0.0250109694898128
0.0272506959736347
0.029568925499916
0.0319228656589984
0.0342550948262214
0.0364991314709186
0.0385761559009552
0.0403781272470951
0.0417495518922805
0.0424792170524597
0.0423057004809379
0.040942944586277
0.0381293669342994
0.0336930193006992
0.027613878250122
0.0200591087341308
0.0113806221634149
0.0020827872212976
-0.0072304932400584
-0.0159243717789649
-0.0234064664691686
-0.0291923135519027
-0.0329569168388843
-0.0345650166273117
-0.0340724661946296
-0.0317057333886623
-0.0278304480016231
-0.0229074228554964
-0.0174342226237058
-0.0118818944320082
-0.0066410433501005
-0.0019872412085533
0.001931264065206
0.0050870282575488
0.0075539648532867
0.0094792488962411
0.0110502801835536
0.0124616855755448
0.0138886030763387
0.0154707795009016
0.0173051990568637
0.0194388553500175
0.0218597911298275
0.0244963560253381
0.0272268969565629
0.0298909023404121
0.032303050160408
0.0342773869633674
0.0356538258492946
0.0363077968358993
0.0361352004110813
0.0350283868610858
0.0328643545508384
0.0295135006308555
0.0248700361698865
0.018898107111454
0.0116755701601505
0.0034155114553868
-0.0055403616279363
-0.0147482175379991
-0.0237010046839714
-0.03187757730484
-0.038795880973339
-0.0440612956881523
-0.0474061369895935
-0.0487171187996864
-0.048044953495264
-0.0455931313335895
-0.0416876226663589
-0.0367332734167575
-0.0311651714146137
-0.0253989100456237
-0.0197837930172681
-0.014573716558516
-0.0099235195666551
-0.0058964034542441
-0.0024720579385757
0.0004378389567136
0.0029651960358023
0.0052597401663661
0.0074657122604548
0.0097037563100457
0.0120600229129195
0.0145802590996027
0.0172691326588392
0.0200956910848617
0.0230026394128799
0.0259195826947689
0.0287770330905914
0.0315109267830848
0.0340570099651813
0.0363424867391586
0.0382742136716842
0.0397213362157344
0.0404992811381816
0.0403685308992862
0.0390568152070045
0.0363014005124568
0.0319035314023494
0.0257850661873817
0.0180329084396362
0.0089183803647756
-0.0011128473561257
-0.0114774843677878
-0.021514605730772
-0.0305654276162385
-0.0380597822368145
-0.0435857325792312
-0.0469268932938575
-0.0480687506496906
-0.0471797920763492
-0.0445741675794124
-0.0406637825071811
-0.0359053388237953
-0.0307485684752464
-0.0255918577313423
-0.0207473561167716
-0.016418794170022
-0.0126967895776033
-0.0095684230327606
-0.006934693083167
-0.004638529382646
-0.0025041103363037
-0.0003740116953849
0.0018698675557971
0.0043017286807298
0.006954435724765
0.0098224505782127
0.0128655163571238
0.0160160362720489
0.0191900916397571
0.022298626601696
0.0252571664750576
0.0279944781213998
0.0304554514586925
0.0325933508574962
0.0343507900834083
0.0356278829276561
0.0362486094236373
0.0359537526965141
0.0344346687197685
0.031395848840475
0.0266289804130792
0.020083200186491
0.0119113093242049
0.0024759457446634
-0.0076828617602586
-0.0179087780416011
-0.0275080353021621
-0.0358295515179634
-0.0423335582017898
-0.0466438494622707
-0.0485798865556716
-0.0481703951954841
-0.0456475876271724
-0.0414123944938182
-0.0359740108251571
-0.0298823751509189
-0.0236633867025375
-0.0177619364112615
-0.0125038474798202
-0.0080798380076885
-0.0045455554500222
-0.0018352782353758
0.0002110451459884
0.0018110587261617
0.0031991645228117
0.0045907567255198
0.0061611551791429
0.008032914251089
0.010260947048664
0.0128250205889344
0.0156400110572576
0.0185800250619649
0.0215086955577135
0.024305623024702
0.0268819257616996
0.0291834324598312
0.0311779845505952
0.0328255705535411
0.0340401269495487
0.0346619039773941
0.0344588048756122
0.0331602618098259
0.030512299388647
0.0263353586196899
0.0205727182328701
0.0133283920586109
0.0048873689956963
-0.0042957030236721
-0.0136415492743253
-0.0225128605961799
-0.0302885584533214
-0.0364388674497604
-0.0405909195542335
-0.0425676368176937
-0.0423949807882308
-0.0402845963835716
-0.0365965329110622
-0.031785599887371
-0.0263376664370298
-0.0207118187099695
-0.0153031293302774
-0.0104197124019265
-0.0062635131180286
-0.0029176766984164
-0.0003483647014945
0.0015746657736599
0.0030428222380578
0.0042697098106145
0.0054580867290496
0.0067764902487397
0.0083451569080352
0.010229593142867
0.0124401599168777
0.014939690940082
0.0176592469215393
0.0205097515136003
0.023381657898426
0.0261410269886255
0.028622880578041
0.0306161530315876
0.0318542271852493
0.032031949609518
0.0308489501476287
0.0280652306973934
0.0235574133694171
0.017363904044032
0.0097079323604702
0.0009939139708876
-0.0082247853279113
-0.0173042993992567
-0.0255829468369483
-0.0324578247964382
-0.0374569669365882
-0.0402932167053222
-0.0408898442983627
-0.0393770709633827
-0.0360642448067665
-0.0313917510211467
-0.0258686244487762
-0.0200091991573572
-0.0142781157046556
-0.0090458216145634
-0.0045593874529004
-0.0009323413250967
0.0018483024323359
0.0039019242394715
0.0054247258231043
0.0066494438797235
0.0077980388887226
0.0090453438460826
0.0105043714866042
0.0122258439660072
0.0142045514658093
0.0163914989680051
0.0187098328024148
0.0210704281926155
0.0233833454549312
0.0255631171166896
0.0275253225117921
0.0291687399148941
0.0303457342088222
0.0308422911912202
0.030388131737709
0.0286908708512783
0.0254808366298675
0.0205692704766988
0.0139116700738668
0.0056505491957068
-0.0038732271641492
-0.0141385467723011
-0.0244936309754848
-0.0342339053750038
-0.0426913872361183
-0.0493149310350418
-0.0537284240126609
-0.055761594325304
-0.0554535612463951
-0.0530324503779411
-0.0488744974136352
-0.0434527061879634
-0.0372860394418239
-0.0308876298367977
-0.0247109327465295
-0.0191037766635417
-0.0142810167744755
-0.0103183183819055
-0.0071640275418758
-0.0046670506708323
-0.0026164532173424
-0.0007825465872883
0.0010484170634299
0.0030480467248708
0.0053303712047636
0.0079494277015328
0.0109061803668737
0.0141536481678485
0.0175975523889064
0.0211064703762531
0.0245362594723701
0.027752723544836
0.0306360740214586
0.0330628156661987
0.0348756536841392
0.0358621813356876
0.0357576794922351
0.0342769362032413
0.0311705023050308
0.0262883305549621
0.0196330230683088
0.0113954590633511
0.0019654906354844
-0.0080963466316461
-0.0181269794702529
-0.027444515377283
-0.0354231894016265
-0.0415537394583225
-0.045491088181734
-0.0470856912434101
-0.0463911704719066
-0.0436469800770282
-0.0392401032149791
-0.033651303499937
-0.0273959767073392
-0.0209691319614648
-0.0147975329309701
-0.0091997142881155
-0.0043589426204562
-0.0003215298056602
0.0029766838997602
0.005674391053617
0.0079537276178598
0.0100119281560182
0.0120339784771204
0.0141694257035851
0.0165173970162868
0.0191224087029695
0.0219780597835779
0.0250333696603775
0.0282021798193454
0.0313788279891014
0.0344569310545921
0.037343893200159
0.0399653166532516
0.0422489345073699
0.0440836586058139
0.0452785268425941
0.0455545969307422
0.0445779711008071
0.0420214980840683
0.0376367084681987
0.0313197374343872
0.023160858079791
0.0134662613272666
0.0027398862875998
-0.0083719845861196
-0.0191543456166982
-0.0289000067859888
-0.0369818173348903
-0.0429151318967342
-0.0464091747999191
-0.0473999716341495
-0.0460498109459877
-0.0427128300070762
-0.0378791615366935
-0.0321066938340663
-0.0259499419480562
-0.0198984686285257
-0.0143313016742467
-0.0094899786636233
-0.0054738661274313
-0.0022548269480466
0.0002964427694678
0.0023762434720993
0.0042101275175809
0.0060188262723386
0.0079879537224769
0.0102391950786113
0.0128144985064864
0.0156838912516832
0.01876768656075
0.0219584852457046
0.0251387692987918
0.0281971227377653
0.0310425981879234
0.0336114391684532
0.0358634255826473
0.0377660319209098
0.0392622165381908
0.0402303338050842
0.0404637046158313
0.0396871604025363
0.0375973656773567
0.0339131541550159
0.0284388829022645
0.0211319401860237
0.0121498052030801
0.001860445830971
-0.0091861682012677
-0.0203167982399463
-0.0308099091053009
-0.03997503221035
-0.0472283363342285
-0.0521589219570159
-0.0545748360455036
-0.0545159690082073
-0.0522330105304718
-0.0481404326856136
-0.042756974697113
-0.0366455949842929
-0.0303537398576736
-0.0243552289903163
-0.0190029218792915
-0.0145014692097902
-0.010904443450272
-0.0081325992941856
-0.0060058655217289
-0.0042833648622035
-0.0027060853317379
-0.0010363333858549
0.0009111044928431
0.003250554902479
0.0060227196663618
0.0092051951214671
0.0127255413681268
0.0164698436856269
0.0202921368181705
0.0240308046340942
0.0275314804166555
0.0306661296635866
0.0333310589194297
0.0354184210300445
0.0367778167128562
0.0371942557394504
0.0363989993929863
0.0341134890913963
0.0301149971783161
0.0243067592382431
0.0167762748897075
0.0078238742426037
-0.0020554289221763
-0.0122327152639627
-0.0220233239233493
-0.0307621415704488
-0.0378711856901645
-0.0429184287786483
-0.045660950243473
-0.0460640639066696
-0.0442948639392852
-0.0406924486160278
-0.0357180051505565
-0.0298932529985904
-0.0237385835498571
-0.0177194308489561
-0.0122030135244131
-0.0074240509420633
-0.003471007104963
-0.0003050612285733
0.0022026128135621
0.0042348424904048
0.0059960531070828
0.0076835704967379
0.00946556776762
0.0114652216434478
0.0137510076165199
0.0163359735161066
0.0191851407289505
0.0222257506102323
0.0253590680658817
0.0284735187888145
0.0314550846815109
0.0341870598495006
0.0365277715027332
0.0382727943360805
0.0391344763338565
0.0387614108622074
0.0367931462824344
0.0329343862831592
0.0270309969782829
0.019130852073431
0.0095137627795338
-0.0013202903792262
-0.0127018895000219
-0.0238687358796596
-0.0340535454452037
-0.0425688289105892
-0.0488761961460113
-0.0526345632970333
-0.0537300407886505
-0.0522887706756591
-0.0486601777374744
-0.0433612801134586
-0.0369965247809886
-0.0301761720329523
-0.0234464481472969
-0.0172368884086608
-0.0118292551487684
-0.0073499185964465
-0.0037822625599801
-0.0009961337782442
0.0012093419209122
0.003059163223952
0.0047623706050217
0.0064842924475669
0.0083322823047637
0.0103557370603084
0.0125610884279012
0.0149330608546733
0.0174492858350276
0.0200856458395719
0.0228153094649314
0.0256043039262294
0.0284074638038873
0.0311614200472831
0.033766008913517
0.0360557809472084
0.0377765484154224
0.0385855436325073
0.0380868427455425
0.0358985811471939
0.0317326858639717
0.0254651736468076
0.0171858966350555
0.007220244500786
-0.0038871811702847
-0.0154294790700078
-0.0266233421862125
-0.036702673882246
-0.0450013317167758
-0.0510198771953582
-0.0544753894209861
-0.0553253144025802
-0.0537594780325889
-0.0501637682318687
-0.0450604073703289
-0.0390349216759204
-0.032666377723217
-0.0264716390520334
-0.0208630394190549
-0.0161183401942253
-0.0123665258288383
-0.0095900818705558
-0.0076428754255175
-0.0062851179391145
-0.0052311550825834
-0.0041966466233134
-0.0029335115104913
-0.0012531951069831
0.0009566806256771
0.0037256339564919
0.0070099239237606
0.0107150441035628
0.0147165674716234
0.0188723597675561
0.0230355765670537
0.0270702429115772
0.0308549627661705
0.0342632830142974
0.0371268242597579
0.0392036437988281
0.0401757434010505
0.0396866127848625
0.0374097377061843
0.0331258103251457
0.0267921611666679
0.0185919646173715
0.0089456457644701
-0.0015225373208522
-0.0120576042681932
-0.0218744277954101
-0.0302574690431356
-0.0366354957222938
-0.0406295843422412
-0.0420773178339004
-0.0410329140722751
-0.0377466194331646
-0.0326280854642391
-0.0261951833963394
-0.01901176571846
-0.0116258012130856
-0.0045179110020399
0.00193786714226
0.0075002405792474
0.0120722437277436
0.0156930293887853
0.0185046568512916
0.0207056552171707
0.0225105546414852
0.024118036031723
0.0256826356053352
0.0272944569587707
0.0289717968553304
0.0306661836802959
0.0322800390422344
0.033694140613079
0.0347980000078678
0.035515509545803
0.035818226635456
0.0357227437198162
0.0352667942643165
0.0344587303698062
0.0332203917205333
0.0313624776899814
0.0286102704703807
0.0246683917939662
0.019301775842905
0.0124106425791978
0.0040859375149011
-0.0053636585362255
-0.0154273156076669
-0.0254522506147623
-0.0347257703542709
-0.0425587818026542
-0.0483667366206646
-0.0517380125820636
-0.0524734631180763
-0.050599105656147
-0.0463603176176548
-0.040189292281866
-0.0326433181762695
-0.0243339408189058
-0.0158608872443437
-0.0077503533102571
-0.0004040410276502
0.0059301070868968
0.0111620221287012
0.015341667458415
0.0186266899108886
0.0212422758340835
0.0234372001141309
0.0254450533539056
0.0274583678692579
0.0296089202165603
0.0319519229233264
0.034466914832592
0.0370768681168556
0.0396717824041843
0.0421255566179752
0.0442997738718986
0.0460322014987468
0.0471154451370239
0.0472822338342666
0.0462165251374244
0.0435956567525863
0.0391535386443138
0.0327503085136413
0.0244333762675523
0.014472559094429
0.0033517684787511
-0.0082855429500341
-0.0197175629436969
-0.0302274487912654
-0.0391774848103523
-0.046072743833065
-0.0506089553236961
-0.0526951998472213
-0.0524491816759109
-0.0501706823706626
-0.0462987795472145
-0.0413547530770301
-0.0358765162527561
-0.0303561519831419
-0.0251875575631856
-0.0206298232078552
-0.016798373311758
-0.0136852078139781
-0.0111915711313486
-0.0091597661375999
-0.0074030607938766
-0.0057343952357769
-0.003991225734353
-0.0020528808236122
0.0001511592417955
0.0026407185941934
0.005389841273427
0.0083353258669376
0.0113871693611145
0.0144388787448406
0.0173726063221693
0.0200488120317459
0.0222738999873399
0.023764818906784
0.0241484250873327
0.0230104755610227
0.0199772119522094
0.0148042198270559
0.0074497275054454
-0.001884089782834
-0.0127491503953933
-0.0244911406189203
-0.0363246463239192
-0.0474254451692104
-0.0570219531655311
-0.0644770413637161
-0.0693520605564117
-0.0714423060417175
-0.0707839280366897
-0.0676377415657043
-0.0624488368630409
-0.0557844191789627
-0.0482615008950233
-0.0404772646725177
-0.0329492315649986
-0.0260671284049749
-0.0200614295899868
-0.0149995051324367
-0.0108120739459991
-0.0073347687721252
-0.0043505150824785
-0.0016280059935525
0.0010493060108274
0.0038645677268505
0.0069499970413744
0.0103680081665515
0.0141043663024902
0.0180815439671278
0.0221823938190937
0.0262714568525552
0.0302099138498306
0.0338615402579307
0.0370825082063674
0.0396953076124191
0.0414637774229049
0.0420903153717517
0.0412451364099979
0.0386227332055568
0.0340130515396595
0.027373980730772
0.0188826993107795
0.0089418217539787
-0.0018590202089399
-0.0128084681928157
-0.023151846602559
-0.0321725159883499
-0.0392671190202236
-0.0440057516098022
-0.0461686886847019
-0.0457581952214241
-0.0429868139326572
-0.0382427014410495
-0.0320380628108978
-0.0249467305839061
-0.0175333172082901
-0.0102856215089559
-0.0035705054178833
0.0023797657340765
0.0074631073512136
0.0116952024400234
0.015187220647931
0.018114723265171
0.0206852611154317
0.0231059268116951
0.0255511589348316
0.0281405560672283
0.0309321153908967
0.0339251570403575
0.0370677784085273
0.0402692779898643
0.043420061469078
0.0464136600494384
0.0491539388895034
0.05153713747859
0.0534177087247371
0.0545781329274177
0.0547226704657077
0.0535035878419876
0.0505750402808189
0.0456645414233207
0.0386481881141662
0.0296095237135887
0.0188649743795394
0.0069511733017861
-0.0054241181351244
-0.0174615420401096
-0.0283634923398494
-0.0374226756393909
-0.044099323451519
-0.0480825453996658
-0.0493192747235298
-0.0479985177516937
-0.0445014126598835
-0.0393380932509899
-0.0330837815999984
-0.0263187680393457
-0.0195735469460487
-0.0132803237065672
-0.0077385129407048
-0.0031022031325846
0.0006110579706728
0.0034969116095453
0.0057338853366672
0.0075497515499591
0.0091824997216463
0.010838896036148
0.0126635115593671
0.0147275160998106
0.0170345697551965
0.0195374507457017
0.0221592299640178
0.0248104259371757
0.027400242164731
0.0298457387834787
0.032071266323328
0.0339885503053665
0.0354654975235462
0.0363003350794315
0.0362172834575176
0.034895796328783
0.0320250131189823
0.0273635499179363
0.0208003632724285
0.0124136619269847
0.0025042612105607
-0.0084164449945092
-0.0196787156164646
-0.0305301006883382
-0.040221206843853
-0.0480917170643806
-0.0536466799676418
-0.0566108226776123
-0.0569491535425186
-0.0548520572483539
-0.0506936013698577
-0.0449736267328262
-0.0382555350661277
-0.0311090946197509
-0.0240569189190864
-0.0175254959613084
-0.0118101872503757
-0.0070598479360342
-0.0032818824984133
-0.0003645960241556
0.0018889531493186
0.0037191610317677
0.0053667272441089
0.0070385914295911
0.00888735614717
0.0110019082203507
0.0134085807949304
0.0160824283957481
0.0189586468040943
0.021936560049653
0.0248867534101009
0.0276699289679527
0.0301577150821685
0.0322393402457237
0.0338045954704284
0.0347118712961673
0.0347659885883331
0.0337231159210205
0.0313220024108886
0.0273343659937381
0.0216271951794624
0.0142218004912137
0.0053320880979299
-0.0046283779665827
-0.0150796510279178
-0.0253463964909315
-0.0347427017986774
-0.0426504537463188
-0.0485855415463447
-0.0522451139986515
-0.0535289160907268
-0.052536740899086
-0.0495458096265792
-0.0449695214629173
-0.0393046587705612
-0.0330745130777359
-0.0267727263271808
-0.0208157077431678
-0.0155067928135395
-0.0110131502151489
-0.0073668397963047
-0.0044930158182978
-0.0022465125657618
-0.0004418122116476
0.0011212389217689
0.002630359493196
0.0042347880080342
0.006029843352735
0.0080567626282572
0.010311247780919
0.0127528244629502
0.0153133822605013
0.0179071519523859
0.0204400699585676
0.0228104945272207
0.0248962696641683
0.0265304166823625
0.0274799149483442
0.0274510197341442
0.026129949837923
0.0232478324323892
0.0186543427407741
0.0123799405992031
0.0046660024672746
-0.0040435087867081
-0.0131453396752476
-0.0219496898353099
-0.0297693479806184
-0.0360058695077896
-0.0402168855071067
-0.0421565249562263
-0.0417879447340965
-0.0392753258347511
-0.0349614173173904
-0.0293251797556877
-0.0229188743978738
-0.0162987392395734
-0.0099627459421753
-0.0043001323938369
0.0004422515630722
0.0041702771559357
0.0069299475289881
0.0088772540912032
0.0102370213717222
0.0112609043717384
0.0121921263635158
0.0132383052259683
0.0145519385114312
0.0162153746932744
0.0182318072766065
0.0205334238708019
0.0230079591274261
0.0255277454853057
0.0279686637222766
0.0302169770002365
0.0321602746844291
0.0336596928536891
0.0345189645886421
0.0344763621687889
0.0332287475466728
0.0304800979793071
0.0260051544755697
0.0197180546820163
0.0117289498448371
0.0023649781942367
-0.0078559732064604
-0.0182857140898704
-0.0282202810049057
-0.0369757637381553
-0.0439603142440319
-0.0487383566796779
-0.0510756969451904
-0.0509554557502269
-0.0485668666660785
-0.0442731715738773
-0.0385622531175613
-0.0319854021072387
-0.0250916685909032
-0.0183654129505157
-0.0121783763170242
-0.0067667495459318
-0.002231191843748
0.0014488399028778
0.0043892646208405
0.0067677171900868
0.0087897349148988
0.0106587093323469
0.0125515181571245
0.014601532369852
0.0168893169611692
0.019440159201622
0.0222275778651237
0.0251836124807596
0.0282145626842975
0.0312194414436817
0.0341037288308143
0.0367698967456817
0.039078701287508
0.0408084504306316
0.0416445843875408
0.0412093289196491
0.0391229540109634
0.0350799113512039
0.0289237610995769
0.0207064412534236
0.0107171274721622
-0.0005279835313558
-0.01233378238976
-0.023904038593173
-0.0344346910715103
-0.0432040058076381
-0.049647256731987
-0.0534169264137744
-0.0544216930866241
-0.0528237260878086
-0.048994205892086
-0.0434488579630851
-0.0367777347564697
-0.0295757632702589
-0.022381491959095
-0.0156293753534555
-0.0096195954829454
-0.0045070648193359
-0.0003066677600145
0.0030863303691148
0.0058612842112779
0.0082521941512823
0.0105031095445156
0.0128351813182234
0.0154134919866919
0.0183269847184419
0.0215868316590785
0.0251356456428766
0.0288641843944787
0.0326344557106494
0.0363048054277896
0.0397475473582744
0.0428485423326492
0.0454861856997013
0.047497559338808
0.0486495830118656
0.0486353188753128
0.0471065714955329
0.0437387824058532
0.0383079349994659
0.030757863074541
0.0212484672665596
0.0101741142570972
-0.0018614456057548
-0.0141096841543912
-0.0257620140910148
-0.0360379740595817
-0.0442689582705497
-0.0499721840023994
-0.0529020428657531
-0.0530643090605735
-0.0506947077810764
-0.046214073896408
-0.0401677303016185
-0.0331551060080528
-0.0257641822099685
-0.0185210648924112
-0.0118479803204536
-0.0060274731367826
-0.0011864230036735
0.0026922412216663
0.0057410160079598
0.0081738634034991
0.0102458391338586
0.012210089713335
0.0142841758206486
0.0166273936629295
0.0193262677639722
0.0223930571228265
0.0257790088653564
0.0293940547853708
0.0331221595406532
0.0368298441171646
0.0403742454946041
0.0436095967888832
0.0463796705007553
0.0484918430447578
0.0496884956955909
0.0496407747268676
0.0479795970022678
0.0443616919219493
0.0385538525879383
0.0305101945996284
0.0204225163906812
0.0087321437895298
-0.0039008213207125
-0.0166634991765022
-0.0286825187504291
-0.039132785052061
-0.0473391339182853
-0.0528473258018493
-0.055460374802351
-0.055244643241167
-0.052504263818264
-0.0477263107895851
-0.0415101274847984
-0.0344940572977066
-0.0272878687828779
-0.0204161722213029
-0.0142735922709107
-0.0090948054566979
-0.004945948254317
-0.001739107305184
0.0007303308229893
0.0027288571000099
0.0045295879244804
0.0063702268525958
0.0084267556667327
0.0108021171763539
0.0135271102190017
0.0165692176669836
0.0198470223695039
0.0232485551387071
0.0266502741724252
0.029932752251625
0.0329889729619026
0.0357232019305229
0.0380395017564296
0.0398145727813243
0.0408580563962459
0.0408874005079269
0.0395451262593269
0.0364590510725975
0.0313280634582042
0.0240121390670537
0.014601806178689
0.0034451261162757
-0.0088747516274452
-0.0215999558568
-0.0338814035058021
-0.0448765754699707
-0.0538487136363983
-0.0602513253688812
-0.0637834295630455
-0.0644058585166931
-0.0623277649283409
-0.0579759068787097
-0.0519400835037231
-0.0448926165699958
-0.0375002995133399
-0.0303484797477722
-0.0238856859505176
-0.0183909833431243
-0.0139665976166725
-0.010555662214756
-0.007977875880897
-0.0059750331565737
-0.0042586759664118
-0.0025521211791783
-0.0006230941507965
0.0016951141878962
0.0044911354780197
0.0077675669454038
0.0114455753937363
0.0153883835300803
0.0194323472678661
0.0234113931655883
0.0271684285253286
0.0305496044456958
0.0333801433444023
0.035434104502201
0.0364222526550293
0.0360129475593566
0.0338838919997215
0.0297938361763954
0.023659573867917
0.0156169449910521
0.0060395095497369
-0.0044938521459698
-0.0152643043547868
-0.0254923533648252
-0.0344238467514514
-0.0414148904383182
-0.0460038855671882
-0.0479601547122001
-0.0473025329411029
-0.044285450130701
-0.039356030523777
-0.0330911986529827
-0.026123896241188
-0.0190663374960422
-0.0124388067051768
-0.0066155320964753
-0.0018012325745075
0.0019602999091148
0.0047588469460606
0.0067831617780029
0.0082831401377916
0.0095286946743726
0.0107684591785073
0.0121975690126419
0.0139409899711608
0.0160526894032955
0.0185261815786361
0.0213083233684301
0.0243120230734348
0.0274250339716672
0.0305075906217098
0.0333746597170829
0.0357680767774581
0.03733891248703
0.0376671254634857
0.0363239869475364
0.0329575315117836
0.0273781977593898
0.019625999033451
0.0100023038685321
-0.0009433794766664
-0.0124697042629122
-0.0237306579947471
-0.033875934779644
-0.04215082898736
-0.0479850284755229
-0.051053874194622
-0.0512985102832317
-0.0489116869866848
-0.0443034693598747
-0.0380471758544445
-0.0308052860200405
-0.023246731609106
-0.0159682817757129
-0.0094324527308344
-0.0039316425099968
0.0004220138653181
0.0036850436590611
0.006048338022083
0.0077841379679739
0.0091907493770122
0.0105483941733837
0.0120894815772771
0.0139820352196693
0.0163183733820915
0.0191060043871402
0.0222714226692914
0.0256826374679803
0.0291810072958469
0.0326050817966461
0.0357895195484161
0.0385371223092079
0.0405831336975097
0.041577760130167
0.0411072820425033
0.0387576185166835
0.0342018231749534
0.0272869989275932
0.0181038565933704
0.0070212613791227
-0.0053354366682469
-0.0181620754301548
-0.0305769015103578
-0.0417181439697742
-0.0508341789245605
-0.057360827922821
-0.0609741136431694
-0.0616121441125869
-0.0594629161059856
-0.0549224205315113
-0.0485369749367237
-0.0409398265182971
-0.0327837727963924
-0.0246715936809778
-0.017090804874897
-0.0103660291060805
-0.0046462411992251
7.223756983876228e-05
0.0039079338312149
0.0070567741058766
0.009755752980709
0.0122470213100314
0.0147448107600212
0.0174099802970886
0.0203359071165323
0.0235477983951568
0.0270139593631029
0.0306620560586452
0.0343940071761608
0.0380952209234237
0.0416363887488842
0.0448655784130096
0.0475825481116771
0.0495024994015693
0.050243105739355
0.0493585839867591
0.0464146509766578
0.0410846956074237
0.0332429260015487
0.0230296924710273
0.0108724990859627
-0.0025445455685257
-0.016357235610485
-0.0296231433749198
-0.0414290279150009
-0.0509918257594108
-0.0577391609549522
-0.0613579489290714
-0.0618120618164539
-0.0593322962522506
-0.0543767400085926
-0.0475653298199176
-0.0395990684628486
-0.0311737358570098
-0.0229038316756486
-0.0152703048661351
-0.008590598590672
-0.003008134663105
0.0014972500503063
0.0050772684626281
0.0079668462276458
0.0104336868971586
0.0127377342432737
0.0151034872978925
0.01769894734025
0.020615104585886
0.023856870830059
0.0273570008575916
0.0310026444494724
0.0346591472625732
0.038186427205801
0.0414452031254768
0.0442875400185585
0.0465298146009445
0.0479195937514305
0.0481209233403205
0.0467391982674598
0.0433882065117359
0.0377840623259544
0.0298390500247478
0.0197213515639305
0.007861060090363
-0.0050886729732155
-0.0183197390288114
-0.030956458300352
-0.0421496219933033
-0.0511670224368572
-0.0574733614921569
-0.0607848279178142
-0.0610835291445255
-0.0585952550172805
-0.0537467487156391
-0.0471093729138374
-0.0393311977386474
-0.0310658067464828
-0.0229035597294569
-0.0153161603957414
-0.0086300820112228
-0.0030221703927963
0.001478316495195
0.0049771191552281
0.00768139725551
0.0098509984090924
0.0117524834349751
0.0136257074773311
0.0156600773334503
0.0179777182638645
0.0206258799880743
0.0235809404402971
0.0267632566392421
0.030059028416872
0.0333424136042594
0.0364859029650688
0.039349541068077
0.0417555347084999
0.0434619523584842
0.0441472232341766
0.043423056602478
0.0408876203000545
0.036206666380167
0.0291986595839262
0.0199055671691894
0.008634015917778
-0.0040469905361533
-0.0173567086458206
-0.0303919557482004
-0.042233906686306
-0.0520527586340904
-0.0592037290334701
-0.0633052289485931
-0.0642755106091499
-0.062316782772541
-0.0578627288341522
-0.0515109747648239
-0.0439499653875827
-0.0358817614614963
-0.0279475059360265
-0.0206643100827932
-0.0143813183531165
-0.0092621836811304
-0.005294180009514
-0.002319224178791
-7.91206257417798e-05
0.0017351338174194
0.0034328058827668
0.0052735400386154
0.0074317590333521
0.0099868522956967
0.0129351457580924
0.0162121318280696
0.0197156257927417
0.0233244504779577
0.0269098412245512
0.0303364600986242
0.0334477424621582
0.0360374450683593
0.0378242172300815
0.0384505987167358
0.0375206843018531
0.034674409776926
0.0296751651912927
0.022483043372631
0.0133000323548913
0.0025802925229072
-0.0089998291805386
-0.0206108167767524
-0.0313689187169075
-0.0404473356902599
-0.0471766106784343
-0.0511185899376869
-0.0521084256470203
-0.050258744508028
-0.0459274873137474
-0.0396629460155963
-0.0321310497820377
-0.0240275412797927
-0.0159959103912115
-0.0085688326507806
-0.0021289414726197
0.0031161466613411
0.0071365945041179
0.0100563364103436
0.0121112372726202
0.0135996714234352
0.0148318773135542
0.0160866528749465
0.017581321299076
0.0194529369473457
0.0217499565333127
0.0244380477815866
0.027420800179243
0.0305678416043519
0.0337370000779628
0.0367851667106151
0.0395696833729743
0.0419347435235977
0.0436806604266166
0.0445320233702659
0.0441307350993156
0.0420718230307102
0.0379774495959281
0.0315853767096996
0.0228289030492305
0.0118945920839905
-0.0007589114829897
-0.0144318668171763
-0.028254197910428
-0.0412813238799572
-0.0526064820587635
-0.0614728219807148
-0.0673591792583465
-0.0700254663825035
-0.0695205777883529
-0.0661555528640747
-0.0604463294148445
-0.0530404783785343
-0.0446402356028556
-0.0359272994101047
-0.0274965651333332
-0.0198065731674432
-0.0131491310894489
-0.0076394276693463
-0.0032269470393657
0.0002759890630841
0.0031465981155633
0.0056887473911046
0.0081770895048975
0.0108236670494079
0.0137625038623809
0.0170470252633094
0.0206584334373474
0.0245215594768524
0.0285232160240411
0.0325293205678463
0.0364025570452213
0.0400178357958793
0.0432614088058471
0.0460048206150531
0.0480652451515197
0.0491760112345218
0.0489842034876346
0.0470840968191623
0.0430912971496582
0.0367421247065067
0.0279850978404283
0.0170397944748401
0.0044106282293796
-0.0091520939022302
-0.0227400436997413
-0.0354010425508022
-0.0462516546249389
-0.0545723922550678
-0.059880081564188
-0.0619712844491004
-0.0609266608953475
-0.057074949145317
-0.0509352274239063
-0.0431552939116954
-0.034445121884346
-0.0255025587975978
-0.0169400796294212
-0.0092258583754301
-0.0026488248258829
0.0026886845007538
0.0068520884960889
0.0100370906293392
0.0125229144468903
0.014620641246438
0.0166226811707019
0.0187644567340612
0.0212053097784519
0.0240251086652278
0.0272258576005697
0.0307352468371391
