bvp
-0.0382036231458187
-0.0394139736890792
-0.0384627133607864
-0.0355904176831245
-0.0311820153146982
-0.0257156305015087
-0.0197088718414306
-0.0136668914929032
-0.0080313673242926
-0.0031344462186098
0.0008314903825521
0.0038234805688261
0.0059372843243181
0.0073759648948907
0.0084044355899095
0.0093029141426086
0.0103268660604953
0.0116771692410111
0.0134837962687015
0.0158014893531799
0.0186158865690231
0.0218586362898349
0.0254209786653518
0.0291609838604927
0.0329135954380035
0.0365002863109111
0.0397233925759792
0.0423477105796337
0.0440901927649974
0.0446356758475303
0.043681301176548
0.040997639298439
0.0364888347685337
0.0302381217479705
0.022526828572154
0.0138173559680581
0.0047071734443306
-0.0041327159851789
-0.0120344348251819
-0.0184193607419729
-0.0228693112730979
-0.0251666046679019
-0.0253054834902286
-0.023477928712964
-0.0200364664196968
-0.0154436752200126
-0.0102170659229159
-0.0048710634000599
0.0001392480917274
0.0044627068564295
0.0078786890953779
0.0103039871901273
0.0117829740047454
0.0124677643179893
0.0125859482213854
0.0123926531523466
0.0121238008141517
0.011968595907092
0.0120588233694434
0.0124671664088964
0.0132112633436918
0.0142611572518944
0.0155500723049044
0.0169884636998176
0.0184778459370136
0.0199193954467773
0.0212108939886093
0.0222281217575073
0.0227985195815563
0.0226839296519756
0.0215872749686241
0.0191898122429847
0.0152136981487274
0.009494500234723
0.0020439811050891
-0.0069165527820587
-0.0169634837657213
-0.0275143720209598
-0.0378949716687202
-0.0474158525466918
-0.0554471686482429
-0.0614841915667057
-0.0651968792080879
-0.0664567276835441
-0.0653379708528518
-0.0620969906449317
-0.0571388863027095
-0.0509742423892021
-0.044163592159748
-0.0372542366385459
-0.0307201948016881
-0.0249155107885599
-0.0200494304299354
-0.016185101121664
-0.0132539328187704
-0.011079222895205
-0.0094114048406481
-0.0079734791070222
-0.006505137309432
-0.0047960025258362
-0.0027029989287257
-0.0001520051155239
0.0028645459096878
0.006287146359682
0.0099972933530807
0.0138415396213531
0.0176600255072116
0.0213044118136167
0.0246343128383159
0.0274910200387239
0.0296669006347656
0.0308946166187524
0.0308665242046117
0.0292823929339647
0.0259165726602077
0.0206857025623321
0.013695603236556
0.0052568512037396
-0.0041365311481058
-0.0138666918501257
-0.0232718139886856
-0.0317189916968345
-0.0386597961187362
-0.0436741262674331
-0.0465051867067813
-0.0470809340476989
-0.0455158948898315
-0.0420883186161518
-0.0371933504939079
-0.0312849357724189
-0.0248241014778614
-0.0182379968464374
-0.0118822492659091
-0.0060066692531108
-0.0007374137639999
0.0039157029241323
0.0080342488363385
0.0117600988596677
0.0152640212327241
0.0187178310006856
0.0222713351249694
0.0260339453816413
0.0300630796700716
0.0343595892190933
0.0388699099421501
0.0434959977865219
0.0481098815798759
0.0525693483650684
0.056732177734375
0.0604562051594257
0.0635728016495704
0.0658498406410217
0.0669815838336944
0.066622570157051
0.0644498243927955
0.060233399271965
0.0539021790027618
0.045587670058012
0.0356324389576911
0.0245632324367761
0.0130354538559913
0.0017592273652553
-0.0085807852447032
-0.0174009017646312
-0.0242762640118598
-0.0289722140878438
-0.031456209719181
-0.0318972505629062
-0.0306418929249048
-0.0281603895127773
-0.0249766670167446
-0.0215974077582359
-0.0184499025344848
-0.0158390402793884
-0.0139288231730461
-0.0127438716590404
-0.0121870934963226
-0.0120728639885783
-0.0121675729751586
-0.0122264418751001
-0.0120226107537746
-0.0113693140447139
-0.0101385228335857
-0.0082773696631193
-0.005814678966999
-0.0028507525566965
0.0004650198388844
0.0039590233936905
0.0074482066556811
0.0107306661084294
0.0135571928694844
0.0156149268150329
0.0165477227419614
0.016010083258152
0.013736966997385
0.0096104508265852
0.0037086918018758
-0.0036731516011059
-0.0120439678430557
-0.0207798965275287
-0.0292023383080959
-0.036649465560913
-0.042542740702629
-0.0464481748640537
-0.0481202080845832
-0.0475198999047279
-0.0448096580803394
-0.0403274931013584
-0.0345420651137828
-0.0279922913759946
-0.0212188959121704
-0.0147000309079885
-0.0088027417659759
-0.0037557631731033
0.0003535477444529
0.003559744451195
0.0059892195276916
0.0078297099098563
0.009300353936851
0.0106224007904529
0.0119922813028097
0.0135595686733722
0.015413868241012
0.0175837371498346
0.020045232027769
0.0227330885827541
0.0255505144596099
0.0283757857978343
0.0310587380081415
0.033400684595108
0.0351260975003242
0.0358729213476181
0.035226035863161
0.0327918119728565
0.0282901581376791
0.0216352120041847
0.0129834152758121
0.0027400678955018
-0.0084771327674388
-0.0199099350720644
-0.0307498928159475
-0.040232103317976
-0.0477210134267807
-0.0527757927775383
-0.0551845543086528
-0.0549657307565212
-0.0523476749658584
-0.0477365367114543
-0.0416684672236442
-0.0347431153059005
-0.0275493096560239
-0.0205987598747015
-0.0142783150076866
-0.0088251968845725
-0.004325401969254
-0.0007301829755306
0.0021159360185265
0.0044386787340044
0.0064929220825433
0.0085238860920071
0.0107374349609017
0.0132829705253243
0.0162432454526424
0.0196258164942264
0.023363122716546
0.0273268595337867
0.0313522182404994
0.0352639183402061
0.0388892143964767
0.0420436784625053
0.0444988012313842
0.0459593459963798
0.0460724681615829
0.0444746762514114
0.0408673658967018
0.0350991375744342
0.0272305756807327
0.017563983798027
0.0066272364929318
-0.0048874909989535
-0.0162092335522174
-0.0265724677592515
-0.0352901257574558
-0.0418169721961021
-0.0458004176616668
-0.0471100583672523
-0.0458420701324939
-0.0422984510660171
-0.0369427725672721
-0.030339065939188
-0.0230821836739778
-0.0157300401479005
-0.0087483134120702
-0.0024724705144762
0.0029084403067827
0.0073428461328148
0.0108906459063291
0.0136928763240575
0.0159435961395502
0.0178636126220226
0.0196714773774147
0.0215544402599334
0.0236480794847011
0.0260253679007291
0.0286934524774551
0.0315995886921882
0.0346457511186599
0.0377080291509628
0.0406564027070999
0.0433675497770309
0.0457112826406955
0.0475058928132057
0.0484807305037975
0.0482837408781051
0.0465330928564071
0.0428947545588016
0.0371662117540836
0.0293448232114315
0.0196644905954599
0.0085922610014677
-0.0032160631380975
-0.0149907199665904
-0.0259348936378955
-0.0353110507130622
-0.0425191149115562
-0.0471576303243637
-0.0490633361041545
-0.0483260750770568
-0.0452697873115539
-0.0403981506824493
-0.0343201607465744
-0.0276720095425844
-0.0210449621081352
-0.0149271618574857
-0.0096645355224609
-0.0054427464492619
-0.0022902763448655
-9.832624346017838e-05
0.0013470205012708
0.0023214872926473
0.0031155385076999
0.0039965989999473
0.0051802326925098
0.0068042306229472
0.0089161898940801
0.0114828906953334
0.0144099369645118
0.017562311142683
0.0207850411534309
0.0239147134125232
0.0267694536596536
0.0291219428181648
0.0306797381490468
0.0310963634401559
0.0300166569650173
0.0271445102989673
0.0223191697150468
0.0155812893062829
0.0072005670517683
-0.0023485664278268
-0.012444726191461
-0.0223879069089889
-0.0314720943570137
-0.0390575602650642
-0.0446346066892147
-0.0478753671050071
-0.0486682839691638
-0.0471250936388969
-0.04355950653553
-0.0384448692202568
-0.0323533751070499
-0.0258821453899145
-0.0195791535079479
-0.0138798942789435
-0.0090678427368402
-0.0052681327797472
-0.0024647247046232
-0.0005267290398478
0.0007600393146276
0.0016562072560191
0.0024287831038236
0.0033135805279016
0.004486808553338
0.0060501303523778
0.0080297393724322
0.0103866830468177
0.0130341108888387
0.0158567950129508
0.0187293048948049
0.021526426076889
0.0241120941936969
0.0263033285737037
0.0278343353420496
0.0283550675958395
0.0274755507707595
0.0248415246605873
0.020217103883624
0.0135529749095439
0.0050284806638956
-0.0049406327307224
-0.0157368928194046
-0.0266140755265951
-0.0367893017828464
-0.0455343052744865
-0.0522525236010551
-0.0565325953066349
-0.058179497718811
-0.0572285801172256
-0.0539355054497718
-0.0487367287278175
-0.0421884953975677
-0.0348949134349823
-0.0274362135678529
-0.0203083008527755
-0.0138802323490381
-0.0083711044862866
-0.0038475082255899
-0.0002427562139928
0.0026096780784428
0.0049395500682294
0.0070029054768383
0.0090461764484643
0.0112724797800183
0.0138122318312525
0.0167113430798053
0.0199418812990188
0.023419864475727
0.0270228032022714
0.0306105036288499
0.0340446420013904
0.0371979996562004
0.0399446450173854
0.0421290211379528
0.0435333587229251
0.0438712015748024
0.0428160652518272
0.0400592237710952
0.0353848822414875
0.028738435357809
0.0202629938721656
0.0103020276874303
-0.0006225472316145
-0.0118565168231725
-0.0226824358105659
-0.0323984324932098
-0.0403924211859703
-0.0462048687040805
-0.0495742335915565
-0.0504567176103591
-0.0490176267921924
-0.0455984324216842
-0.0406654700636863
-0.0347481146454811
-0.0283754430711269
-0.0220227632671594
-0.0160765629261732
-0.0108126942068338
-0.0063800988718867
-0.002794393338263
4.8441579565405846e-05
0.002336744684726
0.0042988243512809
0.0061636106111109
0.0081310831010341
0.0103515163064002
0.0129122901707887
0.0158334746956825
0.0190731212496757
0.0225405227392911
0.0261153746396303
0.0296650994569063
0.0330512933433055
0.0361263416707515
0.0387211628258228
0.0406255945563316
0.0415765345096588
0.0412705391645431
0.0394053310155868
0.0357428975403308
0.0301772039383649
0.0227873511612415
0.0138609902933239
0.0038802716881036
-0.0065252734348177
-0.0166474822908639
-0.0257788561284542
-0.033293142914772
-0.0387173853814601
-0.0417831167578697
-0.0424471050500869
-0.0408795028924942
-0.0374255254864692
-0.0325527042150497
-0.0267928838729858
-0.0206818766891956
-0.0147024821490049
-0.0092390803620219
-0.0045482106506824
-0.0007467805407941
0.0021822736598551
0.0043700351379811
0.0060307728126645
0.0074206604622304
0.0087888892740011
0.0103331925347447
0.0121742514893412
0.014354228042066
0.0168510153889656
0.0195955540984869
0.0224873535335063
0.0254080072045326
0.0282336268573999
0.0308456886559724
0.0331315957009792
0.0349660813808441
0.0361799597740173
0.0365401543676853
0.0357633531093597
0.0335604958236217
0.02969541400671
0.0240474790334701
0.0166665129363536
0.0078016519546508
-0.0021069385111331
-0.0124694388359785
-0.0226097479462623
-0.0318423956632614
-0.039552241563797
-0.0452624894678592
-0.0486827082931995
-0.0497321523725986
-0.0485351830720901
-0.0453923903405666
-0.0407328158617019
-0.0350581780076026
-0.0288906171917915
-0.0227220449596643
-0.0169647168368101
-0.0119146844372153
-0.0077340714633464
-0.0044494671747088
-0.0019663101993501
-9.940849849954247e-05
0.0013859684113413
0.0027318876236677
0.0041534341871738
0.0058154137805104
0.0078193824738264
0.0102027114480733
0.0129469120875
0.0159846488386392
0.0192042253911495
0.0224628150463104
0.0256111118942499
0.0285173561424016
0.0310738738626241
0.0331764742732048
0.0346866585314273
0.0354008972644805
0.0350493267178535
0.0333305783569812
0.0299709197133779
0.0247922744601964
0.0177754219621419
0.00910275708884
-0.0008320873603224
-0.0114564076066017
-0.0220889281481504
-0.0320251286029815
-0.0406153127551078
-0.047328658401966
-0.0518004894256591
-0.0538606569170951
-0.0535412281751632
-0.0510603561997413
-0.0467864386737346
-0.0411924645304679
-0.0348032116889953
-0.0281367041170597
-0.0216488316655159
-0.0156897939741611
-0.0104784732684493
-0.0061009959317743
-0.002529633231461
0.0003520823083817
0.0027221988420933
0.0047870785929262
0.0067469403147697
0.0087697021663188
0.0109765976667404
0.0134355826303362
0.0161585640162229
0.0191055350005626
0.0221965722739696
0.0253270603716373
0.0283858738839626
0.0312742367386817
0.0339146256446838
0.0362387374043464
0.0381528213620185
0.0394968800246715
0.040025632828474
0.0394291840493679
0.0373881757259368
0.0336416438221931
0.0280517525970935
0.0206590704619884
0.0117139397189021
0.0016665658913552
-0.0088821556419134
-0.0192512646317482
-0.0287562124431133
-0.0367794819176197
-0.0428284592926502
-0.0465829037129879
-0.0479284673929214
-0.0469632931053638
-0.0439751334488391
-0.0393963977694511
-0.0337445028126239
-0.0275566540658473
-0.021329827606678
-0.0154740158468484
-0.0102819968014955
-0.0059168599545955
-0.0024161138571798
0.0002932813949882
0.0023716171272099
0.0040351874195039
0.0055222338996827
0.007056918926537
0.0088113052770495
0.0108810337260365
0.0132866697385907
0.0159896835684776
0.0189093351364135
0.021939618512988
0.0249672532081604
0.0278859846293926
0.0306041501462459
0.0330456756055355
0.0351433455944061
0.0368205495178699
0.0379599668085575
0.0383749678730964
0.0378112196922302
0.035982746630907
0.03262460231781
0.0275537483394145
0.0207332000136375
0.0123199950903654
0.0026763807982206
-0.0076593686826527
-0.0180314388126134
-0.0277428030967712
-0.0361389070749282
-0.0426817648112773
-0.0470022074878215
-0.048929926007986
-0.0485029816627502
-0.0459551103413105
-0.0416779890656471
-0.0361660979688167
-0.0299601852893829
-0.0235935188829898
-0.0175381395965814
-0.012157647870481
-0.0076766940765082
-0.0041719698347151
-0.0015850067138671
0.000248588155955
0.0015626302920281
0.0026211543008685
0.0036783092655241
0.0049452381208539
0.0065719410777091
0.0086440630257129
0.0111875645816326
0.0141691239550709
0.0174918249249458
0.021002858877182
0.0245196726173162
0.0278609488159418
0.0308627691119909
0.0333673618733882
0.0351930148899555
0.0361120179295539
0.0358587205410003
0.0341688841581344
0.030836159363389
0.0257710665464401
0.0190489571541547
0.0109329959377646
0.0018656393513083
-0.0075733503326773
-0.0167377404868602
-0.0249945670366287
-0.0317936986684799
-0.0367207936942577
-0.0395312868058681
-0.0401666983962059
-0.0387548431754112
-0.0355896726250648
-0.0310893207788467
-0.0257403403520584
-0.0200396012514829
-0.0144421476870775
-0.0093177370727062
-0.004916526377201
-0.0013502687215805
0.0014007363934069
0.0034563657827675
0.004996879491955
0.0062269680202007
0.0073457583785057
0.008523647673428
0.0098876617848873
0.0115148508921265
0.0134320501238107
0.0156202279031276
0.0180218014866113
0.0205511841922998
0.023107998073101
0.0255891382694244
0.027897085994482
0.0299397800117731
0.0316102765500545
0.0327469669282436
0.0331046506762504
0.0323663242161273
0.0301945153623819
0.0263050086796283
0.0205447599291801
0.0129515212029218
0.0037791663780808
-0.0065130535513162
-0.0173048060387372
-0.0278853513300418
-0.0375357754528522
-0.0456094592809677
-0.0515999048948287
-0.0551877468824386
-0.0562682524323463
-0.0549588315188884
-0.0515777394175529
-0.0465946830809116
-0.0405651293694973
-0.0340601503849029
-0.0276025831699371
-0.0216173566877841
-0.0163999013602733
-0.0121026402339339
-0.0087376404553651
-0.0061959750019013
-0.0042812786996364
-0.0027480153366923
-0.0013356544077396
0.0002021417021751
0.0020659286528825
0.0043771085329353
0.0071606114506721
0.0103558134287595
0.013845469802618
0.0174853540956974
0.0211279913783073
0.0246409028768539
0.0279180295765399
0.0308813340961933
0.033467624336481
0.0355967357754707
0.0371306948363781
0.0378491543233394
0.0374631509184837
0.035665825009346
0.0321977287530899
0.0269072465598583
0.019802276045084
0.0110865663737058
0.0011648584622889
-0.0093884244561195
-0.0198892559856176
-0.0296221878379583
-0.0379230342805385
-0.0442519672214984
-0.0482484996318817
-0.0497632436454296
-0.0488625392317771
-0.0458085350692272
-0.0410182029008865
-0.0350043289363384
-0.028313860297203
-0.0214759111404418
-0.0149537986144423
-0.0091009214520454
-0.0041317651048302
-0.000114856287837
0.0030127977952361
0.0054172994568943
0.0073331128805875
0.0090217590332031
0.0107282260432839
0.0126486374065279
0.0149126714095473
0.0175738595426082
0.0206098034977912
0.023937527090311
0.0274345632642507
0.030955746769905
0.0343503355979919
0.0374805331230163
0.0402341932058334
0.0425300151109695
0.0443103834986686
0.0455135256052017
0.0460330732166767
0.0456877537071704
0.0442229136824607
0.0413508750498294
0.0368169099092483
0.0304720345884561
0.0223380681127309
0.0126468315720558
0.0018363003619015
-0.0094950292259454
-0.0206571407616138
-0.0309444591403007
-0.0397106185555458
-0.0464355237782001
-0.0507762916386127
-0.0525940544903278
-0.0519560053944587
-0.0491185523569583
-0.0444945469498634
-0.0386027954518795
-0.0320027135312557
-0.0252275466918945
-0.018728595227003
-0.0128359720110893
-0.0077430149540305
-0.00351417157799
-0.0001042205840349
0.0026184981688857
0.0048449602909386
0.006793538108468
0.0086760455742478
0.0106689892709255
0.0128927007317543
0.015399694442749
0.0181774608790874
0.0211637876927852
0.0242650937288999
0.0273721702396869
0.0303750168532133
0.0331784971058368
0.0357099510729312
0.0379109568893909
0.03972128033638
0.0410596653819084
0.0417980924248695
0.0417397879064083
0.0406202897429466
0.0381407886743545
0.0340291559696197
0.0281121488660573
0.0203768424689769
0.0110089676454663
0.0004028100520372
-0.0108650820329785
-0.0220951829105615
-0.0325433760881423
-0.0415112897753715
-0.048435878008604
-0.052953265607357
-0.0549249798059463
-0.0544331930577755
-0.0517545528709888
-0.0473184287548065
-0.0416520461440086
-0.0353172309696674
-0.0288476813584566
-0.0226953532546758
-0.0171918962150812
-0.0125285508111119
-0.0087555889040231
-0.0057981330901384
-0.0034828663337975
-0.0015761035028845
0.0001684959279373
0.0019666980952024
0.003976889885962
0.0062912749126553
0.0089404201135039
0.0119029153138399
0.0151153495535254
0.0184820406138896
0.0218861680477857
0.0252029411494731
0.0283074267208576
0.0310669429600238
0.0333181396126747
0.0348428152501583
0.0353622436523437
0.0345607101917266
0.0321360006928443
0.0278683267533779
0.0216907076537609
0.0137392152100801
0.00437041092664
-0.0058592585846781
-0.0162521433085203
-0.0260555054992437
-0.0345558077096939
-0.0411625877022743
-0.0454690307378768
-0.0472854413092136
-0.04665008187294
-0.0438151583075523
-0.0392019860446453
-0.0333398096263408
-0.026806067675352
-0.0201655998826026
-0.0139089440926909
-0.0084036057814955
-0.0038662669248878
-0.0003557378076948
0.0022116424515843
0.0040255114436149
0.0053357742726802
0.0064107319340109
0.0075018559582531
0.0088123474270105
0.0104736201465129
0.0125390542671084
0.0149931758642196
0.0177636127918958
0.0207329913973808
0.0237560775130987
0.0266795065253973
0.0293589811772108
0.0316666178405284
0.0334750115871429
0.0346195846796035
0.0348668918013572
0.0339180007576942
0.0314530283212661
0.0272013023495674
0.0210157595574855
0.012933736667037
0.0032116817310452
-0.0076749399304389
-0.0190731231123209
-0.0302323214709758
-0.0404011569917202
-0.0489127598702907
-0.0552473254501819
-0.0590749606490135
-0.0602791458368301
-0.0589587911963462
-0.0554093830287456
-0.0500845350325107
-0.0435384847223758
-0.0363556668162345
-0.0290835462510585
-0.0221804771572351
-0.0159785170108079
-0.0106629692018032
-0.0062760151922702
-0.0027416828088462
0.000102202873677
0.002470965962857
0.0045969490893185
0.0066950456239283
0.0089361164718866
0.0114301424473524
0.0142208402976393
0.0172924548387527
0.0205841641873121
0.0240050684660673
0.0274469833821058
0.030795557424426
0.0339392870664596
0.0367683209478855
0.0391466356813907
0.0408650524914264
0.0416183620691299
0.0410343743860721
0.0387420430779457
0.0344541706144809
0.0280456934124231
0.0196113418787717
0.0094877816736698
-0.0017676685238257
-0.0134353637695312
-0.0247137546539306
-0.0348110496997833
-0.043038610368967
-0.0488867871463298
-0.052067182958126
-0.0525275990366935
-0.0504486709833145
-0.046214185655117
-0.0403523445129394
-0.0334637835621833
-0.0261504612863063
-0.0189492926001548
-0.0122785717248916
-0.006408829241991
-0.0014596134424209
0.0025846911594271
0.0058475355617702
0.0085271904245018
0.0108599308878183
0.0130824614316225
0.0154008297249674
0.0179667137563228
0.0208588019013404
0.0240759495645761
0.0275478642433881
0.0311577320098876
0.034766674041748
0.0382326804101467
0.0414225198328495
0.0442188307642936
0.0465168058872222
0.0481997355818748
0.0491014569997787
0.0489841625094413
0.0475511290132999
0.044494803994894
0.0395715534687042
0.0326791889965534
0.0239084232598543
0.013560177758336
0.0021311501041054
-0.0097310859709978
-0.0212957225739955
-0.0318274162709713
-0.0406650602817535
-0.0472922995686531
-0.0513912513852119
-0.0528683103621006
-0.051849365234375
-0.0486517064273357
-0.043739203363657
-0.0376630648970603
-0.0309925135225057
-0.0242511555552482
-0.0178732592612504
-0.0121761923655867
-0.0073438500985503
-0.003424652852118
-0.0003453157842159
0.0020627444609999
0.0040268269367516
0.0057899737730622
0.0075720371678471
0.0095445467159152
0.0118191167712211
0.0144445691257715
0.0174099337309598
0.0206539072096347
0.0240810289978981
0.0275756753981113
0.0310057625174522
0.0342221297323703
0.0370561890304088
0.0393074713647365
0.040725577622652
0.0410079397261142
0.0398282706737518
0.0368923135101795
0.0320071466267108
0.025147084146738
0.0164971649646759
0.0064594764262437
-0.0043791648931801
-0.0153074972331523
-0.0255655869841575
-0.0344308316707611
-0.0413066148757934
-0.0457908660173416
-0.0477076061069965
-0.0471081286668777
-0.0442511923611164
-0.0395634211599826
-0.0335838943719863
-0.0268990769982337
-0.0200744345784187
-0.0135942492634058
-0.007820788770914
-0.0029751497786492
0.000865249428898
0.0037587257102131
0.0058798785321414
0.0074801812879741
0.0088311675935983
0.0101735834032297
0.0116898817941546
0.0134926447644829
0.0156200435012578
0.0180418230593204
0.0206768028438091
0.0234147664159536
0.0261351112276315
0.0287192445248365
0.0310574155300855
0.0330464467406272
0.0345706455409526
0.0354722924530506
0.0355325490236282
0.0344749689102172
0.0319944210350513
0.0278147850185632
0.0217673908919096
0.013864018023014
0.004337016493082
-0.006364488042891
-0.0176171362400054
-0.0286924391984939
-0.0388404987752437
-0.0473760515451431
-0.0537535548210144
-0.0576226934790611
-0.0588585287332534
-0.0575611218810081
-0.0540285743772983
-0.0487153977155685
-0.0421813800930976
-0.0350286923348903
-0.0278330650180578
-0.0210839174687862
-0.0151408519595861
-0.0102063547819852
-0.0063195247203111
-0.0033756648190319
-0.0011652330867946
0.0005790181457996
0.0021337107755243
0.0037423828616738
0.0055873575620353
0.0077782147563993
0.0103505291044712
0.0132684800773859
0.0164330191910266
0.0197016596794128
0.0229183696210384
0.0259420555084943
0.0286625176668167
0.0309996642172336
0.0328865684568882
0.0342371352016925
0.0349065735936164
0.0346676781773567
0.0332239419221878
0.030261356383562
0.0255262572318315
0.0189081393182277
0.0105012040585279
0.000623483210802
-0.0102100828662514
-0.0213464964181184
-0.0320687182247638
-0.0416744202375412
-0.0495493449270725
-0.055226270109415
-0.0584265850484371
-0.0590817108750343
-0.0573318116366863
-0.0535020790994167
-0.0480584315955638
-0.0415495410561561
-0.0345431454479694
-0.0275603123009204
-0.0210164338350296
-0.0151881193742156
-0.0102142235264182
-0.00611342350021
-0.0028032180853188
-0.00012338522356
0.0021348141599446
0.0041964640840888
0.0062700575217604
0.0085206162184476
0.0110534075647592
0.0139074511826038
0.0170591734349727
0.0204355679452419
0.0239324904978275
0.0274342000484466
0.0308307223021984
0.0340253338217735
0.0369272045791149
0.0394334532320499
0.0414048507809639
0.0426414459943771
0.0428746305406093
0.0417904593050479
0.039084069430828
0.034531969577074
0.0280614905059337
0.0197974797338247
0.0100751938298344
-0.0005819625221192
-0.0115154180675745
-0.0220043566077947
-0.031344324350357
-0.0389244183897972
-0.0442962348461151
-0.047219231724739
-0.04767407476902
-0.0458483435213565
-0.0421019867062568
-0.0369176715612411
-0.030840303748846
-0.0244140438735485
-0.0181261114776134
-0.0123622324317693
-0.0073777693323791
-0.0032891747541725
-8.428795263171196e-05
0.002357636578381
0.0042389314621686
0.005803482607007
0.0072902189567685
0.0088977348059415
0.0107653085142374
0.0129656437784433
0.0155060440301895
0.0183366816490888
0.0213656704872846
0.0244773179292678
0.027548111975193
0.0304597076028585
0.0331111140549182
0.0354284755885601
0.0373662114143371
0.0388934463262558
0.0399636812508106
0.0404740758240222
0.0402344278991222
0.038970872759819
0.0363737791776657
0.0321747176349163
0.026225920766592
0.0185605026781559
0.0094209751114249
-0.0007488592527806
-0.0113467657938599
-0.0216814409941434
-0.0310546867549419
-0.0388433635234832
-0.0445702746510505
-0.0479508116841316
-0.048908095806837
-0.0475677177309989
-0.0442433580756187
-0.0394017472863197
-0.0335993841290473
-0.0274083781987428
-0.0213493574410676
-0.0158387329429388
-0.0111562926322221
-0.0074346484616398
-0.004665870219469
-0.0027219254989176
-0.0013866992667317
-0.0003955098800361
0.0005227404180914
0.0016086054965853
0.0030480541754513
0.0049573620781302
0.007371406070888
0.0102436179295182
0.0134617760777473
0.0168701894581317
0.020291544497013
0.0235474966466426
0.0264711081981658
0.0288984775543212
0.0306423604488372
0.0314725264906883
0.0311229154467582
0.029326194897294
0.0258692782372236
0.0206593386828899
0.0137784779071807
0.0055035501718521
-0.0037131004501134
-0.013288864865899
-0.0225696191191673
-0.0308961942791938
-0.0376750826835632
-0.0424452722072601
-0.0449295379221439
-0.0450615175068378
-0.0429832711815834
-0.0390156432986259
-0.0336115658283233
-0.0272996798157691
-0.0206229053437709
-0.0140778645873069
-0.0080609079450368
-0.002832799218595
0.0014866488054394
0.004902483895421
0.0075226854532957
0.0095312874764204
0.0111528374254703
0.0126136820763349
0.0141097344458103
0.0157863311469554
0.01772927865386
0.0199638195335865
0.0224611833691597
0.0251516178250312
0.0279377531260252
0.0307073164731264
0.0333468951284885
0.0357425659894943
0.0377545729279518
0.0391827933490276
0.0397504642605781
0.0391187220811843
0.0369322039186954
0.0328884981572628
0.0268159620463848
0.0187370330095291
0.0088977627456188
-0.0022410042583942
-0.0140451695770025
-0.0257720798254013
-0.0366488061845302
-0.0459545031189918
-0.0530952475965023
-0.0576662495732307
-0.0594967566430568
-0.0586622729897499
-0.0554590225219726
-0.050354216247797
-0.0439228229224681
-0.0367760695517063
-0.0294922031462192
-0.0225608721375465
-0.0163447596132755
-0.0110563328489661
-0.0067533394321799
-0.003358481451869
-0.0006948318332433
0.0014771660789847
0.0034232325851917
0.0053933444432914
0.007580348290503
0.0100966319441795
0.0129740014672279
0.0161777753382921
0.0196254067122936
0.0232050344347953
0.0267935506999492
0.0302704647183418
0.0335204005241394
0.0364194065332412
0.0388067737221717
0.0404562763869762
0.0410697907209396
0.0403084866702556
0.0378562808036804
0.0334927067160606
0.0271523222327232
0.0189633034169673
0.0092645492404699
-0.0014083408750593
-0.0123743060976266
-0.0228821709752082
-0.0321932099759578
-0.0396638289093971
-0.0448196679353714
-0.0474046133458614
-0.0473941266536712
-0.0449784733355045
-0.0405271910130977
-0.0345385000109672
-0.0275761485099792
-0.0202068835496902
-0.0129500739276409
-0.0062355361878871
-0.0003679413348436
0.0044930363073945
0.0083330813795328
0.0112651772797107
0.0134933637455105
0.015266322530806
0.0168333500623703
0.0184096843004226
0.0201544240117073
0.0221619494259357
0.0244638845324516
0.0270377341657876
0.0298195984214544
0.0327158160507679
0.0356105677783489
0.0383737795054912
0.0408660024404525
0.0429264828562736
0.0443464964628219
0.0448519252240657
0.0441158823668956
0.0418050177395343
0.0376496016979217
0.0315185189247131
0.0234771370887756
0.0138109046965837
0.0030104592442512
-0.0082740141078829
-0.0193003062158823
-0.0293190870434045
-0.0376667901873588
-0.0438447371125221
-0.0475655421614646
-0.0487661212682724
-0.0475956089794635
-0.0443828776478767
-0.0395894087851047
-0.0337554514408111
-0.0274416711181402
-0.0211690235882997
-0.015366856008768
-0.0103379013016819
-0.0062426421791315
-0.0031007647048681
-0.0008066446753218
0.0008388806600123
0.0020815653260797
0.0031675673089921
0.0043120868504047
0.0056802951730787
0.0073757120408117
0.0094384411349892
0.0118537070229649
0.0145633928477764
0.017475102096796
0.0204704888164997
0.0234087891876697
0.0261164251714944
0.0283672288060188
0.0298731885850429
0.0303034149110317
0.0293276365846395
0.0266707837581634
0.0221756100654602
0.015863113105297
0.0079659726470708
-0.0010790675878524
-0.0106735657900571
-0.0201232284307479
-0.0287192836403846
-0.0358239486813545
-0.0409438647329807
-0.0437783114612102
-0.0442397706210613
-0.0424524545669555
-0.0387279130518436
-0.0335152521729469
-0.0273411776870489
-0.0207558572292327
-0.0142803592607378
-0.008353223092854
-0.0032872504089027
0.0007532627787441
0.0037527959793806
0.0058263856917619
0.0071857864968478
0.008094641380012
0.0088237514719367
0.0096143009141087
0.010650934651494
0.0120467534288764
0.0138435270637273
0.0160248987376689
0.018528327345848
0.0212478879839181
0.0240393318235874
0.0267318841069936
0.0291327498853206
0.0310160089284181
0.0321086719632148
0.0320937819778919
0.0306407008320093
0.0274608768522739
0.0223749987781047
0.0153710888698697
0.0066399117931723
-0.0034182174131274
-0.0142188472673296
-0.0250492058694362
-0.0351503491401672
-0.0438150651752948
-0.0504747442901134
-0.0547536686062812
-0.0564925484359264
-0.0557494685053825
-0.0527791157364845
-0.0479929111897945
-0.0419082008302211
-0.0350911542773246
-0.0280954111367464
-0.0214027874171733
-0.015376086346805
-0.0102331358939409
-0.0060420758090913
-0.0027337956707924
-0.0001333552645519
0.0019913516007363
0.003878656309098
0.0057370397262275
0.0077274264767766
0.0099550439044833
0.0124654993414878
0.0152480835095047
0.0182472690939903
0.0213774032890796
0.0245369039475917
0.0276202205568552
0.030520673841238
0.0331175960600376
0.0352518856525421
0.0367043353617191
0.0371911339461803
0.0363846942782402
0.0339633375406265
0.0296833366155624
0.0234535504132509
0.0153897274285554
0.0058331666514277
-0.0046705529093742
-0.0154288448393344
-0.0256843622773885
-0.0347058214247226
-0.0418713949620723
-0.0467343181371688
-0.0490640550851821
-0.0488556288182735
-0.0463085249066352
-0.0417912080883979
-0.035800352692604
-0.0289091449230909
-0.0217033606022596
-0.0147136589512228
-0.0083586703985929
-0.0029123672284185
0.0015037488192319
0.0049108518287539
0.0074484306387603
0.0093371476978063
0.0108348289504647
0.0121937971562147
0.0136272152885794
0.0152899725362658
0.0172742176800966
0.0196098573505878
0.0222633145749568
0.0251427888870239
0.0281146392226219
0.0310244876891374
0.0337170623242855
0.0360446944832801
0.0378534607589244
0.0389544293284416
0.039104338735342
0.0380163118243217
0.0354050584137439
0.0310530103743076
0.0248739682137966
0.0169599540531635
0.0076057133264839
-0.0027026319876313
-0.0133407544344663
-0.0236212406307458
-0.0328689217567443
-0.0404888913035392
-0.0460234656929969
-0.0491940937936306
-0.0499249994754791
-0.0483448468148708
-0.0447654202580452
-0.0396409146487712
-0.0335118286311626
-0.0269378833472728
-0.0204303376376628
-0.014396633952856
-0.009106452576816
-0.0046859444119036
-0.0011371579021215
0.0016338317655026
0.0037899343296885
0.005534725729376
0.0070819412358105
0.0086258640512824
0.0103183947503566
0.0122575080022215
0.0144847370684146
0.0169882923364639
0.0197116993367671
0.0225664526224136
0.0254439264535903
0.0282208807766437
0.0307506900280714
0.0328357145190238
0.034199833869934
0.0344946980476379
0.0333505570888519
0.0304547846317291
0.0256333649158477
0.0189131591469049
0.0105490060523152
0.0010093261953443
-0.0090742465108633
-0.0189783535897731
-0.0279677212238311
-0.035377237945795
-0.0406867787241935
-0.0435742326080799
-0.0439397767186164
-0.0419071353971958
-0.0378068350255489
-0.032135471701622
-0.0254896879196167
-0.0184874609112739
-0.0116918953135609
-0.0055501759052276
-0.000357111915946
0.0037556928582489
0.0068112201988697
0.0089627653360366
0.0104537075385451
0.0115675767883658
0.0125817786902189
0.0137335574254393
0.0151986349374055
0.0170786641538143
0.0193943604826927
0.0220880545675754
0.0250407382845878
0.0281000025570392
0.0311078839004039
0.0339150540530681
0.0363717935979366
0.0382989943027496
0.0394586287438869
0.0395474173128604
0.0382243432104587
0.035168994218111
0.0301580745726823
0.0231400616466999
0.0142868682742118
0.0040008900687098
-0.0071285679005086
-0.0183963570743799
-0.0290562789887189
-0.0383961945772171
-0.0458115711808204
-0.0508671887218952
-0.0533378981053829
-0.0532216690480709
-0.0507242642343044
-0.0462252832949161
-0.0402327477931976
-0.0333253629505634
-0.0260846875607967
-0.0190261807292699
-0.012544710189104
-0.0068914568983018
-0.002180278301239
0.0015965434722602
0.0045508136972785
0.006871591322124
0.0087884850800037
0.0105348769575357
0.012317594140768
0.0142930867150425
0.0165534503757953
0.0191258341073989
0.0219809263944625
0.0250440202653408
0.0282067842781543
0.0313433744013309
0.0343305692076683
0.0370526686310768
0.0393737405538558
0.0410960540175437
0.0419398210942745
0.0415604263544082
0.0395999774336814
0.0357596091926097
0.0298757143318653
0.0219841171056032
0.0123532228171825
0.0014707408845424
-0.0100104492157697
-0.0213452838361263
-0.0317746959626674
-0.0406043343245983
-0.047275573015213
-0.0514228120446205
-0.0529107339680194
-0.0518404468894004
-0.0485231019556522
-0.0434318147599697
-0.0371409356594085
-0.0302564892917871
-0.0233459360897541
-0.0168797634541988
-0.0111931068822741
-0.0064695910550653
-0.0027456220705062
6.885698530822992e-05
0.0021577954757958
0.0037619823124259
0.0051438296213746
0.0065508340485394
0.0081772813573479
0.0101384846493601
0.0124672735109925
0.0151269054040312
0.0180319286882877
0.0210705865174531
0.024122342467308
0.0270688589662313
0.0298012848943471
0.0322211682796478
0.0342267453670501
0.0356817990541458
0.0363814495503902
0.0360476598143577
0.0343707725405693
0.0310749560594558
0.0259826723486185
0.0190703310072422
0.0105062732473015
0.0006602639332413
-0.0099191842600703
-0.0205577332526445
-0.0305314734578132
-0.0391529947519302
-0.0458501502871513
-0.0502267405390739
-0.0521008931100368
-0.0515152513980865
-0.0487183444201946
-0.0441238768398761
-0.0382523201406002
-0.0316658839583396
-0.0249131601303815
-0.0184820014983415
-0.0127552123740315
-0.0079780323430895
-0.0042453408241271
-0.0015091723762452
0.0003959839232265
0.0017157348338514
0.0027304824907332
0.0037078568711876
0.0048654126003384
0.0063523519784212
0.008248372003436
0.0105734365060925
0.0132986521348357
0.0163506474345922
0.0196137875318527
0.0229368936270475
0.0261410400271415
0.0290198251605033
0.0313287116587162
0.0327758565545082
0.0330360941588878
0.0317943431437015
0.0288079753518104
0.0239725746214389
0.0173692945390939
0.0092799831181764
0.0001716380938887
-0.0093470010906457
-0.0185920223593711
-0.0268857702612876
-0.0336414575576782
-0.0384304709732532
-0.0410181507468223
-0.0413718596100807
-0.0396506041288375
-0.0361782610416412
-0.0313983112573623
-0.0258157327771186
-0.019938874989748
-0.014229048974812
-0.00905885361135
-0.0046818871051073
-0.0012176092714071
0.0013484644005075
0.0031476367730647
0.0043901186436414
0.0053162272088229
0.0061572105623781
0.0071104117669165
0.0083211874589324
0.009872899390757
0.0117887547239661
0.0140396207571029
0.0165534894913434
0.0192297454923391
0.0219557397067546
0.0246167294681072
0.0270926877856254
0.0292390845715999
0.0308615770190954
0.0317064896225929
0.0314756520092487
0.0298603996634483
0.0265946760773658
0.0215227603912353
0.0146612199023365
0.0062326854094862
-0.0033377311192452
-0.0134608335793018
-0.0234484747052192
-0.0325934886932373
-0.0402512587606906
-0.0459120832383632
-0.049254335463047
-0.0501700825989246
-0.0487614125013351
-0.0453124940395355
-0.0402472727000713
-0.0340810976922512
-0.0273664314299821
-0.0206334721297025
-0.0143350018188357
-0.0088052051141858
-0.004235113505274
-0.0006672460585832
0.0019869969692081
0.0039133420214056
0.0053537907078862
0.0065635284408926
0.0077721355482935
0.009157994762063
0.0108395870774984
0.012878056615591
0.0152792297303676
0.0179927460849285
0.0209183935075998
0.023923173546791
0.0268621817231178
0.0295922644436359
0.0319653786718845
0.0338020138442516
0.0348675474524498
0.0348748713731765
0.0335178785026073
0.0305291805416345
0.0257488414645195
0.0191839542239904
0.0110427709296345
0.0017355673480778
-0.0081632444635033
-0.0179858412593603
-0.0270511824637651
-0.0347357466816902
-0.0405314452946186
-0.0440925136208534
-0.0452697984874248
-0.0441245064139366
-0.0409136563539505
-0.0360483303666114
-0.030036037787795
-0.0234206058084964
-0.0167241878807544
-0.0103944260627031
-0.0047647403553128
-3.2386742532253265e-05
0.003741686232388
0.00661136303097
0.0087153147906064
0.0102470973506569
0.0114238131791353
0.0124567421153187
0.0135304639115929
0.0147889489307999
0.0163241643458604
0.018170952796936
0.0203123409301042
0.0226897727698087
0.0252132527530193
0.0277724228799343
0.0302450396120548
0.0324903987348079
0.034321654587984
0.0354773737490177
0.0356250219047069
0.0344055742025375
0.03150425106287
0.0267270114272832
0.0200639218091964
0.0117243230342864
0.0021325112320482
-0.0081173172220587
-0.0183322988450527
-0.0277989711612463
-0.0358581505715847
-0.041973277926445
-0.045785266906023
-0.0471437089145183
-0.0461133830249309
-0.0429625436663627
-0.0381296351552009
-0.0321629494428634
-0.0256461091339588
-0.0191295612603425
-0.013076078146696
-0.0078203845769166
-0.0035461084917187
-0.0002851942554116
