bvp
0.0436266921460628
0.047094389796257
0.049661461263895
0.0508636571466922
0.050230897963047
0.0473769977688789
0.0420916378498077
0.0344121605157852
0.0246561523526906
0.0134016647934913
0.0014238022267818
-0.0103894062340259
-0.0211295932531356
-0.0299661196768283
-0.0362390130758285
-0.0395310334861278
-0.0397090837359428
-0.0369314961135387
-0.031620118767023
-0.0243967585265636
-0.0159929208457469
-0.0071548298001289
0.0014421679079532
0.0092647708952426
0.0159638598561286
0.0213789269328117
0.0255183484405279
0.0285284500569105
0.0306542459875345
0.0321952067315578
0.0334594249725341
0.0347217842936515
0.0361940823495388
0.0380101352930069
0.0402256324887275
0.0428277999162673
0.0457463972270488
0.0488631017506122
0.0520148389041423
0.0549787059426307
0.0574358999729156
0.0589419305324554
0.0589434243738651
0.0568532012403011
0.0521598681807518
0.0445422120392322
0.0339656844735145
0.0207396298646926
0.0055163977667689
-0.0107708908617496
-0.0270154420286417
-0.0420654006302356
-0.0548538044095039
-0.064516007900238
-0.0704814121127128
-0.0725243315100669
-0.0707714408636093
-0.065672680735588
-0.0579370632767677
-0.0484375357627868
-0.0380997322499752
-0.0277922172099351
-0.0182340219616889
-0.0099318940192461
-0.0031534526497125
0.0020651426166296
0.0058854185044765
0.0086161475628614
0.0106514813378453
0.0124034406617283
0.014241399243474
0.0164506416767835
0.0192093532532453
0.0225790794938802
0.0265124198049306
0.0308776348829269
0.035488985478878
0.0401328429579734
0.0445782132446765
0.0485594272613525
0.0517388060688972
0.0536805167794227
0.0538660660386085
0.0517583452165126
0.046899676322937
0.0390226878225803
0.0281500723212957
0.0146540198475122
-0.0007523223757743
-0.0170948710292577
-0.0332594141364097
-0.0481185242533683
-0.0606495440006256
-0.0700366273522377
-0.0757485553622245
-0.0775844678282737
-0.0756812095642089
-0.0704840496182441
-0.0626871734857559
-0.0531453788280487
-0.0427641943097114
-0.0323902666568756
-0.0227207709103822
-0.0142431324347853
-0.0072159972041845
-0.0016869815299287
0.0024705789983272
0.0055113844573497
0.0077684107236564
0.0096049578860402
0.0113679934293031
0.0133466683328151
0.0157447084784507
0.0186705626547336
0.022144865244627
0.0261183958500623
0.0304890759289264
0.0351138263940811
0.039814218878746
0.0443658605217933
0.0484623499214649
0.0516726374626159
0.0534375011920928
0.0531303286552429
0.0501653663814067
0.044124998152256
0.0348779261112213
0.0226542428135871
0.0080557502806186
-0.0079977139830589
-0.0243748873472213
-0.0398711264133453
-0.0533499643206596
-0.0638697370886802
-0.0707818940281868
-0.07378751039505
-0.0729512721300125
-0.0686787441372871
-0.0616559423506259
-0.052754983305931
-0.0429215356707572
-0.03306121006608
-0.0239417776465415
-0.0161270145326852
-0.0099457269534468
-0.0054898541420698
-0.0026369579136371
-0.0010928194969892
-0.0004485491663217
-0.0002457723021507
-3.90131026506424e-05
0.0005569774657487
0.001833876594901
0.0039626024663448
0.00697997584939
0.0108005590736866
0.0152472723275423
0.020088292658329
0.0250734314322471
0.0299597140401601
0.0345114469528198
0.0384717993438243
0.0415243953466415
0.0432747453451156
0.0432726368308067
0.0410784073173999
0.0363605357706546
0.0289981365203857
0.0191504992544651
0.0072682574391365
-0.005946472287178
-0.0196113958954811
-0.0327557623386383
-0.0444232560694217
-0.0537755154073238
-0.060183934867382
-0.0632937103509903
-0.0630497634410858
-0.0596869587898254
-0.0536908097565174
-0.0457317754626274
-0.0365814939141273
-0.0270224399864673
-0.0177603885531425
-0.009354980662465
-0.0021833274513483
0.0035653673112392
0.0078781843185424
0.0108954198658466
0.0128707103431224
0.014118293300271
0.0149620287120342
0.0156940091401338
0.0165446158498525
0.0176658555865287
0.0191283784806728
0.0209319274872541
0.0230239797383546
0.0253185797482728
0.0277109406888484
0.0300796180963516
0.0322671383619308
0.0340455472469329
0.0350909233093261
0.0349915213882923
0.0332963280379772
0.0295927934348583
0.0235954374074935
0.0152273140847682
0.0046775192022323
-0.0075843445956707
-0.0208466537296772
-0.0342352502048015
-0.046812504529953
-0.0576791167259216
-0.0660678148269653
-0.0714266821742057
-0.0734862983226776
-0.0722881853580474
-0.0681636482477188
-0.0616762861609458
-0.0535415783524513
-0.044533297419548
-0.0353897362947464
-0.0267337914556264
-0.0190174132585525
-0.0124971456825733
-0.0072418954223394
-0.0031635053455829
-5.85559755563736e-05
0.0023462455719709
0.0043523609638214
0.0062504708766937
0.0082810074090957
0.0106055121868848
0.0132979899644851
0.0163506492972373
0.0196882355958223
0.023188229650259
0.0266998708248138
0.0300488732755184
0.0330215767025947
0.035339243710041
0.0366444885730743
0.0365221798419952
0.034560427069664
0.0304362885653972
0.0240037329494953
0.0153580270707607
0.0048564784228801
-0.0069047547876834
-0.0191489532589912
-0.0310025140643119
-0.0415912270545959
-0.0501378178596496
-0.056047286838293
-0.058966115117073
-0.0588116943836212
-0.0557727254927158
-0.0502772405743598
-0.0429310053586959
-0.0344367511570453
-0.025504283607006
-0.0167679544538259
-0.0087309274822473
-0.0017394528258591
0.0040243370458483
0.0085372310131788
0.0119139654561877
0.0143724856898188
0.0161934532225132
0.0176774971187114
0.0191026981920003
0.0206895992159843
0.0225817691534757
0.0248431339859962
0.027464997023344
0.0303778778761625
0.0334701724350452
0.0366074629127979
0.0396302863955497
0.0423214808106422
0.0443716198205947
0.0453763641417026
0.0448737479746341
0.0424142628908157
0.0376499183475971
0.0304224863648414
0.0208288915455341
0.0092450138181447
-0.0036975173279643
-0.0171742103993892
-0.0302591491490602
-0.0420306734740734
-0.0516731515526771
-0.0585594810545444
-0.0623114444315433
-0.0628387331962585
-0.0603417865931987
-0.0552679263055324
-0.0482377260923385
-0.0399625822901725
-0.0311618000268936
-0.0224865805357694
-0.0144613487645983
-0.0074453679844737
-0.0016140369698405
0.003033603541553
0.0066415313631296
0.0094501581043004
0.0117478631436824
0.0138287963345646
0.0159561764448881
0.0183269772678613
0.021050164476037
0.0241500996053218
0.0275844801217317
0.0312629006803035
0.0350638628005981
0.0388507582247257
0.0424808412790298
0.0457945019006729
0.0485818088054657
0.0505449809134006
0.0512858852744102
0.0503379926085472
0.0472414940595626
0.0416436977684497
0.0333972200751304
0.0226279664784669
0.009757911786437
-0.0045211743563413
-0.0193197596818208
-0.0336514338850975
-0.0465407371520996
-0.057126447558403
-0.0647522583603859
-0.0690322890877723
-0.0698813125491142
-0.0675060153007507
-0.0623635314404964
-0.0550980418920517
-0.0464592389762401
-0.0372096411883831
-0.0280413702130317
-0.0195173267275095
-0.0120330657809972
-0.0057956185191869
-0.0008252207189798
0.0030180439352989
0.0059922635555267
0.0084260702133178
0.0106672924011945
0.0130329560488462
0.0157707147300243
0.019035505130887
0.0228812135756015
0.0272676534950733
0.0320792682468891
0.0371499694883823
0.0422873720526695
0.0472890883684158
0.0519473999738693
0.0560346022248268
0.0592658594250679
0.0612644851207733
0.0615635067224502
0.0596547052264213
0.0550770685076713
0.0475255474448204
0.036951970309019
0.0236317981034517
0.0081792343407869
-0.0084994360804557
-0.0253055766224861
-0.0410732999444007
-0.0547009706497192
-0.0652776286005973
-0.072182185947895
-0.0751359462738037
-0.0742065608501434
-0.0697737038135528
-0.0624678991734981
-0.0530886948108673
-0.0425090380012989
-0.0315775126218795
-0.0210319571197032
-0.0114360675215721
-0.0031438134610652
0.0037089250981807
0.0091877989470958
0.0135227367281913
0.0170515514910221
0.0201492626219987
0.023162493482232
0.0263668298721313
0.0299460757523775
0.0339848324656486
0.0384717881679534
0.0433147735893726
0.0483662411570549
0.0534524731338024
0.0583973377943038
0.063036173582077
0.0672165751457214
0.0707752704620361
0.0734891518950462
0.0750267133116722
0.0749332383275032
0.0726686120033264
0.0677017346024513
0.0596424117684364
0.0483704023063182
0.0341227203607559
0.0175156332552433
-0.0005045225843787
-0.0187693815678358
-0.0360283106565475
-0.0510919280350208
-0.0629605278372764
-0.070925548672676
-0.0746351927518844
-0.0741140991449356
-0.0697352290153503
-0.0621604770421981
-0.052262682467699
-0.0410263985395431
-0.0294334776699543
-0.0183536764234304
-0.0084584597498178
-0.0001698024570941
0.006352100521326
0.0111855473369359
0.0145964287221431
0.0169731695204973
0.0187584795057773
0.0203835554420948
0.0222132541239261
0.0245112553238868
0.0274271368980407
0.0309963300824165
0.0351446643471717
0.0397050194442272
0.0444520227611064
0.0491412170231342
0.0535388514399528
0.0574405081570148
0.0606709271669387
0.0630493015050888
0.0643288940191268
0.0641512125730514
0.0620506070554256
0.0575186088681221
0.0501147583127021
0.0395951531827449
0.0260228365659713
0.0098242554813623
-0.0082257948815822
-0.0270795077085495
-0.0455330982804298
-0.0623669102787971
-0.076482705771923
-0.0870181322097778
-0.0934290736913681
-0.0955332517623901
-0.0935126468539238
-0.0878777652978897
-0.0793973729014396
-0.0690008103847503
-0.0576668232679367
-0.0463123992085456
-0.0356933549046516
-0.0263378340750932
-0.0185289438813924
-0.0123234773054718
-0.0075864130631089
-0.0040364852175116
-0.0013031940907239
0.0010101487860083
0.0032688546925783
0.0057637076824903
0.0086872642859816
0.0121319303289055
0.0161002129316329
0.020515551790595
0.0252359993755817
0.0300785154104232
0.0348477065563201
0.0393432229757308
0.0433279275894165
0.046475239098072
0.0483372658491134
0.0483643114566803
0.0459798276424407
0.0406969338655471
0.0322497375309467
0.0207003746181726
0.0064882934093475
-0.0095905773341655
-0.0264675728976726
-0.0429279692471027
-0.0577547773718833
-0.0698638036847114
-0.0784141793847084
-0.0828931778669357
-0.0831683725118637
-0.0794911161065101
-0.0724489465355873
-0.0628780871629715
-0.0517514795064926
-0.0400598384439945
-0.0287005957216024
-0.0183885395526886
-0.0095988530665636
-0.0025459630414843
0.0028013158589601
0.0066724689677357
0.0094289742410182
0.0114959040656685
0.0133010065183043
0.0152186974883079
0.0175210963934659
0.0203523077070713
0.0237323697656393
0.0275799948722124
0.0317432470619678
0.0360318645834922
0.0402464643120765
0.0442004427313804
0.0477296747267246
0.0506795570254325
0.0528595000505447
0.0539787262678146
0.0536061264574527
0.051196351647377
0.0461868420243263
0.0381282344460487
0.0268078781664371
0.0123467128723859
-0.0047487616539001
-0.0236019045114517
-0.0430533923208713
-0.0617985054850578
-0.0785415768623352
-0.0921418219804763
-0.1017326414585113
-0.106804072856903
-0.1072434037923812
-0.1033287867903709
-0.0956767424941062
-0.0851517617702484
-0.0727522000670433
-0.0594950392842292
-0.046319268643856
-0.03400819003582
-0.0231269467622041
-0.0139872841536998
-0.0066496431827545
-0.000955106690526
0.0034224006813019
0.0069085666909813
0.0099551063030958
0.0129736242815852
0.0162874348461627
0.020103832706809
0.0245064478367567
0.0294689014554023
0.0348839312791824
0.0405906103551387
0.0463909208774566
0.0520671308040618
0.0573987439274787
0.0621548481285572
0.0660540238022804
0.0687158107757568
0.0696417316794395
0.0682532265782356
0.0639860108494758
0.0564193166792392
0.0454075932502746
0.0311752278357744
0.0143450731411576
-0.0041048037819564
-0.0229465309530496
-0.0408514812588691
-0.0565512403845787
-0.0689764693379402
-0.0773600116372108
-0.0813032165169715
-0.0807993561029434
-0.0762097388505935
-0.0682001858949661
-0.0576523169875144
-0.0455599911510944
-0.0329175740480423
-0.0206133686006069
-0.0093475617468357
0.0004155989736318
0.0084638008847832
0.0148255042731761
0.0197291504591703
0.0235333442687988
0.0266490019857883
0.0294738784432411
0.0323421694338321
0.0354914888739585
0.0390512496232986
0.0430484339594841
0.0474240630865097
0.052054826170206
0.056775152683258
0.0613988116383552
0.0657402426004409
0.069626048207283
0.0728799328207969
0.0752759128808975
0.0764767974615097
0.0759984850883483
0.0732429921627044
0.0676062852144241
0.0586284399032592
0.0461416468024253
0.0303723774850368
0.0119674950838088
-0.0080585274845361
-0.0284378752112388
-0.0477995052933692
-0.0648276284337043
-0.0784065425395965
-0.0877363234758377
-0.0924045369029045
-0.0924052298069
-0.0881150960922241
-0.0802384316921234
-0.0697177052497863
-0.0576145909726619
-0.0449826940894126
-0.0327528938651084
-0.021647211164236
-0.0121307466179132
-0.0044007012620568
0.0015948554500937
0.0061114081181585
0.0095383813604712
0.0123207820579409
0.0148892076686024
0.017606221139431
0.0207323022186756
0.0244086254388093
0.0286535061895847
0.0333757400512695
0.0384041778743267
0.0435243993997573
0.0485129803419113
0.0531640350818634
0.0573009401559829
0.0607566200196743
0.0633152574300766
0.0646454319357872
0.0642735213041305
0.0616253577172756
0.0561330206692218
0.0473791845142841
0.0352372378110885
0.0199626479297876
0.0022103143855929
-0.0170188285410404
-0.0364880785346031
-0.0548707544803619
-0.0709022432565689
-0.0835160762071609
-0.091950848698616
-0.0958201959729194
-0.0951390787959098
-0.0903009325265884
-0.0820132717490196
-0.0712062716484069
-0.0589218363165855
-0.0461907386779785
-0.0339161306619644
-0.02278883010149
-0.0132480822503566
-0.0054769581183791
0.0005792891606688
0.0051703257486224
0.0086777666583657
0.0115447510033845
0.0142071414738893
0.0170340631157159
0.0202855840325355
0.0240933988243341
0.0284662470221519
0.0333124957978725
0.038468062877655
0.0437268577516078
0.0488755851984024
0.0537190288305282
0.058073054999113
0.0617201626300811
0.0643477067351341
0.0655081793665885
0.0646372511982917
0.0611367300152778
0.0545034483075141
0.044471263885498
0.031126569956541
0.01496272534132
-0.0031435517594218
-0.0220262520015239
-0.0403676405549049
-0.0568479783833026
-0.0702880769968032
-0.0797777995467186
-0.0847780928015708
-0.0851739421486854
-0.0812658667564392
-0.0737085491418838
-0.0634145513176918
-0.0514363124966621
-0.0388373583555221
-0.0265722908079624
-0.015394726768136
-0.0057997326366603
0.001997529529035
0.0080438684672117
0.0125956553965806
0.0160475224256515
0.0188562702387571
0.0214674621820449
0.0242525525391101
0.027465172111988
0.0312214903533458
0.0355062931776046
0.040200863033533
0.045120857656002
0.050049889832735
0.0547634661197662
0.059043250977993
0.062669426202774
0.065378651022911
0.0668055266141891
0.06645368039608
0.0637355297803878
0.0580804422497749
0.0490726567804813
0.0365770459175109
0.020828416571021
0.0024644769728183
-0.0175125505775213
-0.0378409177064895
-0.0571464821696281
-0.074101984500885
-0.0875750109553337
-0.096747413277626
-0.101191446185112
-0.1008960232138633
-0.0962453484535217
-0.0879537686705589
-0.0769651159644126
-0.0643319338560104
-0.0510941967368125
-0.0381761156022548
-0.0263078771531581
-0.0159731190651655
-0.0073879640549421
-0.0005170316435396
0.0048789214342832
0.0091773746535182
0.0128200156614184
0.0162386056035757
0.0197940301150083
0.0237359330058097
0.0281842984259128
0.033134639263153
0.0384835042059421
0.0440633744001388
0.0496719032526016
0.0550903752446174
0.0600968413054943
0.0644660294055938
0.0679398402571678
0.0701754242181778
0.0707074254751205
0.0689644590020179
0.0643528997898101
0.0563898831605911
0.0448473021388053
0.0298627149313688
0.0119861662387847
-0.0078474804759025
-0.0284121241420507
-0.0483272112905979
-0.0662178844213485
-0.0808778628706932
-0.0914021283388137
-0.097268022596836
-0.0983664020895958
-0.0949863418936729
-0.0877576768398284
-0.0775628685951232
-0.065428614616394
-0.0524064935743808
-0.0394584015011787
-0.0273634884506464
-0.0166573040187358
-0.0076097412966191
-0.0002389643341302
0.0056475261226296
0.0103870090097188
0.0143802817910909
0.018019326031208
0.0216373950242996
0.0254782531410455
0.0296818986535072
0.0342855341732502
0.0392353646457195
0.0444060489535331
0.0496258288621902
0.0547029785811901
0.0594479255378246
0.0636807307600975
0.0672094747424125
0.0697814226150512
0.0710339397192001
0.0704776644706726
0.0675352439284324
0.0616427361965179
0.0523919686675071
0.039670031517744
0.0237532909959554
0.0053287185728549
-0.0145615963265299
-0.034635029733181
-0.0535187125205993
-0.0699116736650466
-0.082730546593666
-0.0912182852625846
-0.0950092002749443
-0.0941457822918891
-0.0890466645359993
-0.0804394111037254
-0.0692723542451858
-0.056605901569128
-0.0434893406927585
-0.030846107751131
-0.0193869434297084
-0.0095592364668846
-0.0015361902769654
0.0047576096840202
0.0095946369692683
0.0133759146556258
0.0165531989187002
0.0195556245744228
0.0227336455136537
0.0263245794922113
0.0304418466985225
0.0350809693336486
0.0401322394609451
0.0454049743711948
0.0506649985909462
0.0556715168058872
0.0602020844817161
0.0640588924288749
0.0670456811785698
0.0689144358038902
0.0693103075027465
0.0677582845091819
0.063715785741806
0.0566830337047576
0.0463411845266819
0.0326803661882877
0.0160815212875604
-0.0026776492595672
-0.02249919436872
-0.0420989505946636
-0.0601611770689487
-0.0754851773381233
-0.0871086195111274
-0.0944006219506263
-0.0971167832612991
-0.0954077690839767
-0.089781068265438
-0.0810243263840675
-0.0701028555631637
-0.0580440983176231
-0.0458219088613987
-0.0342547483742237
-0.0239303931593894
-0.015171343460679
-0.0080462144687771
-0.002412898465991
0.0020220279693603
0.0056361057795584
0.0088257500901818
0.0119514614343643
0.0152960577979683
0.019038189202547
0.0232463292777538
0.0278907902538776
0.0328638851642608
0.0380038172006607
0.0431211665272712
0.0480205342173576
0.0525000356137752
0.056313157081604
0.0591104924678802
0.060411512851715
0.0596418231725692
0.0562315098941326
0.0497455783188343
0.0400133021175861
0.0272231139242649
0.0119535010308027
-0.0048712063580751
-0.0220863651484251
-0.0384270623326301
-0.0526766367256641
-0.0638039633631706
-0.0710722506046295
-0.07410579174757
-0.0729156881570816
-0.0678896158933639
-0.0597389116883277
-0.0494001619517803
-0.0379077866673469
-0.0262637734413146
-0.0153249064460396
-0.0057211425155401
0.0021857246756553
0.0083036590367555
0.0127774383872747
0.0159271825104951
0.0181724932044744
0.0199590995907783
0.0216987133026123
0.023724939674139
0.0262591484934091
0.0293874666094779
0.0330629013478755
0.0371348299086093
0.0413914918899536
0.0456015355885028
0.049545619636774
0.0530276894569397
0.0558534748852252
0.0577757097780704
0.0584344454109668
0.0573383942246437
0.0539135038852691
0.0476108230650424
0.038047082722187
0.025141492486
0.0092043317854404
-0.0090535720810294
-0.0285880975425243
-0.0481416061520576
-0.0663882717490196
-0.0820811986923217
-0.0941850915551185
-0.1019840016961097
-0.1051491945981979
-0.1037539467215538
-0.098240427672863
-0.0893516167998313
-0.0780354812741279
-0.0653299912810325
-0.0522416457533836
-0.0396352782845497
-0.0281588844954967
-0.0182126332074403
-0.0099500808864831
-0.0033024037256836
0.0019760802388191
0.0062473905272781
0.0099237756803631
0.0134048806503415
0.0170243345201015
0.021011546254158
0.0254761278629302
0.030415840446949
0.0357380509376525
0.0412847474217414
0.0468608103692531
0.0522628277540206
0.0572934299707412
0.0617480427026748
0.0653751119971275
0.0678259506821632
0.0686262398958206
0.0672019496560096
0.0629684552550315
0.055462758988142
0.0444823168218135
0.0301902722567319
0.0131559940055012
-0.0056809741072356
-0.0251130685210227
-0.0438068993389606
-0.0604544878005981
-0.0739110112190246
-0.0833136811852455
-0.0881727635860443
-0.0884108394384384
-0.0843426138162612
-0.07661072909832
-0.0660923719406127
-0.0537896528840065
-0.0407188981771469
-0.0278086885809898
-0.0158129446208477
-0.0052518863230943
0.0036082789301872
0.0107417749240994
0.016326205804944
0.0206880662590265
0.0242374036461114
0.027398157864809
0.0305436477065086
0.0339538604021072
0.0378032028675079
0.0421699732542037
0.0470524840056896
0.0523834154009819
0.0580421909689903
0.0638654381036758
0.0696549266576767
0.0751793012022972
0.0801564306020736
0.0842103287577629
0.0868289172649383
0.0873697027564048
0.0851352885365486
0.079495683312416
0.0700257197022438
0.0566369779407978
0.0396682359278202
0.0198973454535007
-0.0015293061733245
-0.0232282541692256
-0.0437424257397651
-0.0617071539163589
-0.0759960561990737
-0.0858318656682968
-0.0908510610461235
-0.0911160036921501
-0.0870779454708099
-0.0794992893934249
-0.0693453252315521
-0.0576651543378829
-0.0454815924167633
-0.0336950905621051
-0.0230057407170534
-0.0138639220967888
-0.0064562293700873
-0.0007265615276992
0.0035742737818509
0.0068221930414438
0.0094477143138647
0.0118673332035541
0.014427370391786
0.0173676162958145
0.0208079610019922
0.0247571878135204
0.0291376858949661
0.0338112823665142
0.0385966449975967
0.0432867109775543
0.0476725026965141
0.0515587665140628
0.0547498911619186
0.057001493871212
0.0579636916518211
0.0571609213948249
0.0540362559258937
0.0480533167719841
0.0388294234871864
0.0262664780020713
0.0106418654322624
-0.0073683019727468
-0.026739178225398
-0.0462131313979625
-0.0644580498337745
-0.0802273601293563
-0.0924929231405258
-0.100542664527893
-0.1040380895137786
-0.1030286028981208
-0.0979245230555534
-0.0894337147474289
-0.0784707069396972
-0.0660486742854118
-0.0531652495265007
-0.040697656571865
-0.0293237213045358
-0.019475795328617
-0.0113285742700099
-0.0048239259049296
0.0002740076743066
0.0043147397227585
0.0076999771408736
0.0108236353844404
0.0140182776376605
0.0175175219774246
0.0214411653578281
0.0258036628365516
0.0305356103926897
0.0355067104101181
0.0405489020049572
0.0454802624881267
0.0501244217157363
0.0543195344507694
0.0579071938991546
0.0606858022511005
0.0623417198657989
0.0624151341617107
0.0603421404957771
0.0555626079440116
0.0476586930453777
0.0364864915609359
0.0222680792212486
0.0056206276640295
-0.012488436885178
-0.030850812792778
-0.0481647849082946
-0.0631905421614646
-0.0748874247074127
-0.082518346607685
-0.085715651512146
-0.0845056772232055
-0.0792930275201797
-0.0708041936159133
-0.0599915944039821
-0.0479094833135604
-0.0355819948017597
-0.0238874107599258
-0.0134774474427104
-0.0047369841486215
0.0022173170000314
0.0075045931152999
0.0114235058426857
0.0143811982125043
0.0168185625225305
0.0191470813006162
0.0217052288353443
0.024728987365961
0.0283322893083095
0.0325048491358757
0.0371321737766265
0.0420296713709831
0.0469770357012748
0.0517452731728553
0.0561093017458915
0.0598302036523819
0.0626083612442016
0.0640420690178871
0.0636308789253234
0.0608390644192695
0.0552072934806346
0.0464833490550518
0.034733448177576
0.0203939341008663
0.0042445361614227
-0.0126790348440408
-0.0292008556425571
-0.0441308468580246
-0.0563947483897209
-0.0651549249887466
-0.0699014738202095
-0.0704997852444648
-0.0671902894973754
-0.0605429485440254
-0.0513749793171882
-0.0406440459191799
-0.0293311420828104
-0.0183279663324356
-0.0083429487422108
0.0001563220284879
0.006954182870686
0.012064553797245
0.0156921539455652
0.0181787312030792
0.0199360437691211
0.0213783532381057
0.0228673480451107
0.0246746279299259
0.0269620269536972
0.0297801364213228
0.033083438873291
0.0367548242211341
0.0406301617622375
0.0445199236273765
0.0482279583811759
0.0515531450510025
0.0542544908821582
0.0559946000576019
0.0563071817159652
0.0546210333704948
0.0503435209393501
0.0429850295186042
0.0322927385568618
0.0183591600507497
0.001675134524703
-0.0168912000954151
-0.0361866950988769
-0.0549113079905509
-0.0717695206403732
-0.0856100469827652
-0.0955414772033691
-0.1010210365056991
-0.101907379925251
-0.0984617620706558
-0.0912963673472404
-0.0812823101878166
-0.0694330781698226
-0.0567809678614139
-0.0442631691694259
-0.0326322391629219
-0.0224017221480608
-0.0138293374329805
-0.0069331382401287
-0.00153240095824
0.0026968969032168
0.0061609530821442
0.0092853130772709
0.0124526424333453
0.0159494951367378
0.0199351757764816
0.0244392678141593
0.0293827690184116
0.0346116907894611
0.0399322286248207
0.0451408103108406
0.0500451140105724
0.0544692687690258
0.058231983333826
0.061095230281353
0.0627089962363243
0.0625945851206779
0.0601931326091289
0.0549752712249755
0.0465781651437282
0.0349268428981304
0.0203107502311468
0.0033977190032601
-0.0148216094821691
-0.0331461727619171
-0.0503063648939132
-0.065108485519886
-0.0765624940395355
-0.0839802175760269
-0.0870353728532791
-0.0857791453599929
-0.0806111991405487
-0.0722161903977394
-0.0614752396941185
-0.0493586622178554
-0.0368176288902759
-0.0246930718421936
-0.0136443544179201
-0.0041017299517989
0.0037484727799892
0.0099475868046283
0.0147241298109292
0.0184347759932279
0.0214957613497972
0.0243164040148258
0.0272446498274803
0.0305289104580879
0.0342975631356239
0.0385597124695777
0.0432274788618087
0.0481506511569023
0.0531478188931942
0.0580234751105308
0.0625776499509811
0.0666130036115646
0.0699246153235435
0.0722614601254463
0.0732775852084159
0.0725128278136253
0.0694336742162704
0.0635331943631172
0.0544626265764236
0.042156271636486
0.0269121751189231
0.0094035034999251
-0.0093788187950849
-0.0282329767942428
-0.045886717736721
-0.0611515417695045
-0.0730562955141067
-0.0809390023350715
-0.0844990760087966
-0.0838098004460334
-0.0792872905731201
-0.0716233998537063
-0.0616946406662464
-0.0504592359066009
-0.038854356855154
-0.0277009308338165
-0.0176279954612255
-0.0090305246412754
-0.0020592911168932
0.0033616125583648
0.0074863880872726
0.0106760757043957
0.0133247748017311
0.0157991405576467
0.0183960981667041
0.021318394690752
0.024667102843523
0.0284483507275581
0.0325883775949478
0.0369538441300392
0.0413771122694015
0.0456805117428302
0.0496929660439491
0.0532549507915973
0.0562033504247665
0.0583304017782211
0.0593296512961387
0.0587665364146232
0.0561120435595512
0.0508420020341873
0.0425711497664451
0.0311826132237911
0.0169155616313219
0.0003843214362859
-0.0174765922129154
-0.035522848367691
-0.0525351166725158
-0.0673542693257331
-0.0790059491991996
-0.0868039280176162
-0.0904144719243049
-0.0898710042238235
-0.0855479910969734
-0.0781048610806465
-0.0684000253677368
-0.0573827847838401
-0.0459818691015243
-0.0350074246525764
-0.0250783115625381
-0.0165809132158756
-0.0096607664600014
-0.0042467997409403
-0.0001013475703075
0.0031193341128528
0.0058033810928463
0.0083237756043672
0.0109925549477338
0.0140355573967099
0.0175778809934854
0.0216362588107585
0.0261274687945842
0.0308941006660461
0.035736933350563
0.0404462814331054
0.0448292642831802
0.0487257130444049
0.0520022623240947
0.0545153804123401
0.0560514591634273
0.0562795102596282
0.0547533445060253
0.0509755834937095
0.0445125214755535
0.0351287759840488
0.0228941366076469
0.0082272384315729
-0.00812728703022
-0.025175355374813
-0.0417855754494667
-0.0568163804709911
-0.069242462515831
-0.0782661959528923
-0.0833980292081832
-0.0844954326748848
-0.0817595571279525
-0.0756949186325073
-0.06703881919384
-0.0566677376627922
-0.0454908981919288
-0.0343479588627815
-0.023930387571454
-0.0147346388548612
-0.0070406468585133
-0.0009124069474637
0.0037781104911118
0.0073082596063613
0.010048720985651
0.012400209903717
0.0147332223132252
0.0173402018845081
0.0204056873917579
0.023997314274311
0.0280770249664783
0.0325257927179336
0.0371734909713268
0.0418288521468639
0.0463025942444801
0.0504187270998954
0.0540146678686142
0.056923683732748
0.0589338615536689
0.0597425103187561
0.0589438527822494
0.0560736842453479
0.05070311576128
0.0425559803843498
0.031617522239685
0.0181997511535882
0.002942849881947
-0.0132438139989972
-0.0292822457849979
-0.0440469942986965
-0.0564932599663734
-0.0657798051834106
-0.0713651999831199
-0.0730591639876365
-0.071024976670742
-0.0657379031181335
-0.0579113513231277
-0.0484020262956619
-0.0381045714020729
-0.0278510488569736
-0.0183269958943128
-0.0100120538845658
-0.0031549129635095
0.0022159363143146
0.0062569077126681
0.0092606218531727
0.0115958424285054
0.0136403366923332
0.0157232452183961
0.018088836222887
0.0208783484995365
0.0241282433271408
0.0277871005237102
0.0317421145737171
0.0358430594205856
0.0399226509034633
0.043812021613121
0.0473400130867958
0.0503050573170185
0.0524273589253425
0.053317192941904
0.0524949133396148
0.0494608432054519
0.0437935814261436
0.0352616421878337
0.0239225849509239
0.0101746069267392
-0.0052577313035726
-0.0213975310325622
-0.0371281504631042
-0.0513223335146904
-0.0629713684320449
-0.0712977051734924
-0.075834572315216
-0.0764638110995292
-0.0734122097492218
-0.067208893597126
-0.058607455343008
-0.0484872087836265
-0.0377522073686122
-0.0272347386926412
-0.0176097396761178
-0.0093358447775244
-0.0026330407708883
0.0025057152379304
0.0062771225348114
0.0090114017948508
0.0111037166789174
0.0129450550302863
0.0148675367236137
0.0171112827956676
0.0198123063892126
0.023008594289422
0.0266566518694162
0.0306478701531887
0.0348227694630622
0.0389900989830493
0.0429490394890308
0.0465007349848747
0.0494348667562007
0.0514878258109092
0.0522975586354732
0.051398504525423
0.0482763685286045
0.0424693077802658
0.033689048141241
0.0219289530068635
0.0075264014303684
-0.0088355746120214
-0.0261855535209178
-0.0433725900948047
-0.0592076852917671
-0.0726043879985809
-0.082693301141262
-0.0889036431908607
-0.091008611023426
-0.0891291126608848
-0.083697997033596
-0.0753960907459259
-0.0650677978992462
-0.0536219775676727
-0.0419323481619358
-0.0307512823492288
-0.0206436663866043
-0.0119482968002557
-0.0047716759145259
0.0009854845702648
0.0055729709565639
0.0093242572620511
0.0125966193154454
0.0157208889722824
0.0189605094492435
0.0224880501627922
0.0263834949582815
0.0306463725864887
0.0352124571800231
0.0399712063372135
0.0447812601923942
0.0494827777147293
0.0539057478308677
0.0578656941652298
0.0611329898238182
0.0633806437253952
0.0641504228115081
0.0628824606537818
0.059013731777668
0.0521134920418262
0.0420150123536586
0.0289061069488525
0.0133526995778083
-0.0037486432120203
-0.0212731454521417
-0.0379996113479137
-0.0527471341192722
-0.064501903951168
-0.0725235491991043
-0.0764153599739074
-0.0761478543281555
-0.0720431059598922
-0.0647283419966697
-0.0550529807806015
-0.0439757108688354
-0.0324472710490226
-0.0213077813386917
-0.011207278817892
-0.0025576204061508
0.00447897054255
0.0099658742547035
0.0141416620463132
0.0173560194671154
0.020003167912364
0.0224628094583749
0.0250563286244869
0.0280190091580152
0.031481385231018
0.0354599058628082
0.0398677252233028
0.0445443429052829
0.0492891445755958
0.053890373557806
0.0581461712718009
0.0618658065795898
0.0648386031389236
0.0667816251516342
0.0673028007149696
0.0659119114279747
0.0620875358581543
0.0553884878754615
0.045583140105009
0.0327582471072673
0.0173688642680645
0.0002136493567377
-0.0176505763083696
-0.0350312106311321
-0.0507372543215751
-0.0637106746435165
-0.0731356516480445
-0.0785176008939743
-0.0797247886657714
-0.07698455452919
-0.070837564766407
-0.0620613954961299
-0.0515727512538433
-0.0403193533420562
-0.0291745513677597
-0.018845897167921
-0.0098170032724738
-0.0023356974124908
0.0035663396120071
0.0080411089584231
0.0113794542849063
0.0139534417539834
0.0161541756242513
0.0183346327394247
0.0207675658166408
0.0236243903636932
0.026972210034728
0.0307827927172184
0.0349498018622398
0.0393134132027626
0.043690413236618
0.047901265323162
0.0517755709588527
0.0551223158836364
0.0576776303350925
0.0590634942054748
0.0587891526520252
0.0563086681067943
0.0511256642639637
0.0429211817681789
0.0316710248589515
0.0177151225507259
0.0017551155760884
-0.015215721912682
-0.0320286005735397
-0.047477152198553
-0.0604530796408653
-0.0700624361634254
-0.0757194012403488
-0.0772122144699096
-0.0747223943471908
-0.0687875524163246
-0.0602169446647167
-0.049976110458374
-0.0390594527125358
-0.0283711776137352
-0.0186316482722759
-0.0103197712451219
-0.0036551863886415
0.0013833632692694
0.0050128516741096
0.0075852340087294
0.0095224771648645
0.0112535012885928
0.0131527716293931
0.0154878040775656
0.0183932241052389
0.0218781158328056
0.0258529186248779
0.0301601439714431
0.0346045009791851
0.0389782525599002
0.0430712811648845
0.0466552302241325
0.0494438782334327
0.0510563068091869
0.0510180331766605
0.0488171316683292
0.0440090745687484
0.0363408289849758
0.0258491337299346
0.0129018072038888
-0.0018189307302236
-0.0173809267580509
-0.0327038466930389
-0.0466814972460269
-0.0583060756325721
-0.0667800158262252
-0.0716016441583633
-0.072612278163433
-0.0699992999434471
-0.0642578974366188
-0.0561201050877571
-0.0464592203497886
-0.0361756943166255
-0.0260832961648702
-0.0168263558298349
-0.0088408216834068
-0.0023456076160073
0.0026469714939594
0.006301088258624
0.0089104184880852
0.0108412709087133
0.0124723771587014
0.0141411451622843
0.0161037482321262
0.0185104571282863
0.021400025114417
0.024715106934309
0.0283294543623924
0.0320773720741272
0.0357820652425289
0.0392727777361869
0.0423773974180221
0.0448883771896362
0.0465145036578178
0.0468486957252025
0.0453844219446182
0.0415900945663452
0.0350251495838165
0.025463830679655
0.0129888020455837
-0.0019666496664285
-0.0186346694827079
-0.0359881855547428
-0.0528616905212402
-0.0680876672267913
-0.0806240364909172
-0.0896648988127708
-0.0947259739041328
-0.0956854820251464
-0.0927733331918716
-0.0865208283066749
-0.0776819884777069
-0.0671355575323104
-0.055781602859497
-0.0444443672895431
-0.0337928682565689
-0.0242915414273738
-0.0161838456988334
-0.009502806700766
-0.0041030361317098
0.0002894295030273
0.0040186634287238
0.0074390121735632
0.0108579425141215
0.0144938351586461
0.0184585303068161
0.022763330489397
0.0273418165743351
0.0320780873298645
0.0368315652012825
0.0414546430110931
0.0458006858825683
0.0497226268053054
0.0530570037662982
0.0555859394371509
0.0569935217499733
0.0568566881120204
0.0546959079802036
0.0500719808042049
0.0426971763372421
0.0325348749756813
0.0198636539280414
0.0052853850647807
-0.0103278029710054
-0.0259336661547422
-0.0404413007199764
-0.0528334826231002
-0.0622770152986049
-0.0682066977024078
-0.070372462272644
-0.0688487961888313
-0.0640106201171875
-0.0564784556627273
-0.0470356307923793
-0.0365307405591011
-0.0257854461669921
-0.0155159644782543
-0.0062693888321518
0.0016170823946595
0.0080250781029462
0.0130318915471434
0.0168641693890094
0.0198393277823925
0.0223058722913265
0.024592937901616
0.0269719809293746
0.0296311117708683
0.0326647348701953
0.0360782593488693
0.0398036241531372
0.0437176264822483
0.0476587079465389
0.0514451190829277
0.0548932589590549
0.0578237064182758
0.0600415468215942
0.0612970516085624
0.0612549073994159
0.0595011375844478
0.0556007958948612
0.049196608364582
0.0401181913912296
0.0284675024449825
0.0146577730774879
-0.0006024064496159
-0.0163755938410758
-0.0316037088632583
-0.0452423579990863
-0.0563899651169776
-0.0643832385540008
-0.0688520967960357
-0.0697383806109428
-0.0672818049788475
-0.0619754306972026
-0.0544971153140068
-0.0456260703504085
-0.0361518263816833
-0.0267881229519844
-0.0181074757128953
-0.010501435957849
-0.0041639194823801
0.0009016022086143
0.0048480713739991
0.0079302284866571
0.010447365231812
0.0126964785158634
0.0149368662387132
0.0173638816922903
0.0200921967625617
0.0231528300791978
0.0265044663101434
0.0300521254539489
0.0336664989590644
0.03720074146986
0.0405010171234607
0.0434014648199081
0.0456981696188449
0.0471166297793388
0.0472966320812702
0.0458113700151443
0.0422330759465694
0.0362405404448509
0.027732590213418
0.0169041194021701
0.0042600976303219
-0.009433445520699
-0.0232412498444318
-0.0361680164933204
-0.0472702607512474
-0.0557611808180809
-0.0610969364643096
-0.063032180070877
-0.0616344213485717
-0.057257805019617
-0.0504898987710475
-0.0420803502202034
-0.0328497886657714
-0.0235879514366388
-0.0149636249989271
-0.0074615147896111
-0.0013502808287739
0.0033161486499011
0.0066665993072092
0.0089614652097225
0.0105367638170719
0.011750710196793
0.0129334442317485
0.0143445683643221
0.0161489825695753
0.0184157118201255
0.0211290549486875
0.0241991225630044
0.0274764895439147
0.0307783298194408
0.0339160300791263
0.0367062538862228
0.0389535352587699
0.0404102616012096
0.0407430343329906
0.0395383425056934
0.0363579168915748
0.0308313257992267
0.0227614529430866
0.0122123137116432
-0.0004458539187908
-0.0145487133413553
-0.0292107667773962
-0.0434397011995315
-0.0562565699219703
-0.0667988881468772
-0.0744028016924858
-0.0786644294857978
-0.0794739499688148
-0.0770124122500419
-0.0717127695679664
-0.064199261367321
-0.0552131347358226
-0.0455262586474418
-0.0358525551855564
-0.0267748013138771
-0.0186974443495273
-0.0118250679224729
-0.0061703058890998
-0.001594359986484
0.0021374709904193
0.0053055733442306
0.0081930328160524
0.011047588661313
0.0140538429841399
0.0173209160566329
0.0208834484219551
0.0247107073664665
0.0287213325500488
0.0328010991215705
0.0368182659149169
0.0406354069709777
0.0441163852810859
0.0471143126487731
0.0494290255010128
0.0507551729679107
0.0506665632128715
0.0486643500626087
0.0442799851298332
0.0371992364525795
0.0273678060621023
0.0150509607046842
0.0008350488496944
-0.0144292702898383
-0.0297276973724365
-0.0440022051334381
-0.056268211454153
-0.065716877579689
-0.071794182062149
-0.0742457062005996
-0.0731259658932685
-0.06878013163805
-0.0617968924343586
-0.0529312454164028
-0.0430085733532905
-0.0328262411057949
-0.0230669975280761
-0.0142370592802762
