bvp
-0.0098429592326283
-0.0204215962439775
-0.0311342738568782
-0.0411897301673889
-0.0498378165066242
-0.0564501732587814
-0.0605885460972785
-0.0620524808764457
-0.0608928464353084
-0.0573880895972251
-0.051994152367115
-0.0452804677188396
-0.0378594957292079
-0.0303148850798606
-0.0231381729245185
-0.0166860073804855
-0.0111623313277959
-0.0066218045540153
-0.0029891850426793
-9.205378592014311e-05
0.0023009057622402
0.004444888792932
0.006580872926861
0.0088941901922225
0.0114912148565053
0.0144031764939427
0.0176021549850702
0.0210151672363281
0.0245351046323776
0.0280282497406005
0.0313272513449192
0.0342075675725936
0.0363691337406635
0.0374454632401466
0.0370477847754955
0.034837931394577
0.0306107643991708
0.0243605859577655
0.0163099132478237
0.0068966280668973
-0.00326957879588
-0.0134716108441352
-0.0229626167565584
-0.0310487262904644
-0.0371670126914978
-0.0409448966383934
-0.0422309935092926
-0.0410984382033348
-0.0378242060542106
-0.0328460745513439
-0.0267037488520145
-0.0199728123843669
-0.0131961246952414
-0.0068201245740056
-0.001155411824584
0.0036264052614569
0.0074744219891726
0.0104363542050123
0.012634596787393
0.0142392385751008
0.0154399145394563
0.0164202898740768
0.0173402223736047
0.0183277353644371
0.0194770246744155
0.0208469629287719
0.0224583372473716
0.024287873879075
0.0262563899159431
0.0282127037644386
0.0299183614552021
0.0310480073094367
0.0312247425317764
0.0300894733518362
0.0273819603025913
0.0230101253837347
0.0170909613370895
0.0099543649703264
0.0021105336491018
-0.0058110207319259
-0.0131393205374479
-0.0192457288503646
-0.0236211828887462
-0.0259333215653896
-0.0260552614927291
-0.024066649377346
-0.0202359929680824
-0.0149871436879038
-0.0088447462767362
-0.0023653833195567
0.0039311032742261
0.0096200443804264
0.0144106969237327
0.0181604828685522
0.0208679065108299
0.0226490255445241
0.0237019099295139
0.024265419691801
0.0245810039341449
0.024864437058568
0.0252893809229135
0.0259791538119316
0.0269972719252109
0.0283345710486173
0.0299041382968425
0.0315446555614471
0.0330190733075141
0.0340118966996669
0.034145999699831
0.0330277010798454
0.0303103029727935
0.0257632434368133
0.0193341579288244
0.0111876334995031
0.0017082365229725
-0.0085342172533273
-0.0188464075326919
-0.0284851901233196
-0.0367417745292186
-0.0430332869291305
-0.0469772815704345
-0.0484291315078735
-0.0474834293127059
-0.0444461852312088
-0.0397828668355941
-0.0340498685836792
-0.0278218314051628
-0.0216265432536602
-0.0158931333571672
-0.0109166018664836
-0.0068445522338151
-0.0036875335499644
-0.0013426626101136
0.000376843381673
0.0017012557946145
0.0028574182651937
0.004035142250359
0.0053724250756204
0.0069498363882303
0.0087928101420402
0.0108815785497426
0.0131594436243176
0.0155306970700621
0.0178456977009773
0.0198798161000013
0.0213248282670974
0.0218087695538997
0.0209445171058177
0.0184011980891227
0.0139853777363896
0.0077030016109347
-0.0002196133136749
-0.0093526393175125
-0.0191067308187484
-0.028795838356018
-0.0377099737524986
-0.0451910197734832
-0.0507057309150695
-0.0539047569036483
-0.0546551533043384
-0.0530434995889663
-0.0493542179465293
-0.0440254919230937
-0.0375874415040016
-0.0305927135050296
-0.0235491059720516
-0.0168712045997381
-0.0108623951673507
-0.0057107815518975
-0.0014839780051261
0.0018671005964279
0.0044855321757495
0.0065735764801502
0.0083575574681162
0.010057009756565
0.0118574649095535
0.0138894617557525
0.0162181016057729
0.0188436731696128
0.0217096097767353
0.0247101299464702
0.0276890452951192
0.0304246842861175
0.0326108112931251
0.0338611267507076
0.0337545834481716
0.0319120958447456
0.0280829854309558
0.022216634824872
0.014498546719551
0.0053448220714926
-0.00463931215927
-0.014729811809957
-0.0241696368902921
-0.0322524681687355
-0.0383967272937297
-0.0422040931880474
-0.0434927828609943
-0.0423078462481498
-0.0389123931527137
-0.0337509289383888
-0.0273833889514207
-0.0204066522419452
-0.0133827244862914
-0.0067828483879566
-0.0009496873244643
0.0039213635027408
0.0077817179262638
0.0107111586257815
0.0128836426883935
0.0145255140960216
0.0158770121634006
0.0171619690954685
0.0185666233301162
0.0202247761189937
0.0222048535943031
0.0245028138160705
0.0270475205034017
0.0297146402299404
0.0323379933834075
0.034709945321083
0.0365712195634841
0.0376049727201461
0.0374566838145256
0.0357862114906311
0.0323371812701225
0.0270032957196235
0.0198743697255849
0.0112529508769512
0.0016402401961386
-0.0083142705261707
-0.0178972575813531
-0.0264226775616407
-0.0333056412637233
-0.0381186082959175
-0.0406316146254539
-0.0408320501446723
-0.0389196574687957
-0.035274900496006
-0.0304062813520431
-0.0248838290572166
-0.0192649252712726
-0.0140247717499732
-0.0095053492113947
-0.0058884350582957
-0.0031911628320813
-0.0012880219146609
4.039425402879715e-05
0.0010546147823333
0.0020208219066262
0.0031897900626063
0.004778797738254
0.0069520846009254
0.009804705157876
0.0133562199771404
0.0175522901117801
0.0222659334540367
0.0272918660193681
0.0323349684476852
0.0370062179863452
0.0408465638756752
0.0433843433856964
0.0442054606974124
0.0430172942578792
0.0397069454193115
0.0343862287700176
0.0274024605751037
0.0193064399063587
0.0107848858460783
0.0025734161026775
-0.0046332143247127
-0.0102624604478478
-0.0139268236234784
-0.0154610583558678
-0.0149313537403941
-0.0126153519377112
-0.008954806253314
-0.0044885105453431
0.0002203246112912
0.0046497168950736
0.0083733377978205
0.0111003266647458
0.0126963071525096
0.0131849106401205
0.0127284694463014
0.0115869548171758
0.0100643280893564
0.0084589049220085
0.0070275533944368
0.0059656105004251
0.0054007209837436
0.0053945817053318
0.0059482501819729
0.0070094484835863
0.0084740575402975
0.0101732220500707
0.011852684430778
0.0131642371416091
0.0136865749955177
0.0129781905561685
0.0106512997299432
0.0064519867300987
0.0003276709467172
-0.0075382925570011
-0.0167317632585763
-0.0266476441174745
-0.0365580730140209
-0.0456991083920002
-0.0533601269125938
-0.0589620918035507
-0.0621188431978225
-0.0626760050654411
-0.060719296336174
-0.0565521270036697
-0.0506490617990493
-0.0435892269015312
-0.0359792970120906
-0.0283825881779193
-0.0212650969624519
-0.0149600487202405
-0.0096499808132648
-0.0053674350492656
-0.0020151855424046
0.00059711758513
0.002711531240493
0.0045853923074901
0.0064545078203082
0.0084963794797658
0.0108093554154038
0.0134145487099885
0.0162732899188995
0.0193083845078945
0.0224175117909908
0.0254717543721199
0.0282991267740726
0.0306636914610862
0.0322584249079227
0.0327257141470909
0.0317063331604003
0.0289065223187208
0.0241704825311899
0.0175418239086866
0.0092915063723921
-0.0001007579267024
-0.0100023532286286
-0.0197016596794128
-0.0284877456724643
-0.0357282795011997
-0.0409348979592323
-0.0438074991106987
-0.0442563481628894
-0.0424014516174793
-0.0385482758283615
-0.033144224435091
-0.0267230197787284
-0.0198422595858573
-0.013018911704421
-0.0066723437048494
-0.0010898015461862
0.0035798614844679
0.0073151686228811
0.0102030243724584
0.0124100912362337
0.0141459628939628
0.0156275182962417
0.0170507282018661
0.0185710936784744
0.0202938020229339
0.0222706943750381
0.0244992580264806
0.02692661434412
0.029461845755577
0.0319906286895275
0.0343802832067012
0.0364622697234153
0.0379980914294719
0.0386639200150966
0.0380809754133224
0.0358846187591552
0.0318075306713581
0.0257530994713306
0.0178436022251844
0.0084314607083797
-0.0019319751299917
-0.0125603321939706
-0.0227130819112062
-0.0316795147955417
-0.038854356855154
-0.0437973514199256
-0.0462711416184902
-0.0462585352361202
-0.0439608544111251
-0.039768673479557
-0.0342044234275817
-0.027851028367877
-0.02127874083817
-0.0149815408512949
-0.0093334261327981
-0.0045648254454135
-0.0007565328851342
0.0021475737448781
0.0043091615661978
0.0059519582428038
0.0073187085799872
0.0086388364434242
0.0101074445992708
0.0118679348379373
0.0139948204159736
0.0164854116737842
0.0192677900195121
0.022221777588129
0.0252021588385105
0.0280491262674331
0.0305763091892004
0.0325460359454155
0.0336582362651824
0.0335744991898536
0.0319755338132381
0.0286312289535999
0.023463662713766
0.0165921635925769
0.0083481529727578
-0.0007520508952438
-0.0100712534040212
-0.0189307201653718
-0.0266858395189046
-0.0327920988202095
-0.0368611104786396
-0.0387006737291812
-0.038329429924488
-0.0359624847769737
-0.0319730974733829
-0.0268394481390714
-0.0210838411003351
-0.0152107393369078
-0.0096521498635411
-0.0047269039787352
-0.0006182780489325
0.0026245119515806
0.0050630806945264
0.0068380925804376
0.00813855137676
0.009173939935863
0.0101501401513814
0.0112480483949184
0.0126031134277582
0.0142910238355398
0.0163255408406257
0.0186650641262531
0.0212230086326599
0.023876255378127
0.0264583975076675
0.02873888425529
0.0304120890796184
0.0311122220009565
0.0304531119763851
0.0280901249498128
0.0237956792116165
0.0175275839865207
0.0094692204147577
3.218883648514748e-05
-0.0101785706356167
-0.0204326137900352
-0.0299621522426605
-0.0380526110529899
-0.0441226474940776
-0.0477862209081649
-0.0488897189497947
-0.0475169904530048
-0.0439614132046699
-0.0386786609888076
-0.0322328209877014
-0.0252320002764463
-0.0182556025683879
-0.0117900008335709
-0.006183885037899
-0.0016246140003204
0.0018628968391567
0.0043923766352236
0.0061733750626444
0.0074641024693846
0.0085304593667387
0.00961210206151
0.0108958445489406
0.0125026609748601
0.0144901871681213
0.0168575141578912
0.0195436142385005
0.0224322862923145
0.025368433445692
0.028166638687253
0.030600182712078
0.0323820300400257
0.0331613309681415
0.0325536057353019
0.030203778296709
0.0258638281375169
0.0194626953452825
0.0111515056341886
0.0013131387531757
-0.0094659170135855
-0.0204546619206666
-0.0308606345206499
-0.0399264395236969
-0.0470196641981601
-0.0516994521021842
-0.0537536032497882
-0.0532050542533397
-0.0502911508083343
-0.0454240553081035
-0.039139550179243
-0.0320327877998352
-0.0246834494173526
-0.0175898224115371
-0.0111288176849484
-0.0055379346013069
-0.0009082024917006
0.0028087813407182
0.0057688551023602
0.0081840120255947
0.0102741885930299
0.0122366119176149
0.0142304236069321
0.0163696203380823
0.018719982355833
0.0212989058345556
0.0240798611193895
0.0270010512322187
0.0299739837646484
0.0328844264149665
0.0355779603123664
0.0378344245254993
0.0393522754311561
0.0397643856704235
0.0386849790811538
0.0357732474803924
0.0308061633259058
0.0237496923655271
0.0148050636053085
0.0044124405831098
-0.0067866370081901
-0.0180164948105812
-0.0284544751048088
-0.0373270809650421
-0.0440014973282814
-0.0480576269328594
-0.0493264645338058
-0.0478909648954868
-0.0440562888979911
-0.0382987037301063
-0.0312034338712692
-0.0233983974903821
-0.0154875637963414
-0.0079905018210411
-0.0012961374595761
0.0043621240183711
0.0089078126475214
0.0124045927077531
0.0150266904383897
0.0170192550867795
0.0186529383063316
0.0201812721788883
0.0218092612922191
0.0236749127507209
0.0258437879383564
0.0283170323818922
0.031042493879795
0.0339217409491539
0.0368221029639244
0.0395921841263771
0.0420630127191543
0.0440287217497825
0.0452213212847709
0.0453059487044811
0.0439152717590332
0.0407162718474864
0.0354875847697258
0.028188619762659
0.0190040357410907
0.0083518698811531
-0.0031451028771698
-0.0147210005670785
-0.0255574062466621
-0.0348886288702487
-0.0420962534844875
-0.0467737503349781
-0.0487572588026523
-0.0481251180171966
-0.0451710522174835
-0.0403589121997356
-0.034264039248228
-0.0275036972016096
-0.0206650346517562
-0.0142429405823349
-0.0085965739563107
-0.003927918151021
-0.0002811928279697
0.0024394134525209
0.0044336048886179
0.0059534627944231
0.0072522908449172
0.008550158701837
0.0100167160853743
0.0117631126195192
0.0138392215594649
0.0162377934902906
0.0189052987843751
0.0217536464333534
0.0246654320508241
0.0274859461933374
0.0300022400915622
0.0319259352982044
0.0329027846455574
0.0325559899210929
0.030548783019185
0.0266492925584316
0.0207913964986801
0.0131212724372744
0.0040107434615492
-0.0059713926166296
-0.01612014696002
-0.0256719831377267
-0.0338919572532177
-0.0401616096496582
-0.0440511666238307
-0.0453655049204826
-0.0441581420600414
-0.0407086908817291
-0.0354710519313812
-0.029005853459239
-0.0219104830175638
-0.0147586837410926
-0.0080488715320825
-0.0021576066501438
0.0026927338913083
0.0064416546374559
0.0091726062819361
0.0110768880695104
0.0124096637591719
0.013445490039885
0.0144385611638426
0.0155908465385437
0.0170319192111492
0.0188155993819236
0.0209317617118358
0.0233235619962215
0.0258978400379419
0.0285227764397859
0.0310159958899021
0.0331281200051307
0.0345328412950038
0.0348406210541725
0.0336415655910968
0.030571961775422
0.0253944545984268
0.0180711410939693
0.0088076014071702
-0.001945586875081
-0.0135369896888732
-0.0251902490854263
-0.0360917747020721
-0.045477669686079
-0.0527167133986949
-0.0573846623301506
-0.0593099743127822
-0.0585755780339241
-0.0554849356412887
-0.0505091696977615
-0.0442233756184577
-0.0372373349964618
-0.0301297418773174
-0.0233924277126789
-0.0173884723335504
-0.0123298410326242
-0.0082774423062801
-0.0051608267240226
-0.0028091785497963
-0.0009857369586825
0.0005725044757127
0.0021098656579852
0.0038148099556565
0.0058012306690216
0.0081077795475721
0.0107114501297473
0.0135470749810338
0.0165220946073532
0.0195248611271381
0.0224260501563549
0.0250649377703666
0.0272233337163925
0.0286091994494199
0.0288694445043802
0.0276383757591247
0.02461395598948
0.0196355860680341
0.0127386087551712
0.0041775973513722
-0.0055835740640759
-0.0159141756594181
-0.026084654033184
-0.0353493504226207
-0.0430317446589469
-0.0485999211668968
-0.0517222695052623
-0.0522969998419284
-0.0504500158131122
-0.0465024933218956
-0.0409197025001049
-0.0342496037483215
-0.0270566083490848
-0.0198647174984216
-0.0131181944161653
-0.0071508768014609
-0.0021614399738609
0.001794978394173
0.0047947345301508
0.0070174429565668
0.0087044201791286
0.0101119494065642
0.0114743337035179
0.0129797048866748
0.0147527046501636
0.016847500577569
0.0192530397325754
0.0219058748334646
0.0247094817459583
0.0275499038398265
0.0302914101630449
0.0327546410262584
0.0346942134201526
0.0357934720814228
0.0356888324022293
0.0340237878262996
0.0305202379822731
0.0250495672225952
0.0176865737885236
0.0087320059537887
-0.0013050520792603
-0.0117609482258558
-0.0218908824026584
-0.0309475995600223
-0.0382603257894516
-0.0433111414313316
-0.0457998067140579
-0.0456793308258056
-0.0431494861841201
-0.0386134795844554
-0.0326127894222736
-0.0257532782852649
-0.0186319276690483
-0.0117724109441041
-0.0055773481726646
-0.0003009112551808
0.0039578340947628
0.0072413943707942
0.0097048934549093
0.0115782283246517
0.0131234843283891
0.0145919742062687
0.016188371926546
0.0180487036705017
0.0202340707182884
0.0227377489209175
0.0254995077848434
0.0284212157130241
0.0313807651400566
0.0342376343905925
0.0368213877081871
0.0389089472591877
0.0402131974697113
0.0404021255671978
0.0391500405967235
0.0362067595124244
0.031464509665966
0.0250031966716051
0.0171032883226871
0.0082286205142736
-0.001016360707581
-0.0099518317729234
-0.0179005675017833
-0.0242665037512779
-0.0286024417728185
-0.0306559540331363
-0.0303898826241493
-0.0279787555336952
-0.0237812492996454
-0.0182909220457077
-0.0120712388306856
-0.0056819040328264
0.0003915168344974
0.0057851672172546
0.0102734770625829
0.013765905983746
0.0162947177886962
0.0179941356182098
0.0190681852400302
0.0197517555207014
0.0202745478600263
0.0208325292915105
0.0215687192976474
0.0225647408515214
0.0238422118127346
0.025371816009283
0.0270854998379945
0.0288864448666572
0.0306499097496271
0.0322048589587211
0.0333034396171569
0.0336097404360771
0.0327294431626796
0.0302743874490261
0.0259445589035749
0.0196076445281505
0.0113543597981333
0.0015128012746572
-0.009379188530147
-0.0206321515142917
-0.0314818546175956
-0.0411760322749614
-0.0490603372454643
-0.0546478703618049
-0.0576612092554569
-0.0580530390143394
-0.056009367108345
-0.0519210621714592
-0.0463214293122291
-0.0398108549416065
-0.0329833179712295
-0.0263615548610687
-0.0203497670590877
-0.015206504613161
-0.0110374772921204
-0.0078085749410092
-0.0053734770044684
-0.0035098006483167
-0.0019610009621828
-0.0004762928001582
0.0011579804122447
0.0030924482271075
0.0053964420221745
0.0080584259703755
0.0110051911324262
0.0141262300312519
0.0172928515821695
0.0203693266957998
0.0232109688222408
0.0256438925862312
0.0274373795837163
0.0282929763197898
0.0278672650456428
0.0258280709385871
0.021928034722805
0.0160763077437877
0.008392627350986
-0.0007771123200654
-0.0108941989019513
-0.0212906710803508
-0.0312407277524471
-0.0400353297591209
-0.0470590330660343
-0.0518582947552204
-0.0541862808167934
-0.0540163591504097
-0.051527377218008
-0.0470713376998901
-0.0411305241286754
-0.0342626869678497
-0.027035629376769
-0.0199601780623197
-0.0134344929829239
-0.0077141690999269
-0.0029133493080735
0.0009757066145539
0.0040584253147244
0.0065106377005577
0.0085479570552706
0.0103950006887316
0.012254818342626
0.0142825525254011
0.0165721699595451
0.0191554892808198
0.0220062900334596
0.0250495113432407
0.0281776040792465
0.0312685593962669
0.0341938994824886
0.036802552640438
0.0388839356601238
0.0401437804102897
0.04022116959095
0.0387429930269718
0.0353982225060462
0.0300155077129602
0.0226257052272558
0.0134930768981575
0.0031072071287781
-0.0078642554581165
-0.0186527296900749
-0.0284800771623849
-0.0366484336555004
-0.0426133461296558
-0.04603036865592
-0.0467802248895168
-0.0449799261987209
-0.0409688800573349
-0.0352591127157211
-0.028460256755352
-0.0211983732879161
-0.0140425376594066
-0.0074484115466475
-0.0017241174355149
0.002980425953865
0.0066633382812142
0.0094448067247867
0.0115318167954683
0.0131784146651625
0.0146458111703395
0.016167202964425
0.0179176926612854
0.0199941378086805
0.0224148817360401
0.0251345559954643
0.0280600413680076
0.0310653690248727
0.03400893881917
0.0367436558008194
0.0391062945127487
0.0408905446529388
0.0418250262737274
0.0415801778435707
0.0398142077028751
0.0362453162670135
0.0307289715856313
0.0233197212219238
0.0142950052395462
0.0041332826949656
-0.006536663044244
-0.016999676823616
-0.0265296995639801
-0.0344700142741203
-0.0403040051460266
-0.043706752359867
-0.0445720478892326
-0.0430137850344181
-0.0393448881804943
-0.0340342819690704
-0.0276447888463735
-0.0207633804529905
-0.0139334984123706
-0.0075959106907248
-0.0020511420443654
0.0025478950701653
0.0061830747872591
0.0089489640668034
0.0110224075615406
0.0126267597079277
0.0139963328838348
0.0153443273156881
0.0168380662798881
0.0185861140489578
0.0206357836723327
0.0229753386229276
0.0255413725972175
0.0282325148582458
0.0309226755052804
0.0334613509476184
0.0356515273451805
0.0372167266905307
0.0377911329269409
0.0369582511484622
0.0343294590711593
0.029631795361638
0.0227820258587598
0.0139365289360284
0.0035040257498621
-0.0078891636803746
-0.0194720886647701
-0.0304208509624004
-0.0399555824697017
-0.0474285520613193
-0.0523870848119258
-0.0546072050929069
-0.0541071817278862
-0.0511423647403717
-0.0461694933474063
-0.0397795662283897
-0.032616414129734
-0.0252976529300212
-0.0183482114225626
-0.0121546611189842
-0.0069437879137694
-0.002781884279102
0.0004079531645402
0.0028114398010075
0.0046766535378992
0.0062661790288984
0.0078203529119491
0.0095350295305252
0.0115448199212551
0.0139087196439504
0.0166078694164752
0.0195598378777503
0.0226419940590858
0.0257135573774576
0.0286286119371652
0.0312331523746252
0.033342208713293
0.0347094871103763
0.0350165031850338
0.0338990315794944
0.0310072898864746
0.0260820128023624
0.0190282128751277
0.0099728005006909
-0.000713606365025
-0.0124448426067829
-0.0244849137961864
-0.0360313579440116
-0.0463040433824062
-0.054627202451229
-0.0604964978992939
-0.0636262968182563
-0.0639721304178237
-0.0617257878184318
-0.0572817027568817
-0.0511792935431003
-0.0440315268933773
-0.0364498160779476
-0.0289747379720211
-0.0220230259001255
-0.0158627294003963
-0.0106172673404216
-0.0062825377099215
-0.0027471962384879
0.0001804116182029
0.0027373027987778
0.005167344585061
0.0076855379156768
0.0104513922706246
0.013555858284235
0.0170218292623758
0.0208122227340936
0.0248405672609806
0.0289845317602157
0.0331019908189773
0.037038005888462
0.0406044870615005
0.0435397960245609
0.0454884767532348
0.0460280664265155
0.0447355397045612
0.0412753485143184
0.0354885198175907
0.027456821873784
0.0175237953662872
0.0062707322649657
-0.0055454075336456
-0.0170796923339366
-0.0274954214692115
-0.0360542088747024
-0.042190808802843
-0.045564878731966
-0.0460867024958133
-0.0439196564257144
-0.0394566841423511
-0.0332649685442447
-0.0260047931224107
-0.0183424018323421
-0.0108755249530076
-0.0040771793574094
0.0017409794963896
0.0064405165612697
0.0100426115095615
0.0126959607005119
0.0146339423954486
0.0161282829940319
0.0174481067806482
0.0188306644558906
0.0204587765038013
0.0224398411810398
0.0247950293123722
0.0274667404592037
0.0303412452340126
0.0332762449979782
0.0361211337149143
0.0387222170829772
0.0409086495637893
0.0424623638391494
0.0430934131145477
0.0424483269453048
0.0401594713330268
0.0359227992594242
0.0295839011669158
0.0212073568254709
0.0111037157475948
-0.0001938361674547
-0.0119866654276847
-0.0234852209687232
-0.0338948741555213
-0.0425034798681736
-0.0487579815089702
-0.0523208007216453
-0.053099550306797
-0.0512473657727241
-0.0471352115273475
-0.0412991046905517
-0.0343690924346447
-0.0269914455711841
-0.0197533443570137
-0.0131197739392519
-0.0073979771696031
-0.0027339099906384
0.0008733883150853
0.0035489071160554
0.0055070081725716
0.0070062633603811
0.008305775001645
0.0096340328454971
0.011170158162713
0.0130321346223354
0.0152708031237125
0.0178701318800449
0.0207540895789861
0.0237993039190769
0.0268453862518072
0.0296893529593944
0.032060757279396
0.0336005948483943
0.033878918737173
0.0324606001377105
0.0289981253445148
0.0233218036592006
0.0155035806819796
0.0058804284781217
-0.0049665477126836
-0.0162741467356681
-0.0271898955106735
-0.0368772074580192
-0.0446125715970993
-0.0498614870011806
-0.052326813340187
-0.0519665703177452
-0.0489853508770465
-0.0438046231865882
-0.03701077029109
-0.0292817186564207
-0.021300671622157
-0.0136749036610126
-0.0068769031204283
-0.0012090926757082
0.0032113441266119
0.0064423019066452
0.0086803156882524
0.0102084074169397
0.0113415392115712
0.0123801762238144
0.0135782333090901
0.0151238208636641
0.0171253308653831
0.019603019580245
0.0224930718541145
0.0256644189357757
0.0289430543780326
0.0321335867047309
0.0350218564271926
0.0373530536890029
0.0388043820858001
0.038984540849924
0.0374783091247081
0.0339280739426612
0.0281263478100299
0.0200883708894252
0.0100867673754692
-0.0013535851612687
-0.0135051924735307
-0.0255298260599374
-0.0365848615765571
-0.045916449278593
-0.0529315061867237
-0.0572482571005821
-0.0587239190936088
-0.0574563331902027
-0.0537601187825202
-0.0481232926249504
-0.0411478094756603
-0.0334782898426055
-0.025728702545166
-0.0184179246425628
-0.011923911049962
-0.0064625698141753
-0.002091989852488
0.0012641218490898
0.0037843403406441
0.0057135662063956
0.0073248040862381
0.008882095105946
0.0106068979948759
0.0126526448875665
0.0150942942127585
0.0179333221167325
0.0211119670420885
0.024531178176403
0.0280657783150672
0.0315665528178215
0.0348467789590358
0.0376609712839126
0.039684809744358
0.0405124500393867
0.0396939255297184
0.0368166007101535
0.0316058732569217
0.0240127388387918
0.0142641998827457
0.0028616469353437
-0.0094716548919677
-0.0218750033527612
-0.0334465578198432
-0.0433434881269931
-0.0508786663413047
-0.0555953197181224
-0.0573027431964874
-0.0560748465359211
-0.0522267557680606
-0.0462749674916267
-0.0388743132352829
-0.0307347793132066
-0.0225340593606233
-0.0148414522409439
-0.0080646658316254
-0.0024257963523268
0.0020329733379185
0.0054197828285396
0.0079507287591695
0.0099031683057546
0.0115690734237432
0.0132142882794141
0.0150513034313917
0.0172266475856304
0.0198134779930114
0.0228062830865383
0.0261260941624641
0.0296383500099182
0.0331761054694652
0.0365569442510604
0.0395810194313526
0.0420094989240169
0.0435416549444198
0.0438158996403217
0.0424504242837429
0.0391188487410545
0.0336368270218372
0.0260312035679817
0.0165739804506301
0.0057756905443966
-0.0056641483679413
-0.0169435031712055
-0.0272569321095943
-0.0358838513493537
-0.0422592014074325
-0.0460259579122066
-0.0470654666423797
-0.0455006882548332
-0.0416720509529113
-0.0360885746777057
-0.0293593872338533
-0.0221174266189336
-0.0149494167417287
-0.0083388369530439
-0.0026244595646858
0.0020208519417792
0.0055854022502899
0.0081892665475606
0.0100427325814962
0.0114034060388803
0.012536215595901
0.0136796999722719
0.0150214601308107
0.0166856180876493
0.0187293346971273
0.0211426764726638
0.023855060338974
0.0267488937824964
0.0296674482524395
0.0324073918163776
0.0347034335136413
0.0362228229641914
0.0365806557238101
0.035378985106945
0.032276090234518
0.027075907215476
0.0198022034019231
0.010732190683484
0.0003856662660837
-0.0105273341760039
-0.021191120147705
-0.0307851806282997
-0.0385830737650394
-0.0440345928072929
-0.0468219444155693
-0.046884074807167
-0.0444065481424331
-0.0397813618183136
-0.0335512794554233
-0.0263488106429576
-0.0188263487070798
-0.0115811116993427
-0.0050913630984723
0.0003249313740525
0.0045267045497894
0.0075425198301672
0.009541711769998
0.0107886046171188
0.011590008623898
0.0122472746297717
0.0130188530310988
0.0140955811366438
0.0155893992632627
0.0175337679684162
0.019890196621418
0.0225571859627962
0.025383923202753
0.0281847827136516
0.0307399816811084
0.0327764339745044
0.0339485295116901
0.0338495448231697
0.0320646651089191
0.0282505936920642
0.022217396646738
0.0139926020056009
0.0038544163107872
-0.0076741138473153
-0.0198716036975383
-0.031897347420454
-0.0428897999227047
-0.052070003002882
-0.0588304065167903
-0.0627935454249382
-0.0638369396328926
-0.0620867535471916
-0.0578870624303817
-0.0517514944076538
-0.0442985408008098
-0.0361766554415226
-0.0279935300350189
-0.0202597323805093
-0.0133489370346069
-0.0074758064001798
-0.0026903201360255
0.0011100191622972
0.0041421419009566
0.0066790636628866
0.0089938826858997
0.0113203208893537
0.0138284591957926
0.0166134126484394
0.0196976065635681
0.0230441261082887
0.0265738554298877
0.0301783643662929
0.0337277837097644
0.037075325846672
0.0400488451123237
0.0424246229231357
0.0439074337482452
0.0441422648727893
0.0427548959851264
0.0394125469028949
0.0338998436927795
0.0261921938508749
0.0165051147341728
0.0053048618137836
-0.0067304177209734
-0.0187921300530433
-0.030039332807064
-0.0396928936243057
-0.0471183955669403
-0.0518903993070125
-0.0538283586502075
-0.0530005469918251
-0.049697957932949
-0.0443857051432132
-0.0376455225050449
-0.0301146563142538
-0.0224163718521595
-0.0150899197906255
-0.0085383737459778
-0.0030021029524505
0.0014439751394093
0.0048723462969064
0.0074707996100187
0.0095017431303858
0.0112537331879138
0.0129925915971398
0.0149242365732789
0.0171761009842157
0.0197992250323295
0.0227844957262277
0.0260750614106655
0.029567115008831
0.0331137515604496
0.0365392416715621
0.0396501831710338
0.0422315746545791
0.0440306924283504
0.044745746999979
0.0440402179956436
0.041589543223381
0.0371469743549823
0.0306106377393007
0.0220771096646785
0.0118659641593694
0.0005081528797745
-0.0112989963963627
-0.0227679572999477
-0.0331176668405532
-0.041666816920042
-0.0479045808315277
-0.0515340790152549
-0.0524910576641559
-0.0509376376867294
-0.0472309067845344
-0.041872065514326
-0.0354439504444599
-0.0285437852144241
-0.0217188335955142
-0.015412607230246
-0.009928741492331
-0.0054152873344719
-0.0018678938504308
0.0008458778029307
0.0029420631472021
0.0046697966754436
0.0062684491276741
0.0079359682276844
0.0098106162622571
0.011968532577157
0.0144314765930175
0.0171728767454624
0.020121032372117
0.0231687948107719
0.0261902902275323
0.0290518756955862
0.0316042751073837
0.0336599051952362
0.0349738970398902
0.0352418720722198
0.0341243408620357
0.0313075333833694
0.0265877749770879
0.0199462715536355
0.0115900821983814
0.0019527710974216
-0.0083444491028785
-0.0185644831508398
-0.0279439706355333
-0.0357832945883274
-0.0415249243378639
-0.0448126718401908
-0.0455254688858985
-0.0437795259058475
-0.039898432791233
-0.034363716840744
-0.0277582518756389
-0.0207011215388774
-0.0137762604281306
-0.0074689299799501
-0.0021200757473707
0.002096909796819
0.0051745129749178
0.00724758207798
0.0085540674626827
0.0093870209529995
0.0100455014035105
0.0107906647026538
0.0118137970566749
0.0132251419126987
0.0150636760517954
0.0173096638172864
0.0198888629674911
0.0226802434772253
0.0255316048860549
0.0282690804451704
0.0306900795549154
0.0325455851852893
0.03353101760149
0.0333013907074928
0.0315136462450027
0.0278917476534843
0.0223010145127773
0.0148076266050338
0.0057031931355595
-0.0045083379372954
-0.0151542145758867
-0.0254666805267334
-0.0346818678081035
-0.0421370677649974
-0.0473428815603256
-0.0500271059572696
-0.0501523241400718
-0.047906719148159
-0.0436697006225585
-0.0379574224352836
-0.031356293708086
-0.0244535710662603
-0.0177734158933162
-0.0117269214242696
-0.0065824254415929
-0.0024551542010158
0.0006868144264444
0.0029957049991935
0.0046973237767815
0.0060414145700633
0.0072619365528225
0.0085497489199042
0.0100396256893873
0.0118084270507097
0.013877579011023
0.0162194743752479
0.018768735229969
0.0214355867356061
0.0241195540875196
0.0267173051834106
0.0291127301752567
0.0311494767665863
0.0326038748025894
0.0331761389970779
0.0325102806091308
0.0302480943500995
0.0261085405945777
0.0199689920991659
0.011924066580832
0.0023072324693202
-0.008330219425261
-0.0192785114049911
-0.0297541972249746
-0.0389957949519157
-0.0463535487651824
-0.0513582415878772
-0.0537629947066307
-0.0535538233816623
-0.0509296767413616
-0.0462687313556671
-0.0400910004973411
-0.0330061502754688
-0.0256400052458047
-0.0185557231307029
-0.0121930548921227
-0.0068345330655574
-0.0025961520150303
0.0005592363886535
0.0027913521043956
0.004343731328845
0.0055015310645103
0.0065479576587677
0.0077262567356228
0.0092168683186173
0.0111304121091961
0.0135063435882329
0.01631267555058
0.0194548293948173
0.022796630859375
0.026185855269432
0.0294753424823284
0.0325291454792022
0.0352060794830322
0.0373271107673645
0.0386472418904304
0.0388553105294704
0.0376123785972595
0.0346197113394737
0.029696200042963
0.0228447876870632
0.0142905032262206
0.0044769681990146
-0.0059800990857183
-0.0163672622293233
-0.0259546674787998
-0.0340737029910087
-0.040187545120716
-0.0439442582428455
-0.0452033765614032
-0.0440396405756473
-0.040727250277996
-0.0357017703354358
-0.02950269728899
-0.022707026451826
-0.0158632192760705
-0.0094328997656703
-0.0037491023540496
0.0009990772232413
0.0047569088637828
0.0075850458815693
0.0096377972513437
0.0111329462379217
0.0123136695474386
0.013412332162261
0.014624809846282
0.0160950012505054
0.0179063789546489
0.0200805030763149
0.0225815773010253
0.0253257974982261
0.028196346014738
0.031061690300703
0.0337835475802421
0.0361984372138977
0.038082480430603
0.0391329899430274
0.0389879792928695
0.0372814089059829
0.0337223373353481
0.0281777288764715
0.0207314696162939
0.0117005538195371
0.0016096848994493
-0.0088655008003115
-0.0189767982810735
-0.027990449219942
-0.0352688655257225
-0.040336225181818
-0.0429212599992752
-0.0429785028100013
-0.0406894981861114
-0.0364361219108104
-0.03074437007308
-0.0242122672498226
-0.0174364708364009
-0.0109462812542915
-0.005151979625225
-0.000314304139465
0.0034609949216246
0.0062083192169666
0.0080774575471878
0.0093006864190101
0.0101490356028079
0.0108895655721426
0.0117563568055629
0.0129275368526577
0.0145026175305247
0.0164922848343849
0.0188279710710048
0.0213850140571594
0.024008484557271
0.0265266634523868
0.0287416856735944
0.0304068960249423
0.0312162730842828
0.030824564397335
0.0288983918726444
0.025183955207467
0.0195717886090278
0.0121468622237443
0.0032154154032468
-0.0067088734358549
-0.0169628411531448
-0.0268152169883251
-0.0355517826974391
-0.0425528474152088
-0.0473569370806217
-0.0497063286602497
-0.0495666936039924
-0.0471202358603477
-0.0427364557981491
-0.0369193740189075
-0.0302385054528713
-0.0232611130923032
-0.0164937656372785
-0.0103324577212333
-0.0050270836800336
-0.0006735096103511
0.0027643404901027
0.0054184896871447
0.0074804765172302
0.0091663943603634
0.0106867710128426
0.0122238229960203
0.0139136752113699
0.0158355180174112
0.0180118363350629
0.0204176232218742
0.0229914262890815
0.0256440863013267
0.0282658115029335
0.0307254418730735
0.0328532382845878
0.0344129279255867
0.0350844264030456
0.0344812683761119
0.0322098508477211
0.0279556736350059
0.0215721614658832
0.0131463101133704
0.0030218428000807
-0.0082260761409997
-0.0198575146496295
-0.0310591217130422
-0.0410405956208705
-0.0491218194365501
-0.0548015050590038
-0.0577994845807552
-0.0580702647566795
-0.0557942241430282
-0.0513511151075363
-0.0452730432152748
-0.0381775051355361
-0.03069175966084
-0.0233828201889991
-0.0167021285742521
-0.0109498864039778
-0.0062624113634228
-0.0026223587337881
0.0001133165787905
0.0021745525300502
0.0038349067326635
0.0053682001307606
0.0070111099630594
0.0089392382651567
0.0112534519284963
0.0139729660004377
0.0170433521270751
0.0203586295247077
0.0237859170883893
0.0271843932569026
0.0304103996604681
0.0333034694194793
0.0356589518487453
0.037206046283245
0.0376122780144214
0.0365216210484504
0.0336199961602687
0.0287136286497116
0.0217999275773763
0.0131086483597755
0.0030945879407227
-0.0076166447252035
-0.018305966630578
-0.0282392650842666
-0.0367388501763343
-0.0432485118508338
-0.0473892800509929
-0.0489928945899009
-0.048106912523508
-0.0449794791638851
-0.0400270074605941
-0.033781137317419
-0.0268219038844108
-0.0197102278470993
-0.0129283312708139
-0.0068349298089742
-0.0016436241567134
0.0025722477585077
0.0058586904779076
0.0083551201969385
0.010263399221003
0.0118123972788453
0.0132241500541567
0.0146860480308532
0.0163328982889652
0.0182408615946769
0.0204279869794845
0.0228588208556175
0.0254561230540275
0.0281172804534435
0.0307323057204484
0.0331955663859844
0.0353919379413127
0.0371557138860225
0.0382341668009758
0.0382900089025497
0.0369504876434803
0.03388587012887
0.0288922525942325
0.021956818178296
0.0132901361212134
0.0033211198169738
-0.0073410626500844
-0.0179728008806705
-0.0278193466365337
-0.0361800193786621
-0.0424828939139843
-0.0463418401777744
-0.0475938022136688
-0.0463147759437561
-0.042807150632143
-0.0375544428825378
-0.0311504080891609
-0.0242182053625583
-0.0173380728811025
-0.0109914820641279
-0.0055213887244462
-0.0011125700548291
0.0022055045701563
0.0045381402596831
0.0060925208963453
0.0071366787888109
0.0079588359221816
0.0088331969454884
0.0099877268075943
0.0115743791684508
0.0136530827730894
0.0161949694156646
0.0191012099385261
0.0222300961613655
0.0254213623702526
0.0285046771168708
0.0312866084277629
0.0335277616977691
0.0349315032362937
0.0351600162684917
0.03388137742877
0.0308384671807289
0.0259211882948875
0.0192206408828496
0.0110462959855794
0.0018983469344675
-0.0075930953025817
-0.0167403984814882
-0.0248694196343421
-0.0313894785940647
-0.0358589589595794
-0.0380310453474521
-0.037871029227972
-0.0355511382222175
-0.0314257591962814
-0.0259845349937677
-0.019788421690464
-0.0133995059877634
-0.0073135797865688
-0.0019049784168601
0.0026012274902313
0.0061224051751196
0.0086934622377157
0.010443071834743
0.0115692988038063
0.0123081821948289
0.0128989797085523
0.0135526694357395
0.0144287599250674
0.0156228290870785
0.0171643923968076
0.0190228465944528
0.0211188737303018
0.0233393609523773
0.0255521927028894
0.0276126265525817
0.0293489526957273
0.0305284727364778
0.0308354552835226
0.0298946667462587
0.0273386612534523
0.0228928159922361
0.0164527371525764
0.0081341490149497
-0.0017164712771773
-0.0125491395592689
-0.0236667953431606
-0.0343019179999828
-0.0437026210129261
-0.0512164570391178
-0.0563600733876228
-0.0588643699884414
-0.0586948879063129
-0.056050632148981
-0.0513359457254409
-0.0451027974486351
-0.0379736088216304
-0.0305618774145841
-0.0234051998704671
-0.01691659912467
-0.0113560575991868
-0.0068247797898948
-0.0032816459424793
-0.0005766497924923
0.0015091067180037
0.0032275216653943
0.0048334999009966
0.0065577360801398
0.008579165674746
0.0109976306557655
0.0138215739279985
0.0169837828725576
0.0203707292675972
0.0238446462899446
0.027258550748229
0.0304690897464752
0.0333389565348625
0.0357182957231998
0.0374104939401149
0.0381473489105701
0.0376003347337245
0.0354334861040115
0.0313819982111454
0.025333235040307
0.0173836983740329
0.0078531103208661
-0.0027416166849434
-0.0137390997260808
-0.0244035385549068
-0.0340032577514648
-0.0418875105679035
-0.0475535206496715
-0.0506970472633838
-0.051238901913166
-0.0493231453001499
-0.0452893562614917
-0.0396239161491394
-0.0328980237245559
-0.0257002599537372
-0.0185671597719192
-0.0119259255006909
-0.0060692997649312
-0.00115676689893
0.0027782367542386
0.0058162761852145
0.008127886801958
0.0099408105015754
0.0115034459158778
0.0130484299734234
0.0147634632885456
