bvp
0.04221673309803
0.0390925519168376
0.0339472964406013
0.026755167171359
0.0177198499441146
0.0072720265015959
-0.0039695957675576
-0.0152658782899379
-0.0258430298417806
-0.0349800512194633
-0.0420840084552764
-0.0467453524470329
-0.0487702712416648
-0.0481966137886047
-0.0452911332249641
-0.0405126027762889
-0.0344435572624206
-0.0277095381170511
-0.0209007821977138
-0.0145093658939003
-0.008889827877283
-0.0042397254146635
-0.0005982145667076
0.0021331999450922
0.0041528465226292
0.0057137506082654
0.0070774797350168
0.0084773395210504
0.0100979153066873
0.0120639186352491
0.0144301373511552
0.017177015542984
0.0202203411608934
0.0234338380396366
0.0266725569963455
0.0297803375869989
0.0325739681720733
0.0348165482282638
0.036204382777214
0.0363851264119148
0.0350088104605674
0.0318002067506313
0.0266331285238266
0.0195859353989362
0.010962264612317
0.0012672059237957
-0.0088559910655021
-0.0187065452337265
-0.0276031121611595
-0.0349501967430114
-0.0402942784130573
-0.0433668196201324
-0.0441071018576622
-0.0426598936319351
-0.0393502637743949
-0.0346400961279869
-0.0290681738406419
-0.0231802389025688
-0.017464118078351
-0.0123024629428982
-0.0079420022666454
-0.0044810720719397
-0.0018861731514334
-2.859998494386673e-05
0.0012811832129955
0.0022656032815575
0.0031512873247265
0.0041389018297195
0.0053776809945702
0.0069519411772489
0.0088823270052671
0.0111364480108022
0.0136403329670429
0.0162901431322097
0.0189679376780986
0.0215568095445632
0.0239435229450464
0.0259968005120754
0.0275249406695365
0.0282440148293972
0.0277902223169803
0.0257805492728948
0.0219000000506639
0.0159882605075836
0.0081027466803789
-0.0014577582478523
-0.0121732354164123
-0.0233600661158561
-0.0342531651258468
-0.044095542281866
-0.052220195531845
-0.0581142157316207
-0.0614617615938186
-0.0621710382401943
-0.0603834390640258
-0.0564504526555538
-0.0508764311671257
-0.0442459098994731
-0.0371526330709457
-0.0301361121237278
-0.0236296635121107
-0.0179256331175565
-0.0131611656397581
-0.0093259466812014
-0.0062901647761464
-0.0038459079805761
-0.0017523487331345
0.0002262820489704
0.0022964959498494
0.0046168183907866
0.0072770435363054
0.0102887442335486
0.013598047196865
0.0171107593923807
0.0207143183797597
0.0242904108017683
0.0277232993394136
0.0309052765369415
0.0337288528680801
0.0360604301095008
0.0377082154154777
0.0384087488055229
0.0378490984439849
0.0357236750423908
0.03181167319417
0.0260487329214811
0.0185663122683763
0.0096946181729435
-6.200768984854221e-05
-0.0100736888125538
-0.0196535699069499
-0.028134386986494
-0.0349404104053974
-0.039647027850151
-0.0420214608311653
-0.0420399606227874
-0.0398805066943168
-0.0358919687569141
-0.0305448379367589
-0.0243696644902229
-0.0178902484476566
-0.0115679884329438
-0.0057685254141688
-0.0007425835356116
0.0033861612901091
0.0066210418008267
0.0090748472139239
0.010936944745481
0.0124347312375903
0.0137995053082704
0.0152383409440517
0.0169095359742641
0.0189044624567031
0.0212436057627201
0.0238890834152698
0.0267642997205257
0.0297721847891807
0.0328081101179122
0.0357629545032978
0.0385188087821006
0.0409419722855091
0.0428677275776863
0.0440775007009506
0.0442906469106674
0.0431904233992099
0.0404795669019222
0.0359496176242828
0.0295467879623174
0.0214161816984415
0.0119120264425873
0.0015704878605902
-0.0089474208652973
-0.018928088247776
-0.0276852808892726
-0.0346422083675861
-0.0393985845148563
-0.0417673364281654
-0.0417805165052413
-0.0396711826324462
-0.0358356572687625
-0.0307791419327259
-0.0250512063503265
-0.0191818159073591
-0.013626642525196
-0.008726691827178
-0.0046866713091731
-0.0015728557482361
0.0006747208535671
0.002219894900918
0.0032929433509707
0.0041394173167645
0.0049745785072445
0.0059569980949163
0.0071786819025874
0.008668721653521
0.010406982153654
0.0123384539037942
0.0143857356160879
0.0164647214114666
0.0184948090463876
0.0203862898051738
0.0220085941255092
0.0231630634516477
0.0235818158835172
0.0229605976492166
0.0210142638534307
0.0175376795232296
0.0124650923535227
0.005918123293668
-0.0017780163325369
-0.0101201981306076
-0.018483854830265
-0.0261955447494983
-0.0326132476329803
-0.0372032597661018
-0.0396024361252784
-0.0396579802036285
-0.037437230348587
-0.0332088805735111
-0.0274015273898839
-0.0205435883253812
-0.0131993852555751
-0.0059144683182239
0.0008345795795321
0.0066871638409793
0.0114306379109621
0.0150078227743506
0.0175004415214061
0.0190961826592683
0.0200476199388504
0.0206279084086418
0.0210896171629428
0.021635478362441
0.0224036406725645
0.0234640128910541
0.0248264893889427
0.0264567080885171
0.028285015374422
0.0302077513188123
0.0320908725261688
0.0337716042995452
0.0350472368299961
0.0356563404202461
0.0352734588086605
0.0335346572101116
0.0300936624407768
0.0246952399611473
0.0172484070062637
0.0078808004036545
-0.0030439142137765
-0.0149533189833164
-0.0271282810717821
-0.0387825742363929
-0.0491516552865505
-0.0575839094817638
-0.0636142343282699
-0.0670034885406494
-0.0677458345890045
-0.0660491064190864
-0.0622939579188823
-0.0569804683327674
-0.0506674833595752
-0.0439103208482265
-0.0372044071555137
-0.0309395138174295
-0.025369755923748
-0.0206035859882831
-0.0166128724813461
-0.0132601223886013
-0.0103421229869127
-0.0076385745778679
-0.0049504367634654
-0.0021215062588453
0.0009536920115351
0.0043282127007842
0.0080038346350193
0.0119372550398111
0.0160512141883373
0.0202467069029808
0.0244118086993694
0.028420515358448
0.0321143344044685
0.0352719649672508
0.0375917814671993
0.0387098640203475
0.038251344114542
0.0358994528651237
0.0314697995781898
0.0249744821339845
0.0166564416140317
0.0069814068265259
-0.0034090671688318
-0.0137694561854004
-0.023334227502346
-0.0314023829996585
-0.0374125018715858
-0.0410020351409912
-0.0420428439974784
-0.0406439490616321
-0.0371210128068923
-0.0319421365857124
-0.025664284825325
-0.0188714656978845
-0.0121160298585891
-0.0058638621121644
-0.0004514213651418
0.0039375387132167
0.0072731738910079
0.0096599264070391
0.0112995067611336
0.0124456528574228
0.0133639127016067
0.0143005680292844
0.0154570778831839
0.0169720537960529
0.0189165621995925
0.021301232278347
0.024084573611617
0.0271780528128147
0.0304543320089578
0.0337564907968044
0.0368944033980369
0.0396250858902931
0.0416371077299118
0.0425650551915168
0.042042464017868
0.0397778898477554
0.0356255434453487
0.0296315252780914
0.0220526307821273
0.0133455991744995
0.0041249836795032
-0.0049044089391827
-0.013032448478043
-0.0196331590414047
-0.0242377184331417
-0.0265791974961757
-0.0266118720173835
-0.024506352841854
-0.0206189751625061
-0.0154399862512946
-0.0095294238999485
-0.0034488858655095
0.0023025460541248
0.0073392973281443
0.0114207873120903
0.0144605748355388
0.0165151376277208
0.0177582763135433
0.0184419155120849
0.0188448242843151
0.0192237310111522
0.0197815559804439
0.020654309540987
0.0219093356281518
0.0235489290207624
0.0255197882652282
0.0277271047234535
0.030045436695218
0.0323187671601772
0.0343444757163524
0.0358471535146236
0.0364699065685272
0.0358095951378345
0.0334892906248569
0.0292367115616798
0.0229470040649175
0.0147258369252085
0.0049063870683312
-0.0059710508212447
-0.0172152053564786
-0.0280609764158725
-0.0377564914524555
-0.0456512048840522
-0.0512688495218753
-0.0543524697422981
-0.0548806488513946
-0.0530576631426811
-0.0492793172597885
-0.044075708836317
-0.0380356460809707
-0.0317296534776687
-0.0256514120846986
-0.0201796106994152
-0.0155537044629454
-0.0118659930303692
-0.0090728290379047
-0.0070206369273364
-0.0054808021523058
-0.004189901985228
-0.0028914702124893
-0.0013722321018576
0.0005134996026754
0.002834384329617
0.0055861519649624
0.0087039088830351
0.0120800817385315
0.0155797069892287
0.0190375782549381
0.0222374610602855
0.0248906631022691
0.0266330447047948
0.0270524024963378
0.0257461033761501
0.0223984494805336
0.0168577991425991
0.0091920923441648
-0.0002889912575483
-0.0110506042838096
-0.0223868340253829
-0.0334991216659545
-0.0435823053121566
-0.0519095435738563
-0.0579120218753814
-0.0612437203526496
-0.0618150532245636
-0.0597871020436286
-0.0555335469543933
-0.0495815649628639
-0.0425400175154209
-0.0350249633193016
-0.0275929328054189
-0.0206883940845727
-0.0146101638674736
-0.0095002446323633
-0.0053544421680271
-0.0020480747334659
0.0006315658101812
0.0029454252216964
0.0051530776545405
0.0074664400890469
0.010024132207036
0.0128881633281707
0.0160542409867048
0.0194674767553806
0.0230383090674877
0.0266564115881919
0.0302021820098161
0.0335525833070278
0.0365702137351036
0.0390719883143901
0.0407990179955959
0.0414162464439868
0.0405535958707332
0.0378810726106166
0.0331922359764575
0.0264678299427032
0.0179084520787
0.0079362820833921
-0.0028366164769977
-0.0136740766465663
-0.0238031577318906
-0.0325022749602794
-0.0391759723424911
-0.0434100441634655
-0.045003518462181
-0.0439790599048137
-0.0405762791633605
-0.0352251194417476
-0.0284912511706352
-0.020998952910304
-0.0133546330034732
-0.0060876542702317
0.0003933678381145
0.0058313971385359
0.0101331211626529
0.0133566781878471
0.0156763084232807
0.0173366721719503
0.0186091549694538
0.0197516866028308
0.0209765322506427
0.022432429715991
0.0241979099810123
0.026282750070095
0.0286399163305759
0.0311853662133216
0.0338131114840507
0.0363954119384288
0.0387702211737632
0.040722444653511
0.0419693477451801
0.0421675816178321
0.0409534834325313
0.0380091294646263
0.0331334322690963
0.0263025108724832
0.0177104212343692
0.007777121849358
-0.0028872406110167
-0.0135543495416641
-0.0234651155769824
-0.0319159403443336
-0.0383386835455894
-0.0423677936196327
-0.0438786000013351
-0.0429874993860721
-0.0400198735296726
-0.0354555025696754
-0.029860608279705
-0.0238169319927692
-0.0178571064025163
-0.012411018833518
-0.0077678840607404
-0.0040615848265588
-0.001281420351006
0.0006996898446232
0.0020919565577059
0.0031547511462122
0.0041544781997799
0.0053169103339314
0.0067937085404992
0.0086551215499639
0.0109019838273525
0.0134813375771045
0.0162983145564794
0.0192297920584678
0.022138312458992
0.0248725209385156
0.0272475704550743
0.0290183499455451
0.0298715122044086
0.0294548533856868
0.027439871802926
0.0235967189073562
0.0178578663617372
0.0103546427562832
0.0014245137572288
-0.0084091369062662
-0.0184873398393392
-0.0280906520783901
-0.0365230701863765
-0.0431905388832092
-0.0476642996072769
-0.0497225150465965
-0.0493667051196098
-0.04681047052145
-0.0424423292279243
-0.0367702059447765
-0.0303539838641881
-0.0237345304340124
-0.0173766836524009
-0.0116368299350142
-0.0067466422915458
-0.0028057945892214
0.0002115224488079
0.0024342641700059
0.0040617939084768
0.005328357219696
0.006471206434071
0.0077040810137987
0.0091954674571752
0.0110528264194726
0.0133156105875968
0.0159595534205436
0.0189104210585355
0.0220611672848463
0.0252849608659744
0.0284365806728601
0.0313386060297489
0.0337580144405365
0.0353886932134628
0.0358585603535175
0.0347722135484218
0.0317828357219696
0.0266739949584007
0.0194302462041378
0.0102758202701807
-0.0003326432779431
-0.0117545928806066
-0.0232377350330352
-0.0339994803071022
-0.0433105826377868
-0.0505766123533248
-0.0554055199027061
-0.0576436035335063
-0.057373397052288
-0.0548805370926857
-0.0506005808711051
-0.0450582168996334
-0.0388060994446277
-0.0323651246726512
-0.0261719934642314
-0.0205420143902301
-0.0156522430479526
-0.0115453265607357
-0.0081473477184772
-0.0052925907075405
-0.0027557220309972
-0.0002961801365017
0.0022924439981579
0.0051503451541066
0.0083455387502908
0.0118814725428819
0.0157078504562377
0.0197338704019784
0.0238447487354278
0.0279189813882112
0.031842328608036
0.035515584051609
0.0388484299182891
0.0417302250862121
0.0439870543777942
0.0453573912382125
0.0455118156969547
0.0441073551774024
0.04085323959589
0.0355803705751895
0.0283066909760236
0.0192769356071949
0.008959325030446
-0.00200089905411
-0.0128571772947907
-0.022850289940834
-0.0312967039644718
-0.0376634038984775
-0.0416185110807418
-0.0430540926754474
-0.0420825816690921
-0.0390077196061611
-0.0342732332646846
-0.0284044910222291
-0.0219556577503681
-0.0154554499313235
-0.0093502877280116
-0.0039618732407689
0.0005317097529768
0.0040953857824206
0.0068190139718353
0.0088847205042839
0.0105287041515111
0.0120036322623491
0.0135414255782961
0.0153198707848787
0.0174419283866882
0.0199342463165521
0.0227631088346242
0.0258537400513887
0.0291016101837158
0.0323819853365421
0.0355632826685905
0.0385180488228797
0.0411242842674255
0.0432510040700435
0.0447280816733837
0.0453185178339481
0.0447196885943412
0.0426037833094596
0.0386876314878463
0.0328117832541465
0.0250052586197853
0.0155191617086529
0.004822039976716
-0.0064477752894163
-0.0175644885748624
-0.0278047118335962
-0.0365238822996616
-0.0432165302336216
-0.0475606471300125
-0.0494412817060947
-0.0489514619112014
-0.0463734455406665
-0.0421410910785198
-0.036783929914236
-0.0308608282357454
-0.024895342066884
-0.0193220488727092
-0.0144470278173685
-0.0104243624955415
-0.007258883677423
-0.0048390114679932
-0.0029809603001922
-0.0014665736816823
-7.26180151104927e-05
0.0014054821804165
0.00313187437132
0.005213439464569
0.0076954076066613
0.0105688404291868
0.0137822404503822
0.0172514915466308
0.0208699349313974
0.02452053129673
0.0280846487730741
0.0314410328865051
0.0344462804496288
0.0368978306651115
0.0385087057948112
0.0389238521456718
0.0377782471477985
0.0347764454782009
0.029771339148283
0.0228232070803642
0.0142221013084054
0.004464722238481
-0.0058051710948348
-0.0158734563738107
-0.0250357836484909
-0.0326736196875572
-0.0383175425231456
-0.0416900105774402
-0.0427282489836216
-0.0415882617235183
-0.0386216193437576
-0.0343213453888893
-0.0292486064136028
-0.0239583402872085
-0.0189362559467554
-0.0145508870482444
-0.0110240653157234
-0.0084247533231973
-0.006685618776828
-0.0056356578134
-0.0050390162505209
-0.0046330885961651
-0.0041626649908721
-0.0034068254753947
-0.0022020309697836
-0.0004635117948055
0.0018076379783451
0.0045388946309685
0.0076117645949125
0.0108860954642295
0.0142164435237646
0.0174559038132429
0.0204433035105466
0.0229760352522134
0.0247867070138454
0.0255482289940118
0.0249169804155826
0.0226026363670825
0.0184438191354274
0.0124690132215619
0.0049217864871025
-0.0037581915967166
-0.012984181754291
-0.0220870673656463
-0.0303893759846687
-0.0372771061956882
-0.0422627739608287
-0.0450379103422164
-0.0455033518373966
-0.0437696948647499
-0.0401338450610637
-0.0350352860987186
-0.0289954543113708
-0.0225516576319932
-0.0161949954926967
-0.0103187933564186
-0.0051894355565309
-0.000942536862567
0.0024067414924502
0.0049456674605607
0.0068381233140826
0.0082924040034413
0.0095270881429314
0.010742463171482
0.0121004292741417
0.0137112392112612
0.0156283602118492
0.0178514346480369
0.0203347858041524
0.0230007823556661
0.0257545970380306
0.0284942165017128
0.0311070885509252
0.0334452539682388
0.0352902635931968
0.036334216594696
0.0361965000629425
0.0344825573265552
0.0308708176016807
0.0251987054944038
0.0175232607871294
0.0081427199766039
-0.0024241236969828
-0.013494573533535
-0.0243027005344629
-0.0340876504778862
-0.0421736501157283
-0.0480346828699111
-0.0513470247387886
-0.0520265698432922
-0.0502329654991626
-0.0463328324258327
-0.0408381521701812
-0.0343366079032421
-0.027419488877058
-0.0206151418387889
-0.0143409483134746
-0.0088773285970091
-0.004359015263617
-0.0007824832573533
0.0019713016226887
0.0041032973676919
0.0058587742969393
0.0074919108301401
0.0092306463047862
0.0112420814111828
0.0136116342619061
0.0163438394665718
0.0193782933056354
0.0226118471473455
0.0259206183254718
0.0291779227554798
0.0322674214839935
0.035087302327156
0.037535224109888
0.039473220705986
0.0406912453472614
0.0408970862627029
0.0397508442401886
0.0369355529546737
0.0322336368262767
0.025586886331439
0.0171374306082725
0.0072438069619238
-0.003541194833815
-0.0145286135375499
-0.0249713454395532
-0.0341479144990444
-0.0414413399994373
-0.0464050360023975
-0.0488080494105815
-0.0486517958343029
-0.0461562573909759
-0.0417212843894958
-0.0358697399497032
-0.0291787330061197
-0.0222134515643119
-0.0154777690768241
-0.0093757584691047
-0.0041768597438931
4.070810973644257e-06
0.003201896790415
0.0055746086873114
0.0073603373020887
0.0088257705792784
0.0102210883051157
0.0117502976208925
0.0135541865602135
0.0157037526369094
0.0182042215019464
0.0210094414651393
0.0240418873727321
0.0272048376500606
0.0303827673196792
0.0334412753582
0.0362284630537033
0.0385660454630851
0.0402279011905193
0.0409254319965839
0.0403237119317054
0.0380935110151767
0.033984825015068
0.0279010068625211
0.0199527256190776
0.0104749435558915
8.142087608575821e-07
-0.0107970926910638
-0.0211781859397888
-0.0304112490266561
-0.0378605499863624
-0.0430646166205406
-0.0457851365208625
-0.0460204891860485
-0.0439874716103076
-0.0400783121585845
-0.0348047278821468
-0.0287356991320848
-0.0224303230643272
-0.0163744557648897
-0.0109359212219715
-0.0063428902067244
-0.0026800706982612
0.0001005451194941
0.0021542613394558
0.0037027895450592
0.0049844523891806
0.0062138279899954
0.0075612487271428
0.0091451033949851
0.011029727756977
0.0132278501987457
0.0157068260014057
0.0183981824666261
0.0212093722075223
0.0240326840430498
0.0267433393746614
0.0291814859956502
0.0311247836798429
0.0322764478623867
0.0322920717298984
0.0308378133922815
0.0276575926691293
0.0226371195167303
0.0158533230423927
0.0075955293141305
-0.0016488651745021
-0.0112439692020416
-0.020480440929532
-0.0286589264869689
-0.0351676866412162
-0.039550170302391
-0.0415588580071926
-0.0411814451217651
-0.0386281721293926
-0.0342871099710464
-0.0286626424640417
-0.0223101321607828
-0.0157770384103059
-0.0095535516738891
-0.0040296372026205
0.0005406349664554
0.004057649988681
0.006569770630449
0.008245725184679
0.0093335723504424
0.0101123694330453
0.0108462534844875
0.0117501802742481
0.0129699660465121
0.0145765282213687
0.0165726244449615
0.0189075618982315
0.02149248868227
0.0242102351039648
0.026919599622488
0.0294514466077089
0.0315918363630771
0.0330621264874935
0.033517837524414
0.0325812771916389
0.0299051664769649
0.0252489373087883
0.0185473971068859
0.0099558187648653
-0.0001419316977262
-0.0111650992184877
-0.0223948396742343
-0.0330478399991989
-0.0423647612333297
-0.0497059486806392
-0.054627887904644
-0.0569216310977935
-0.0566161572933197
-0.0539554581046104
-0.0493558309972286
-0.0433496013283729
-0.0365208834409713
-0.0294410027563571
-0.022612165659666
-0.0164235942065715
-0.0111220544204115
-0.0068019037134945
-0.0034168206620961
-0.0008074496872723
0.0012584758223965
0.0030382359400391
0.0047717941924929
0.006651013623923
0.0088003100827336
0.0112737650051712
0.0140653727576136
0.0171203557401895
0.0203463174402713
0.0236292500048875
0.0268462002277374
0.0298591740429401
0.0324889793992042
0.0344862937927246
0.035525556653738
0.035237468779087
0.0332723148167133
0.029373986646533
0.0234476756304502
0.0156078301370143
0.0061965277418494
-0.0042359679937362
-0.0149909192696213
-0.0253043100237846
-0.0344320870935916
-0.0417318567633628
-0.0467340983450412
-0.0491873882710933
-0.0490729063749313
-0.0465914458036422
-0.0421251840889453
-0.0361811444163322
-0.0293290149420499
-0.0221426337957382
-0.0151443695649504
-0.0087530873715877
-0.0032460996881127
0.0012552826665341
0.0047763064503669
0.007461070548743
0.0095320800319314
0.0112457852810621
0.0128539409488439
0.0145711787045001
0.0165475569665431
0.0188548117876052
0.0214948803186416
0.0244216416031122
0.0275546293705701
0.0307805631309747
0.0339561849832534
0.036911766976118
0.0394419841468334
0.0412860251963138
0.0421194024384021
0.0415794439613819
0.0393248796463012
0.0351126044988632
0.0288701951503753
0.0207426659762859
0.011099524796009
0.0005027893930673
-0.0103508932515978
-0.0207022484391927
-0.0298146214336156
-0.0370659902691841
-0.0420239120721817
-0.0444840192794799
-0.0444735549390316
-0.0422298796474933
-0.038158755749464
-0.0327773727476596
-0.0266508348286151
-0.0203286483883857
-0.0142864771187305
-0.0088813416659832
-0.004327920731157
-0.0006959713064134
0.0020766523666679
0.004156800918281
0.0057730074040591
0.0071651758626103
0.0085446303710341
0.0100728068500757
0.0118541782721877
0.0139364618808031
0.0163142681121826
0.0189363043755292
0.021715622395277
0.0245396215468645
0.0272728614509105
0.0297435373067855
0.0317189954221248
0.0328970067203044
0.0329337790608406
0.0315036885440349
0.0283683110028505
0.0234335996210575
0.0167877357453107
0.0087171383202075
-0.0003071324899792
-0.0096753360703587
-0.0187070462852716
-0.0267265699803829
-0.0331373475492
-0.0374898724257946
-0.0395328663289547
-0.0392376109957695
-0.0367930084466934
-0.0325724296271801
-0.0270744226872921
-0.0208500791341066
-0.0144373392686247
-0.0083095869049429
-0.0028350960928946
0.0017497292719781
0.0053499187342822
0.008005803450942
0.0098705496639013
0.011171824298799
0.0121663883328437
0.0130996843799948
0.0141739314422011
0.0155244711786508
0.0172102097421884
0.0192199312150478
0.021489679813385
0.0239249821752309
0.0264123287051916
0.0288074985146522
0.0309095848351717
0.0324394777417182
0.0330412462353706
0.0323187336325645
0.0299023631960153
0.025528872385621
0.0191149041056633
0.0108046606183052
0.0009770672768354
-0.0097872605547308
-0.0207701884210109
-0.0312012992799282
-0.0403457283973693
-0.0475777313113212
-0.0524429008364677
-0.0547106675803661
-0.054398201406002
-0.0517516061663627
-0.047195591032505
-0.0412708707153797
-0.0345672070980072
-0.0276544131338596
-0.0210201554000377
-0.0150259379297494
-0.0098868897184729
-0.0056733600795269
-0.0023292209953069
0.0002983056474477
0.0024237437173724
0.0042879693210124
0.006121133454144
0.0081060091033577
0.0103533128276467
0.0128963878378272
0.0157026518136262
0.0186948459595441
0.0217720363289117
0.0248238407075405
0.0277344472706317
0.0303699970245361
0.0325507670640945
0.0340263471007347
0.0344773195683956
0.0335530675947666
0.0309383664280176
0.0264321640133857
0.0200120732188224
0.0118630165234208
0.0023734546266496
-0.0078930370509624
-0.0182534903287887
-0.0279817171394824
-0.0363897383213043
-0.0429037548601627
-0.0471247769892215
-0.0488644838333129
-0.0481524541974067
-0.0452193208038806
-0.0404622368514537
-0.0343937985599041
-0.0275777205824852
-0.020559836179018
-0.0138086769729852
-0.0076785208657383
-0.002392710186541
0.0019593029282987
0.0054110763594508
0.0080946004018187
0.010205278173089
0.011964751407504
0.0135905127972364
0.0152720790356397
0.0171508565545082
0.0193070918321609
0.021758010610938
0.0244672838598489
0.0273614022880792
0.0303445141762495
0.0333031974732875
0.0360965467989444
0.0385342687368392
0.0403544977307319
0.0412222482264041
0.0407646931707859
0.0386365205049514
0.0345954522490501
0.0285696443170309
0.0207005310803651
0.0113488808274269
0.0010635121725499
-0.0094776162877678
-0.0195439290255308
-0.0284349787980318
-0.0355549603700637
-0.040473286062479
-0.0429681427776813
-0.0430429615080356
-0.0409110076725482
-0.0369554199278354
-0.0316742919385433
-0.0256160218268632
-0.0193133857101202
-0.0132287936285138
-0.0077161868102848
-0.0030014554504305
0.0008176662959158
0.003760274965316
0.0059462999925017
0.007571617141366
0.0088733974844217
0.0100899823009967
0.0114198764786124
0.0129928216338157
0.014863921329379
0.0170246288180351
0.0194187462329864
0.0219596046954393
0.0245469901710748
0.0270789694041013
0.0294543020427227
0.0315617322921752
0.0332544445991516
0.0343215689063072
0.0344818867743015
0.0334168598055839
0.030837170779705
0.0265557989478111
0.0205412320792675
0.0129458345472812
0.0041119512170553
-0.0054489932954311
-0.0151078524067997
-0.0241916216909885
-0.0320629626512527
-0.0381918996572494
-0.0422123521566391
-0.0439577028155326
-0.0434716567397117
-0.0409928895533084
-0.0369152538478374
-0.0317296795547008
-0.0259583741426467
-0.0200957916676998
-0.0145659204572439
-0.0096921948716044
-0.0056741507723927
-0.0025757630355656
-0.0003349096514284
0.0012070420198142
0.0022677560336887
0.0030875420197844
0.0038956985808908
0.0048816446214914
0.0061749191954731
0.0078373746946454
0.0098673785105347
0.0122132990509271
0.0147920837625861
0.0175010040402412
0.0202120393514633
0.0227565169334411
0.0249132513999938
0.0264075845479965
0.0269276686012744
0.0261613093316555
0.0238504670560359
0.0198523122817277
0.0141895506531
0.0070751141756772
-0.0010949596762657
-0.0097792735323309
-0.0183541532605886
-0.0261874087154865
-0.0327056273818016
-0.0374542921781539
-0.0401524268090724
-0.040724791586399
-0.0392983816564083
-0.0361703783273696
-0.0317596122622489
-0.0265506953001022
-0.0210353415459394
-0.0156542062759399
-0.010751524940133
-0.0065522636286914
-0.0031573236919939
-0.0005517648532986
0.0013746619224548
0.0027992976829409
0.0039342404343187
0.0049888109788298
0.0061338199302554
0.0074805892072618
0.0090768001973629
0.0109156928956508
0.0129532553255558
0.0151225589215755
0.0173433646559715
0.0195323210209608
0.0216094627976417
0.0234918259084224
0.0250704549252986
0.0261802896857261
0.0265864543616771
0.0260041207075119
0.0241473969072103
0.020788237452507
0.0158087220042943
0.0092428214848041
0.0013033635914325
-0.0076186214573681
-0.0169877335429191
-0.0261823348701
-0.0345645919442176
-0.0415529012680053
-0.0466869175434112
-0.0496762618422508
-0.0504276305437088
-0.0490449219942092
-0.0458026640117168
-0.0411023050546646
-0.0354190953075885
-0.0292475558817386
-0.0230530593544244
-0.0172277428209781
-0.0120532400906085
-0.0076824137941002
-0.0041441917419433
-0.001364269061014
0.0008070287294685
0.0025651264004409
0.0041208150796592
0.0056702392175793
0.0073700370267033
0.0093218358233571
0.0115676261484622
0.0140964770689606
0.0168592110276222
0.0197806470096111
0.0227643810212612
0.0256967842578887
0.0284512471407651
0.0308815278112888
0.0328018553555011
0.0339726135134696
0.0341104120016098
0.032924897968769
0.0301759224385023
0.0257366951555013
0.0196430142968893
0.0121154552325606
0.0035504319239407
-0.0055162645876407
-0.0144639862701296
-0.0226546116173267
-0.0295092053711414
-0.0345783792436122
-0.0375885926187038
-0.0384597219526767
-0.0372984372079372
-0.0343715399503707
-0.0300632938742637
-0.0248258635401725
-0.0191300213336944
-0.0134166358038783
-0.0080524319782853
-0.0032989270985126
0.0007005557417869
0.0039194487035274
0.0064350487664341
0.0083986548706889
0.009992541745305
0.0113944811746478
0.0127599630504846
0.0142125347629189
0.0158348083496093
0.0176644809544086
0.0196996983140707
0.0219091605395078
0.0242393910884857
0.026618767529726
0.0289622657001018
0.0311741419136524
0.0331405103206634
0.0347121506929397
0.0356904193758964
0.0358268432319164
0.0348409600555896
0.0324636250734329
0.0285016000270843
0.022901652380824
0.0157936513423919
0.0075009814463555
-0.0014866985147818
-0.0105719286948442
-0.0191226582974195
-0.0265443250536918
-0.0323431938886642
-0.0361787974834442
-0.0378981307148933
-0.0375413373112678
-0.0353210493922233
-0.0315880477428436
-0.0267899185419082
-0.0214202292263507
-0.0159599352627992
-0.0108225252479314
-0.0063142571598291
-0.0026124902069568
0.0002372181043028
0.0023042992688715
0.0037430627271533
0.0047582071274518
0.0055684316903352
0.0063729463145136
0.0073304311372339
0.0085521517321467
0.0101038282737135
0.0120067857205867
0.0142308101058006
0.0166903659701347
0.0192573647946119
0.0217799842357635
0.0240896921604871
0.0259902793914079
0.0272425357252359
0.027570329606533
0.0266957767307758
0.0243896804749965
0.0205241087824106
0.0151176452636718
0.0083618620410561
0.000621136103291
-0.0075960741378366
-0.0156953614205122
-0.0230754036456346
-0.0292049460113048
-0.033679187297821
-0.0362530834972858
-0.0368550829589366
-0.0355834066867828
-0.0326862260699272
-0.0285269170999526
-0.0235382746905088
-0.0181724466383457
-0.0128517067059874
-0.0079247849062085
-0.0036355308257043
-0.0001079640351235
0.0026529128663241
0.0047420281916856
0.0063168150372803
0.0075578256510198
0.0086417542770504
0.0097225783392786
0.0109173562377691
0.0123001625761389
0.013902474194765
0.0157163627445697
0.0177005678415298
0.0197900049388408
0.0219062343239784
0.0239612851291894
0.0258451104164123
0.0273993983864784
0.028399609029293
0.0285602435469627
0.0275605916976928
0.0250929929316043
0.0209333971142768
0.015013363212347
0.0074661523103713
-0.0013663237914443
-0.0109623689204454
-0.0206777341663837
-0.0298230946063995
-0.0377476513385772
-0.0439127162098884
-0.0479451529681682
-0.0496686324477195
-0.0491118654608726
-0.0464905612170696
-0.0421699583530426
-0.0366203673183918
-0.0303651597350835
-0.0239221416413784
-0.0177497006952762
-0.0122037222608923
-0.0075069963932037
-0.0037380801513791
-0.0008448464795947
0.0013237260282039
0.002980588003993
0.0043649794533848
0.0057071009650826
0.0071974298916757
0.0089714080095291
0.0111081432551145
0.0136290602385997
0.0164940282702446
0.0196063350886106
0.0228316653519868
0.0260219853371381
0.0290274806320667
0.03168560937047
0.0337948054075241
0.0350950174033641
0.0352743268013
0.0340074189007282
0.0310181602835655
0.0261498726904392
0.0194242149591445
0.0110731367021799
0.001536835450679
-0.0085769025608897
-0.0185685530304908
-0.0277356430888175
-0.0354528799653053
-0.0412352122366428
-0.0447792597115039
-0.0459807328879833
-0.04492899030447
-0.0418839305639267
-0.0372407920658588
-0.0314841531217098
-0.0251324418932199
-0.0186790227890014
-0.0125409895554184
-0.007023524492979
-0.0023009777069091
0.0015803333371877
0.0046783033758401
0.0071246605366468
0.0090963896363973
0.0107872383669018
0.0123811867088079
0.0140331890434026
0.0158589389175176
0.0179321411997079
0.0202852562069892
0.0229096189141273
0.0257574468851089
0.0287495236843824
0.031783178448677
0.0347314812242984
0.0374298170208931
0.0396513678133487
0.0410878807306289
0.0413649342954158
0.0401008874177932
0.0369875431060791
0.031865794211626
0.0247798841446638
0.0159996468573808
0.0060063423588871
-0.0045545785687863
-0.0149475149810314
-0.0244341194629669
-0.0323550999164581
-0.0381973013281822
-0.0416427552700042
-0.0425946563482284
-0.0411801934242248
-0.0377296730875968
-0.0327284261584281
-0.0267481990158557
-0.0203727316111326
-0.014129557646811
-0.0084374630823731
-0.0035754311829805
0.000328179448843
0.0032876078039407
0.0054322695359587
0.006967956200242
0.0081382235512137
0.0091883521527051
0.0103333741426467
0.0117364767938852
0.0134966801851987
0.0156426411122083
0.0181383211165666
0.020899474620819
0.023810975253582
0.0267426334321498
0.0295613352209329
0.0321280397474765
0.0342761911451816
0.0357857197523117
0.0363726876676082
0.0357112847268581
0.0334902219474315
0.0294861420989036
0.0236311368644237
0.0160563662648201
0.0071000219322741
-0.0027213986031711
-0.0127688702195882
-0.0223510488867759
-0.0307989604771137
-0.037538819015026
-0.0421562232077121
-0.0444404445588588
-0.044399581849575
-0.0422469340264797
-0.0383645445108413
-0.0332504920661449
-0.0274558160454034
-0.0215178169310092
-0.0158985182642936
-0.0109364464879035
-0.0068234065547585
-0.0036121925804764
-0.0012407791800796
0.000440978037659
0.0016406673239544
0.0025886439252644
0.0035056706983596
0.0045776488259434
0.0059398929588496
0.0076712039299309
0.0097952233627438
0.0122843943536281
0.0150655899196863
0.0180299002677202
0.0210399013012647
0.0239230152219533
0.0264500882476568
0.0283151678740978
0.0291451755911111
0.0285539217293262
0.0262217186391353
0.0219715293496847
0.0158233158290386
0.0080178240314126
-0.0009921677410602
-0.0105841606855392
-0.0200384575873613
-0.0286270305514335
-0.0357026234269142
-0.0407736413180828
-0.0435513108968734
-0.0439640805125236
-0.0421499200165271
-0.0384373292326927
-0.0333071984350681
-0.0273277722299098
-0.0210749972611665
-0.0150594059377908
-0.0096728801727294
-0.0051593361422419
-0.0016090993303805
0.0010259388945996
0.0029002479277551
0.004232682287693
0.0052654366008937
0.0062313941307365
0.0073316842317581
0.0087209930643439
0.0104950191453099
0.0126791168004274
0.015226524323225
0.0180332791060209
0.0209640394896268
0.0238738376647233
0.026613088324666
0.0290120989084243
0.030852772295475
0.0318485796451568
0.0316561199724674
0.0299235880374908
0.0263634379953145
0.0208298861980438
0.0133804837241768
0.0043052481487393
-0.0058888695202767
-0.016539592295885
-0.0269134640693664
-0.0362863093614578
-0.0440162979066371
-0.0496110096573829
-0.0527774915099144
-0.0534434095025062
-0.0517494417726993
-0.0480196326971054
-0.0427161641418933
-0.0363842099905014
-0.0295897498726844
-0.0228543225675821
-0.0165963880717754
-0.0110933259129524
-0.0064750052988529
-0.0027437743265181
0.0001974760089069
0.0025186096318066
0.0044324868358671
0.0061610089614987
0.0079052727669477
0.00982560031116
0.0120293591171503
0.0145643576979637
0.0174199119210243
0.0205352827906608
0.0238114055246114
0.0271250493824481
0.030340302735567
0.0333031862974166
0.0358131490647792
0.0375917330384254
0.0382829643785953
0.0374987199902534
0.0348946303129196
0.0302548501640558
0.0235629379749298
0.0150389838963747
0.0051339156925678
-0.0055168448016047
-0.0161692425608634
-0.026059303432703
-0.0344887301325798
-0.0408962294459342
-0.0449067279696464
-0.0463569313287735
-0.0453041270375251
-0.0420177094638347
-0.0369422733783721
-0.030633931979537
-0.0236863773316144
-0.0166609361767768
-0.0100296577438712
-0.0041367374360561
0.000820655375719
0.0047921896912157
0.007857009768486
0.0101940734311938
0.0120433270931243
0.0136616053059697
0.015283865854144
0.0170982591807842
0.0192290432751178
0.0217216461896896
0.024540115147829
0.0275840014219284
0.0307146068662405
0.0337809957563877
0.0366412177681922
0.0391673259437084
0.0412248484790325
0.0426366105675697
0.0431584529578685
0.0424900650978088
0.0403212942183017
0.0364004708826541
0.0306094624102115
0.0230241063982248
0.0139348916709423
0.0038216095417737
-0.0066998684778809
-0.0169430077075958
-0.0262230020016431
-0.0339288376271724
-0.0395878404378891
-0.0429167486727237
-0.0438483357429504
-0.0425274036824703
-0.0392818339169025
-0.0345741584897041
-0.0289390832185745
-0.0229191221296787
-0.0170055702328681
-0.0115873953327536
-0.0069200471043586
-0.0031228424049913
-0.0001930178987095
0.001975854858756
0.003566323313862
0.0047976956702768
0.0058869021013379
0.0070200799964368
0.0083366325125098
0.009924148209393
0.0118183530867099
0.0140043562278151
0.016422402113676
0.0189790688455104
0.0215588398277759
0.0240253843367099
0.0262019280344247
0.0278425104916095
0.0286269392818212
0.0281958971172571
0.0262153968214988
0.0224512219429016
0.0168342348188161
0.0095020504668354
0.0008095214143395
-0.0086967311799526
-0.0183398202061653
-0.0273978300392627
-0.0351905301213264
-0.0411515980958938
-0.0448826104402542
-0.0461887009441852
-0.0450961478054523
-0.0418485105037689
-0.0368733629584312
-0.0307192336767911
-0.0239778794348239
-0.0172113552689552
-0.0108931567519903
-0.0053652673959732
-0.0008162539452314
0.0027157636359333
0.0053224554285407
0.0071937958709895
0.0085751609876751
0.0097211524844169
0.010861387476325
0.0121812839061021
0.0138074122369289
0.0157922655344009
0.0181097537279129
0.0206704344600439
0.0233477670699358
0.0260021407157182
0.0284946672618389
0.0306850858032703
0.0324123501777648
0.0334682799875736
0.0335847698152065
0.0324503406882286
0.0297575518488883
0.0252694189548492
0.0188889279961586
0.0107156746089458
0.0010679187253117
-0.0095423776656389
-0.0204682350158691
-0.0309995841234922
-0.0404390953481197
-0.0481755249202251
-0.0537455976009368
-0.0568779073655605
-0.0575131177902221
-0.0557980090379715
-0.0520595945417881
-0.0467624627053737
-0.0404492542147636
-0.0336739979684352
-0.0269388407468795
-0.0206414740532636
-0.0150468731299042
-0.0102875996381044
-0.0063765686936676
-0.0032229318749159
-0.0006590136326849
0.0015220066998153
0.0035306573845446
0.0055537219159305
0.0077341143041849
0.0101603064686059
0.0128655890002846
0.0158329494297504
0.0190030187368392
0.0222861990332603
0.0255785137414932
0.0287740733474493
0.0317571051418781
0.0343672707676887
0.0363660268485546
0.0374346189200878
0.0372073128819465
0.0353324487805366
0.0315513387322425
0.0257721003144979
0.018114048987627
0.0089166043326258
-0.0012841382995247
-0.0118104740977287
-0.0219206362962722
-0.0308909751474857
-0.0380911193788051
-0.0430488213896751
-0.045501809567213
-0.0454268418252468
-0.0430315546691417
-0.0387108027935028
-0.0329846628010273
-0.0264295879751443
-0.0196095015853643
-0.0130163999274373
-0.0070267114788293
-0.0018757442012429
0.0023471498861908
0.0056837736628949
0.0082783456891775
0.0103398561477661
0.0121027613058686
0.0137947490438818
0.0156091786921024
0.0176771618425846
0.0200508199632167
0.0227092448621988
0.0255799368023872
0.0285631064325571
0.0315508432686328
0.0344367697834968
0.0371183902025222
0.0394931025803089
0.0414401292800903
0.0427897721529006
0.0433024913072586
0.0426802188158035
0.0406138896942138
0.0368531495332717
0.0312728807330131
0.023918367922306
0.0150276822969317
0.0050294147804379
-0.005491707008332
-0.0158577505499124
-0.0253738239407539
-0.0334050692617893
-0.0394463837146759
-0.043174922466278
-0.044478315860033
-0.0434584878385067
-0.040411788970232
-0.0357859805226326
-0.030118154361844
-0.0239632055163383
-0.0178298484534025
-0.0121366549283266
-0.0071834614500403
