bvp
-0.037954106926918
-0.0384278744459152
-0.0383588895201683
-0.0376374013721942
-0.0362220592796802
-0.0341330096125602
-0.0314463153481483
-0.0282978080213069
-0.024895790964365
-0.0215292572975158
-0.0185576602816581
-0.0163767822086811
-0.015361126512289
-0.0157909896224737
-0.0177843756973743
-0.0212599635124206
-0.0259424615651369
-0.0313953086733818
-0.037064328789711
-0.0423338189721107
-0.046597771346569
-0.0493379719555377
-0.0501939468085765
-0.0490079298615455
-0.0458345301449298
-0.0409179218113422
-0.0346484296023845
-0.0275082048028707
-0.0200110897421836
-0.0126404091715812
-0.0057904683053493
0.0002729929983615
0.0054198633879423
0.009638381190598
0.0130108119919896
0.0156875737011432
0.0178590212017297
0.0197276100516319
0.0214845947921276
0.0232934542000293
0.0252804830670356
0.0275318548083305
0.0300936270505189
0.0329688005149364
0.036102645099163
0.0393494069576263
0.0424332506954669
0.0449343472719192
0.0463233515620231
0.0460457950830459
0.0436348319053649
0.0388168729841709
0.031583048403263
0.0222170539200305
0.0112773682922124
-0.0004634959623217
-0.0121113890781998
-0.0227566175162792
-0.0315759032964706
-0.0379187315702438
-0.041371077299118
-0.0417879410088062
-0.0392909832298755
-0.0342395491898059
-0.0271843019872903
-0.0188036412000656
-0.0098224189132452
-0.0009236130863428
0.0073269642889499
0.0145292691886425
0.0204718876630067
0.0251309350132942
0.0286426339298486
0.0312545634806156
0.033269390463829
0.0349941737949848
0.0367002487182617
0.0385940857231617
0.0408019535243511
0.0433658920228481
0.0462454184889793
0.0493287183344364
0.0524488165974617
0.0553834103047847
0.0578328296542167
0.0594034232199192
0.0596279986202716
0.0580283179879188
0.054202377796173
0.0479158759117126
0.0391774997115135
0.0282760486006736
0.01576654240489
0.002410672372207
-0.0109115457162261
-0.0233044512569904
-0.0339612364768981
-0.0422507002949714
-0.0477705411612987
-0.0503671057522296
-0.0501278787851333
-0.0473534129559993
-0.0425149053335189
-0.0361980348825454
-0.0290351063013076
-0.0216357186436653
-0.0145262377336621
-0.0081036556512117
-0.0026093684136867
0.0018751211464405
0.0054128398187458
0.0081759355962276
0.0103965885937213
0.0123216873034834
0.0141802532598376
0.0161592792719602
0.0183864682912826
0.0209238156676292
0.023771733045578
0.0268788244575262
0.0301524214446544
0.033463180065155
0.0366346985101699
0.0394179821014404
0.0414692088961601
0.0423587374389171
0.0416244566440582
0.0388537794351577
0.033768955618143
0.0263018552213907
0.0166448261588811
0.0052592726424336
-0.0071650627069175
-0.0197890270501375
-0.0317213796079158
-0.0421190336346626
-0.0502795837819576
-0.0557138100266456
-0.0581866353750228
-0.0577239468693733
-0.0545911379158496
-0.0492472387850284
-0.0422784313559532
-0.0343272052705287
-0.0260311719030141
-0.0179677866399288
-0.0106019498780369
-0.0042467638850212
0.0009522275067865
0.0050091911107301
0.0080717168748378
0.0103806154802441
0.0122221922501921
0.0138814793899655
0.0156035646796226
0.0175684131681919
0.0198796410113573
0.0225643031299114
0.0255824960768222
0.0288411676883697
0.0322054550051689
0.0355072095990181
0.0385449938476085
0.0410675890743732
0.0427544265985488
0.043221328407526
0.0420654416084289
0.0389397591352462
0.0336354486644268
0.0261484365910291
0.0167131628841161
0.0057969037443399
-0.0059436187148094
-0.0177323836833238
-0.0287557076662778
-0.0382520668208599
-0.0456053800880909
-0.0504171214997768
-0.0525383837521076
-0.0520646907389164
-0.0493023470044136
-0.0447154194116592
-0.0388628654181957
-0.032332245260477
-0.0256768725812435
-0.0193650983273983
-0.0137464636936783
-0.0090347873046994
-0.0053069246932864
-0.0025123581290245
-0.0004918090999126
0.0009873062372207
0.0021806247532367
0.0033216718584299
0.0045945886522531
0.0061215795576572
0.0079598929733037
0.0101066250354051
0.0125098396092653
0.0150835551321506
0.0177235901355743
0.0203198231756687
0.0227594282478094
0.0249140374362468
0.0266113393008708
0.0276138428598642
0.0276281218975782
0.0263393688946962
0.0234582182019948
0.018781628459692
0.0122621096670627
0.0040599219501018
-0.0054449364542961
-0.015684450045228
-0.0259676463901996
-0.0355647541582584
-0.0437941141426563
-0.0500982478260993
-0.0541025847196579
-0.0556512102484703
-0.054812591522932
-0.0518538914620876
-0.047191098332405
-0.0413327515125274
-0.0348300635814666
-0.0282249804586172
-0.021991791203618
-0.0164891183376312
-0.0119342170655727
-0.0083967559039592
-0.005809998139739
-0.0040010400116443
-0.0027355458587408
-0.0017629880458116
-0.0008517708629369
0.0001857485622167
0.0014780443161725
0.0030929334461688
0.0050474181771278
0.0073148161172866
0.0098243821412324
0.0124669456854462
0.0151107441633939
0.0176170393824577
0.0198465641587972
0.0216484703123569
0.0228367298841476
0.0231796726584434
0.0224192161113023
0.0203124489635229
0.0166810248047113
0.0114597398787736
0.0047391206026077
-0.0032085105776786
-0.0119320210069417
-0.0208421591669321
-0.0292868632823228
-0.0366376563906669
-0.0423619858920574
-0.0460756681859493
-0.0475788414478302
-0.0468714386224746
-0.0441417545080184
-0.0397333614528179
-0.034100204706192
-0.027752336114645
-0.0211971178650856
-0.0148847680538892
-0.0091651054099202
-0.0042603532783687
-0.0002567225601524
0.002881244989112
0.005275435745716
0.007094943895936
0.0085275005549192
0.0097597185522317
0.010959094390273
0.0122588966041803
0.0137508353218436
0.0154835972934961
0.0174640230834484
0.019660884514451
0.0220095217227935
0.0244143977761268
0.0267443731427192
0.0288194492459297
0.0304028633981943
0.0312119387090206
0.0309477970004081
0.0293430909514427
0.0262217111885547
0.0215520672500133
0.015477136708796
0.00831516738981
0.0005334177985787
-0.007300928235054
-0.0145860314369201
-0.0207536313682794
-0.0253321006894111
-0.0280018243938684
-0.0286309290677309
-0.0272801853716373
-0.0241828598082065
-0.0197113640606403
-0.0143340127542614
-0.0085607459768652
-0.0028828950598835
0.0022834725677967
0.0066422205418348
0.0100401071831583
0.0124629717320203
0.0140127697959542
0.0148743260651826
0.015278035774827
0.0154651459306478
0.0156558379530906
0.0160229858011007
0.0166817791759967
0.0176935717463493
0.0190692711621522
0.0207677669823169
0.0226992852985858
0.0247385203838348
0.0267383623868227
0.0285300891846418
0.0299088414758443
0.0306211337447166
0.0303716510534286
0.0288559980690479
0.0258149076253175
0.0210948716849088
0.0146995512768626
0.0068219345994293
-0.002151845023036
-0.0116728749126195
-0.0210919845849275
-0.0297421589493751
-0.0370208695530891
-0.0424561724066734
-0.0457495003938674
-0.0467945523560047
-0.0456747375428676
-0.0426437258720397
-0.0380927845835685
-0.0325043946504592
-0.0263935681432485
-0.0202474109828472
-0.0144756082445383
-0.0093774292618036
-0.0051227919757366
-0.0017462819814682
0.0008375719189643
0.0027952995151281
0.0043289959430694
0.0056422408670187
0.0069185858592391
0.0083065629005432
0.0099096680060029
0.0117820855230093
0.0139295170083642
0.0163142997771501
0.0188631787896156
0.0214758496731519
0.0240323841571807
0.0263917371630668
0.0283752884715795
0.0297471843659877
0.0302095785737037
0.0294230785220861
0.0270588807761669
0.0228744205087423
0.0167866628617048
0.0089215915650129
-0.000370280817151
-0.0105359749868512
-0.0208761692047119
-0.0306247510015964
-0.0390365198254585
-0.0454711467027664
-0.0494669377803802
-0.0507951602339744
-0.0494814626872539
-0.0457868874073028
-0.0401593595743179
-0.0331739448010921
-0.0254673678427934
-0.0176658984273672
-0.0103152263909578
-0.003827191889286
0.0015493277460336
0.005735183134675
0.0088074542582035
0.0109671615064144
0.0124932788312435
0.013690685853362
0.0148414727300405
0.0161701366305351
0.0178297292441129
0.0199045743793249
0.0224142149090766
0.0253133606165647
0.0284986514598131
0.031826514750719
0.0351287685334682
0.0382079109549522
0.040812462568283
0.0426160022616386
0.0432250872254371
0.0422265231609344
0.0392654649913311
0.0341303274035453
0.0268216058611869
0.0175892505794763
0.006929786875844
-0.0044547300785779
-0.0157314036041498
-0.0260389745235443
-0.0345987454056739
-0.0408083349466323
-0.0443025529384613
-0.0449795238673687
-0.0429961010813713
-0.0387349501252174
-0.0327469743788242
-0.0256777424365282
-0.0181892234832048
-0.010885801166296
-0.0042520985007286
0.0013896748423576
0.0058977901935577
0.0093029849231243
0.0117733292281627
0.0135590657591819
0.0149381011724472
0.0161774735897779
0.0175098236650228
0.0191171914339065
0.0211180485785007
0.0235614534467458
0.0264323279261589
0.0296621471643447
0.0331344231963157
0.0366781167685985
0.0400483533740043
0.042905505746603
0.0448196530342102
0.045319702476263
0.0439724065363407
0.0404651463031768
0.0346799977123737
0.0267456024885177
0.0170503687113523
0.0062143811956048
-0.004973261617124
-0.0156426914036273
-0.0249435696750879
-0.0321446172893047
-0.0367207564413547
-0.0384121984243392
-0.0372442863881588
-0.0335093662142753
-0.0277159996330738
-0.0205133371055126
-0.0126076303422451
-0.0046844817698001
0.0026605036109685
0.0089773256331682
0.0139955570921301
0.0176341589540243
0.019986193627119
0.0212803445756435
0.0218291450291872
0.0219758637249469
0.0220469571650028
0.0223143957555294
0.0229711569845676
0.0241202488541603
0.0257779732346534
0.0278878100216388
0.0303254406899213
0.0328803323209285
0.0352319777011871
0.036950584501028
0.0375350899994373
0.0364841073751449
0.0333846323192119
0.0280003435909748
0.0203415118157863
0.0106971869245171
-0.0003821048885583
-0.0121454643085598
-0.0237304810434579
-0.0342649146914482
-0.0429660826921463
-0.0492249391973018
-0.05267184227705
-0.0532182566821575
-0.0510594397783279
-0.046635016798973
-0.0405597612261772
-0.0335363708436489
-0.0262617468833923
-0.0193443410098552
-0.0132465241476893
-0.0082545028999447
-0.0044726906344294
-0.0018393089994788
-0.0001613451167941
0.0008373437449336
0.0014674691483378
0.0020329896360635
0.0027947183698415
0.0039385231211781
0.0055568171665072
0.0076502691954374
0.0101450495421886
0.0129100382328033
0.0157561600208282
0.0184161663055419
0.0205275788903236
0.0216467622667551
0.0213040821254253
0.0190887842327356
0.0147417597472667
0.0082330778241157
-0.0001971870660781
-0.0100466143339872
-0.0206041187047958
-0.0310382470488548
-0.0405026227235794
-0.0482387468218803
-0.0536615774035453
-0.0564198791980743
-0.0564267486333847
-0.0538571141660213
-0.0491123422980308
-0.0427579879760742
-0.0354458950459957
-0.027833504602313
-0.020510634407401
-0.0139405392110347
-0.0084210392087697
-0.0040704691782593
-0.0008422574028372
0.0014344230294227
0.0030047660693526
0.0041454946622252
0.005129343830049
0.0061944862827658
0.0075232535600662
0.009231362491846
0.0113634886220097
0.0138917546719312
0.0167115703225135
0.0196292735636234
0.0223478190600872
0.0244666375219821
0.0255134887993335
0.0250149704515934
0.0225875861942768
0.0180220026522874
0.0113452281802892
0.0028489008545875
-0.0069278543815016
-0.0172564052045345
-0.0273027382791042
-0.0362277328968048
-0.0432902909815311
-0.047936126589775
-0.0498594939708709
-0.0490288101136684
-0.0456743203103542
-0.0402470231056213
-0.0333537384867668
-0.0256692096590995
-0.0178462211042642
-0.0104490276426076
-0.0039086458273231
0.0015077725984156
0.0057075428776443
0.0087595582008361
0.010861674323678
0.0122911389917135
0.0133485971018671
0.0143136158585548
0.0154180107638239
0.0168295875191688
0.0186406653374433
0.0208640322089195
0.0234383251518011
0.0262330435216426
0.029036346822977
0.0315301679074764
0.033288974314928
0.0338278859853744
0.032688271254301
0.0295352023094892
0.0242426712065935
0.0169442370533943
0.0080380495637655
-0.0018529687076807
-0.0119560565799474
-0.0214414447546005
-0.029518648982048
-0.0355275124311447
-0.039012636989355
-0.0397692508995533
-0.0378592684864997
-0.0335992835462093
-0.0275134406983852
-0.0202535055577754
-0.0125060435384511
-0.0049063041806221
0.0020305516663938
0.0079540163278579
0.0126940906047821
0.0162513498216867
0.0187673661857843
0.0204806067049503
0.0216786600649356
0.0226578302681446
0.0236916709691286
0.0250044297426939
0.0267458483576774
0.028970830142498
0.0316334515810012
0.0345924645662307
0.0376131534576416
0.0403639487922191
0.0424254983663558
0.043328333646059
0.0426195785403251
0.0399459898471832
0.035134095698595
0.0282468423247337
0.0196010395884513
0.0097396103665232
-0.0006314227357506
-0.0107222329825162
-0.0197487026453018
-0.0270293168723583
-0.0320685878396034
-0.0346084348857402
-0.0346457660198211
-0.0324171409010887
-0.0283543951809406
-0.0230203047394752
-0.0170321278274059
-0.0109848519787192
-0.0053882831707596
-0.00062139891088
0.003096573986113
0.0057134544476866
0.007329236716032
0.0081632286310195
0.0085047353059053
0.0086554270237684
0.0088819712400436
0.0093895178288221
0.0103107895702123
0.0117037557065486
0.0135521600022912
0.0157584119588136
0.0181267689913511
0.0203531738370656
0.0220390148460865
0.0227338802069425
0.0220049247145652
0.019520990550518
0.015131589025259
0.0089210737496614
0.0012188218533992
-0.0074397614225745
-0.0163826327770948
-0.0248812846839427
-0.0322347730398178
-0.0378506928682327
-0.0413130745291709
-0.0424279943108558
-0.0412402004003524
-0.0380191467702388
-0.0332159996032714
-0.027395712211728
-0.0211566127836704
-0.0150545621290802
-0.0095412889495491
-0.0049208616837859
-0.0013324338942766
0.0012362273409962
0.0029150759801268
0.003912566229701
0.0044780066236853
0.0048688855022192
0.0053227664902806
0.0060327341780066
0.0071296747773885
0.0086711188778281
0.0106306485831737
0.012885183095932
0.0152029227465391
0.0172411017119884
0.0185683742165565
0.018720980733633
0.0172816980630159
0.0139587726444005
0.0086527932435274
0.001503275707364
-0.0071019418537616
-0.0165642816573381
-0.0261485818773508
-0.0350753962993621
-0.0426162928342819
-0.0481780022382736
-0.0513659566640853
-0.0520227663218975
-0.050236202776432
-0.0463156700134277
-0.0407406687736511
-0.034089095890522
-0.0269619934260845
-0.0199186466634273
-0.0134250270202755
-0.0078146923333406
-0.0032648625783622
0.0002064618747681
0.002720454474911
0.0044980598613619
0.0058120032772421
0.0069427955895662
0.0081421341747045
0.0096053639426827
0.0114565715193748
0.0137442853301763
0.0164442248642444
0.019464373588562
0.022637465968728
0.0256966967135667
0.0282635185867548
0.0298765860497951
0.0300588849931955
0.0284032188355922
0.0246596187353134
0.018806979060173
0.0110877286642789
0.0019949628040194
-0.007784282322973
-0.0174564681947231
-0.026220005005598
-0.0333588011562824
-0.0383210442960262
-0.0407751090824604
-0.0406401827931404
-0.038088459521532
-0.0335115827620029
-0.0274570435285568
-0.0205500349402427
-0.01341113448143
-0.0065823001787066
-0.000474858097732
0.0046577481552958
0.0087254093959927
0.0117860455065965
0.0140126263722777
0.0156493205577135
0.0169652681797742
0.0182159524410963
0.019617261365056
0.0213269889354705
0.0234297066926956
0.0259303823113441
0.0287620220333337
0.0318010374903678
0.0348757207393646
0.0377608463168144
0.0401649996638298
0.0417268350720405
0.0420381650328636
0.0406996943056583
0.0373992100358009
0.0319927744567394
0.0245649386197328
0.0154499253258109
0.0052104014903306
-0.0054249581880867
-0.0156572293490171
-0.0247210562229156
-0.0319722220301628
-0.0369516313076019
-0.0394249074161052
-0.0393950007855892
-0.0370867997407913
-0.0329077169299125
-0.0273904725909233
-0.0211235359311103
-0.014678350649774
-0.0085467556491494
-0.0030968012288212
0.0014538951218128
0.005046890117228
0.0077649247832596
0.0097872670739889
0.0113395396620035
0.0126551259309053
0.0139481453225016
0.0153946354985237
0.0171189960092306
0.0191841218620538
0.0215888284146785
0.0242759156972169
0.0271466895937919
0.03007473051548
0.0329103618860244
0.0354668349027633
0.0374983102083206
0.0386930145323276
0.0386880002915859
0.037108089774847
0.0336372628808021
0.0281065236777067
0.0205625891685485
0.01129593513906
0.0008248419035226
-0.0101592652499675
-0.0208720471709966
-0.0305269043892622
-0.0384253710508346
-0.0440377593040466
-0.0470612831413745
-0.0474452897906303
-0.0453817397356033
-0.041265957057476
-0.0356376320123672
-0.0291121751070022
-0.0223072096705436
-0.0157717503607273
-0.0099301543086767
-0.0050485925748944
-0.0012265131808817
0.0015893657691776
0.0035743617918342
0.0049824994057416
0.0060964156873524
0.0071822609752416
0.0084579084068536
0.0100729372352361
0.0121006183326244
0.014544004574418
0.017346728593111
0.0204013641923666
0.0235631354153156
0.0266722124069929
0.0295734256505966
0.0321186520159244
0.0341457948088645
0.0354468710720539
0.03574950248003
0.0347305499017238
0.0320674106478691
0.0275145377963781
0.0209796298295259
0.0125772105529904
0.002649288624525
-0.0082490257918834
-0.0194017738103866
-0.0300205387175083
-0.0393473207950592
-0.0467439629137516
-0.0517580360174179
-0.0541659370064735
-0.0539887398481369
-0.0514761731028556
-0.0470635592937469
-0.0413106121122837
-0.034830268472433
-0.0282166954129934
-0.021979346871376
-0.0164903849363327
-0.0119556942954659
-0.0084137162193655
-0.0057608876377344
-0.0037974477745592
-0.0022764448076486
-0.0009418157860636
0.000442701857537
0.0020684720948338
0.0040634633041918
0.0064849164336919
0.0093216691166162
0.0125038921833038
0.0159207507967948
0.0194409005343914
0.0229237545281648
0.0262109525501728
0.0291010085493326
0.0313274413347244
0.032556939870119
0.0324138551950454
0.0305392611771821
0.0266776606440544
0.0207594670355319
0.0129494071006774
0.0036514368839561
-0.0065241190604865
-0.0168240219354629
-0.0264408085495233
-0.0346123166382312
-0.0407133437693119
-0.0443277098238468
-0.0452889800071716
-0.0436822772026062
-0.0398155525326728
-0.0341743342578411
-0.0273644365370273
-0.0200387425720691
-0.0128143709152936
-0.0062007466331124
-0.0005527287721633
0.0039503402076661
0.007302657701075
0.009648541919887
0.0112387472763657
0.0123746581375598
0.0133559051901102
0.0144414771348238
0.0158247184008359
0.017622897401452
0.0198808275163173
0.0225780755281448
0.0256333034485578
0.028913926333189
0.0322558209300041
0.0354865230619907
0.0384404622018337
0.0409506186842918
0.0428127162158489
0.0437472388148307
0.0433951579034328
0.0413605496287345
0.0372880324721336
0.0309554189443588
0.022358514368534
0.0117614418268203
-0.0003045303747057
-0.0130954161286354
-0.0257493536919355
-0.0373941138386726
-0.0472431853413581
-0.0546743012964725
-0.0592880919575691
-0.0609400384128093
-0.0597416721284389
-0.0560323260724544
-0.0503284409642219
-0.0432584807276725
-0.0354894734919071
-0.0276517905294895
-0.0202709771692752
-0.013717595487833
-0.0081837475299835
-0.003690212033689
-0.0001216623932123
0.0027265734970569
0.0051080556586384
0.0072907540015876
0.0095209144055843
0.011988858692348
0.0148081080988049
0.0180125422775745
0.0215666331350803
0.025381501764059
0.0293318517506122
0.033273659646511
0.0370633192360401
0.0405727252364158
0.0436885394155979
0.0462817512452602
0.0481544658541679
0.0490049086511135
0.0484449937939643
0.046066652983427
0.0415352769196033
0.034686841070652
0.0256019178777933
0.0146353486925363
0.002393546514213
-0.0103336703032255
-0.0226693972945213
-0.0337546505033969
-0.042843259871006
-0.049374021589756
-0.0530171953141689
-0.0536986142396926
-0.0516019612550735
-0.0471407622098922
-0.0408984571695327
-0.0335505530238151
-0.0257826969027519
-0.0182125009596347
-0.0113262236118316
-0.0054418817162513
-0.0006994970608502
0.0029273328837007
0.0056006321683526
0.0075737759470939
0.0091432835906744
0.0106030590832233
0.0122081777080893
0.0141484597697854
0.0165268052369356
0.0193492751568555
0.0225367452949285
0.025953147560358
0.0294356103986501
0.0328187085688114
0.0359543673694133
0.0387261360883712
0.0410507544875144
0.042860671877861
0.0440671406686306
0.0445148199796676
0.043953888118267
0.0420590490102767
0.0384979136288166
0.033016413450241
0.0255122873932123
0.0160899497568607
0.0050871949642896
-0.0069395136088132
-0.0192679800093173
-0.0310907326638698
-0.0416117906570434
-0.0501403920352458
-0.0561651736497879
-0.059404406696558
-0.0598295964300632
-0.0576581172645092
-0.0533147789537906
-0.0473681427538394
-0.0404528938233852
-0.0331953130662441
-0.0261532384902238
-0.0197702050209045
-0.014342775568366
-0.010004324838519
-0.0067295301705598
-0.0043594362214207
-0.0026410436257719
-0.0012755589559674
3.138277679681778e-05
0.0015270039439201
0.0033841170370578
0.0056910347193479
0.0084532313048839
0.0116046341136097
0.015030387789011
0.0185910928994417
0.0221373215317726
0.0255197584629058
0.028602298349142
0.0312759801745414
0.0334635451436042
0.0351010113954544
0.0360971838235855
0.0362923517823219
0.0354442223906517
0.0332578383386135
0.0294500142335891
0.0238266978412866
0.0163579173386096
0.0072325710207223
-0.0031287353485822
-0.0141129456460475
-0.0249942205846309
-0.035026341676712
-0.0435270108282566
-0.049950536340475
-0.0539435222744941
-0.0553736500442028
-0.0543323867022991
-0.0511167272925376
-0.0461888685822486
-0.0401143953204155
-0.0334902517497539
-0.0268767494708299
-0.0207409691065549
-0.0154143795371055
-0.0110686086118221
-0.0077167782001197
-0.0052431747317314
-0.0034475363790988
-0.0020866077393293
-0.0009089699015021
0.0003142617642879
0.0017634741961956
0.003552608191967
0.005723419599235
0.0082529280334711
0.0110686412081122
0.014065776951611
0.0171241015195846
0.020123453810811
0.0229578204452991
0.0255446694791317
0.0278215017169713
0.0297240316867828
0.0311506651341915
0.031929362565279
0.031808041036129
0.0304813887923955
0.0276503227651119
0.0230969507247209
0.0167546030133962
0.0087560843676328
-0.0005517899990081
-0.0106309168040752
-0.0208080671727657
-0.0303564369678497
-0.0385848805308342
-0.044914573431015
-0.0489387214183807
-0.0504670552909374
-0.0495455712080001
-0.0464429669082164
-0.0416069254279136
-0.0355997309088707
-0.0290250778198242
-0.0224555358290672
-0.0163680911064147
-0.0110996849834918
-0.006829903461039
-0.0035854126326739
-0.0012600895715877
0.0003515495918691
0.0015139956958591
0.0025096868630498
0.0035968283191323
0.0049707894213497
0.0067429477348923
0.0089407432824373
0.0115211205556988
0.0143902553245425
0.0174237098544836
0.0204859543591737
0.0234495270997285
0.0262086912989616
0.0286841318011283
0.0308155417442321
0.0325381308794021
0.0337482765316963
0.0342758074402809
0.0338834188878536
0.0322975739836692
0.0292601361870765
0.0245941672474145
0.0182727612555027
0.0104652754962444
0.0015422934666275
-0.0079593528062105
-0.0173991508781909
-0.0261077471077442
-0.0334629043936729
-0.0389606989920139
-0.0422735325992107
-0.0432837679982185
-0.0420869775116443
-0.0389659255743026
-0.0343421474099159
-0.0287202801555395
-0.0226373299956321
-0.0166116207838058
-0.0110864713788032
-0.0063824304379522
-0.002671911381185
2.444023266434669e-05
0.0018214480951428
0.0029331534169614
0.0036260453052818
0.0041746664792299
0.0048247789964079
0.0057650748640298
0.0071111842989921
0.0089048258960247
0.0111230388283729
0.0136900469660758
0.0164899975061416
0.0193831082433462
0.0222234725952148
0.0248669944703578
0.0271587893366813
0.0289065986871719
0.0298632979393005
0.0297408308833837
0.0282587446272373
0.0252105984836816
0.0205264650285244
0.01431355625391
0.006865766365081
-0.0013539935462176
-0.0097549920901656
-0.017687153071165
-0.0245282836258411
-0.0297647528350353
-0.033047366887331
-0.0342212468385696
-0.0333335623145103
-0.0306187681853771
-0.0264594741165637
-0.0213299430906772
-0.015735488384962
-0.0101552093401551
-0.0049924636259675
-0.0005391500890254
0.0030427193269133
0.0057230964303016
0.007591157220304
0.0088251326233148
0.0096476655453443
0.010282777249813
0.0109254913404583
0.0117222070693969
0.012761135585606
0.0140755884349346
0.0156564619392156
0.0174638014286756
0.0194338914006948
0.0214879754930734
0.0235406495630741
0.0254925414919853
0.0272007174789905
0.0284466687589883
0.0289319343864917
0.0283079966902732
0.0262272898107767
0.0224095489829778
0.0167174153029918
0.0092193642631173
0.0002151099033653
-0.0097845289856195
-0.0201128982007503
-0.0300237759947776
-0.0387781448662281
-0.0457303933799266
-0.050402358174324
-0.0525348037481308
-0.0521090999245643
-0.0493357479572296
-0.0446121282875537
-0.0384648852050304
-0.0314905866980552
-0.0242908652871847
-0.0174033157527446
-0.0112443082034587
-0.0060744937509298
-0.0019875336438417
0.0010778121650218
0.0033033899962902
0.0049458146095275
0.0062911752611398
0.0076125673949718
0.0091349836438894
0.0110157169401645
0.0133402906358242
0.0161278285086154
0.0193364769220352
0.0228670611977577
0.0265756472945213
0.0302933696657419
0.0338337831199169
0.0369772389531135
0.0394457057118415
0.0408932976424694
0.0409307070076465
0.039185456931591
0.0353822037577629
0.0294169746339321
0.0214056596159935
0.0116992928087711
0.0008643418550491
-0.0103695848956704
-0.0211903117597103
-0.0308035928755998
-0.038530383259058
-0.0438775420188903
-0.0465789809823036
-0.0466115623712539
-0.0441841930150985
-0.039701085537672
-0.0337041690945625
-0.0268014688044786
-0.0195946190506219
-0.0126167740672826
-0.0062839183956384
-0.0008621010929346
0.0035456754267215
0.006989013403654
0.0096352193504571
0.0117198936641216
0.013498306274414
0.0152073800563812
0.0170411169528961
0.0191367305815219
0.0215679723769426
0.0243460405617952
0.0274269375950098
0.0307222567498683
0.0341144874691963
0.0374729074537754
0.0406555905938148
0.0434874035418033
0.0457255691289901
0.0470424816012382
0.0470430999994277
0.0453151948750019
0.041508961468935
0.035429798066616
0.0271137095987796
0.0168643146753311
0.0052413186058402
-0.0070000393316149
-0.0190020389854908
-0.029905691742897
-0.0389449447393417
-0.0455291457474231
-0.0493050143122673
-0.0501846820116043
-0.0483350232243537
-0.0441379100084304
-0.0381385833024978
-0.0309859346598386
-0.0233569703996181
-0.0158752053976058
-0.0090430155396461
-0.0031975973397493
0.0015049800276756
0.0050787478685379
0.0076791159808635
0.009561862796545
0.0110312551259994
0.0123882144689559
0.0138917006552219
0.0157340075820684
0.0180276967585086
0.0208048410713672
0.0240235775709152
0.0275779776275157
0.0313153266906738
0.0350590087473392
0.0386234819889068
0.0418085567653179
0.0443716123700141
0.0459955260157585
0.0462860837578773
0.0448213294148445
0.041239395737648
0.0353303216397762
0.027107773348689
0.0168478079140186
0.005085133947432
-0.0074357907287776
-0.0198488738387823
-0.0312747694551944
-0.0409240946173667
-0.0481799431145191
-0.0526546947658062
-0.0542193092405796
-0.0530029349029064
-0.0493624024093151
-0.0438281707465648
-0.0370370969176292
-0.0296588148921728
-0.022320419549942
-0.0155377611517906
-0.0096668815240263
-0.0048835361376404
-0.0011880283709615
0.00156428408809
0.0036104037426412
0.0052252160385251
0.0066802706569433
0.00821462739259
0.0100127067416906
0.0121883749961853
0.014779794961214
0.0177564769983291
0.0210330914705991
0.0244852732867002
0.0279659572988748
0.0313213169574737
0.0343983434140682
0.0370328277349472
0.0390209145843982
0.0400904193520545
0.0398956984281539
0.0380567349493503
0.0342365503311157
0.0282309129834175
0.0200469326227903
0.0099489670246839
-0.0015454106032848
-0.0137172173708677
-0.0257294289767742
-0.0367263816297054
-0.0459322333335876
-0.0527358762919902
-0.0567565485835075
-0.0578788332641124
-0.0562478750944137
-0.0522357635200023
-0.0463943481445312
-0.0393910482525825
-0.0319238565862178
-0.024631654843688
-0.0180222243070602
-0.0124291935935616
-0.0079982168972492
-0.0046992944553494
-0.0023605590686202
-0.0007156291976571
0.0005434397608041
0.0017150109633803
0.0030484618619084
0.0047244913876056
0.0068516777828335
0.0094652660191059
0.0125233046710491
0.0159125067293643
0.0194706693291664
0.023012988269329
0.0263411104679107
0.0292263403534889
0.0313851796090602
0.0324759036302566
0.0321292579174041
0.0300079509615898
0.0258801821619272
0.0196893792599439
0.0116018485277891
0.0020196363329887
-0.0084447246044874
-0.0190336741507053
-0.02894171141088
-0.0374160557985305
-0.0438395515084266
-0.0477935336530208
-0.0490982569754123
-0.0478253290057182
-0.0442809723317623
-0.0389614999294281
-0.0324838757514953
-0.0254994146525859
-0.0186072513461112
-0.0122883655130863
-0.0068687666207551
-0.0025042351335287
0.0008177319541573
0.0032504564151167
0.0050356797873973
0.006446891464293
0.0077449232339859
0.0091465283185243
0.0108059756457805
0.0128101874142885
0.0151820592582225
0.0178873613476753
0.0208446532487869
0.0239387471228837
0.0270359180867671
0.0299941711127758
0.0326574929058551
0.0348299480974674
0.036245934665203
0.0365605875849723
0.0353754423558712
0.0323045849800109
0.0270668547600507
0.019573725759983
0.0099879652261734
-0.0012624841183423
-0.0135211199522018
-0.0259777307510375
-0.0377615205943584
-0.0480400845408439
-0.0561125129461288
-0.061483658850193
-0.0639129281044006
-0.0634307786822319
-0.0603172332048416
-0.0550530292093753
-0.0482579506933689
-0.0406164675951004
-0.0327926687896251
-0.0253519583493471
-0.0187062583863735
-0.0130868852138519
-0.0085446340963244
-0.0049754744395613
-0.0021648565307259
0.0001601895783096
0.0022819656878709
0.0044521815143525
0.0068638795055449
0.009638630785048
0.0128269800916314
0.0164116714149713
0.020309904590249
0.0243847444653511
0.0284699779003858
0.0323969721794128
0.0360088683664798
0.0391507409512996
0.0416361801326274
0.0432143472135067
0.0435669794678688
0.0423436947166919
0.039228405803442
0.0340212993323802
0.0267111845314502
0.0175202041864395
0.0069114528596401
-0.0044522513635456
-0.0157929714769125
-0.0263161715120077
-0.0352991744875907
-0.0421624258160591
-0.0465214885771274
-0.0482168048620224
-0.0473181828856468
-0.0441040396690368
-0.039019875228405
-0.0326218158006668
-0.0255107451230287
-0.0182651914656162
-0.0113814491778612
-0.0052257552742958
-4.784669727087021e-06
0.0042341751977801
0.0075729335658252
0.010181313380599
0.0122803002595901
0.0141082368791103
0.0158893354237079
0.0178067591041326
0.0199821330606937
0.0224678944796323
0.0252542756497859
0.0282821096479892
0.0314546674489975
0.0346498861908912
0.0377355962991714
0.0405856184661388
0.0430884473025798
0.0451329611241817
0.0465667471289634
0.0471560321748256
0.0465832091867923
0.0444899275898933
0.0405504703521728
0.034554298967123
0.0264789909124374
0.016536371782422
0.0051780147477984
-0.0069437772035598
-0.0190517902374267
-0.0303376335650682
-0.0400534979999065
-0.0475913397967815
-0.0525418780744075
-0.0547309070825576
-0.054233007133007
-0.0513549633324146
-0.0465871281921863
-0.0405343100428581
-0.0338381715118885
-0.0270993299782276
-0.0208102706819772
-0.0153116174042224
-0.0107769034802913
-0.0072226994670927
-0.0045351306907832
-0.0025047785602509
-0.0008684696513228
0.0006482942262664
0.0022964242380112
0.0042713438160717
0.0066835582256317
0.0095458645373582
0.0127845853567123
0.0162665918469429
0.019829923287034
0.0233109798282384
0.0265653878450393
0.0294808112084865
0.031981237232685
0.0340196341276168
0.0355519503355026
0.0364932008087635
0.0366761647164821
0.0358444899320602
0.0336937084794044
0.0299405641853809
0.0243948847055435
0.0170240774750709
0.0079995328560471
-0.002291826531291
-0.0132771544158458
-0.0242617204785347
-0.0345118008553981
-0.0433372743427753
-0.0501644611358642
-0.0545969307422637
-0.0564569123089313
-0.0557992234826087
-0.0528952553868293
-0.0481876544654369
-0.0422237962484359
-0.0355863496661186
-0.0288336928933858
-0.0224466621875762
-0.0167826078832149
-0.0120492540299892
-0.0083021158352494
-0.0054604765027761
-0.0033366777934134
-0.0016744137974455
-0.0001933539751917
0.0013656199444085
0.0032036441843956
0.0054430803284049
0.0081231566146016
0.0112091451883316
0.014613764360547
0.0182194970548152
0.0218899231404066
0.0254785344004631
0.0288452971726655
0.0318722948431968
0.0344620421528816
0.0365125089883804
0.0378791391849517
0.0383474081754684
0.0376406870782375
0.0354689434170722
0.0316006541252136
0.0259342137724161
0.0185515377670526
0.0097437109798192
6.51925802230835e-07
-0.0100406389683485
-0.0196787416934967
-0.0282355975359678
-0.0351318754255771
-0.0399459488689899
-0.0424525626003742
-0.0426362231373786
-0.040680069476366
-0.0369349718093872
-0.031872596591711
-0.0260274093598127
-0.019934594631195
-0.0140703786164522
-0.008803866803646
-0.0043664998374879
-0.0008396049961447
0.0018343802075833
0.0038145980797708
0.0053144642151892
0.0065621575340628
0.0077712996862828
0.0091185569763183
0.0107288407161831
0.012668726965785
0.0149466376751661
0.0175194721668958
0.0203037895262241
0.0231879279017448
0.0260447338223457
0.0287438035011291
0.0311534479260444
0.0331224650144577
0.0344482399523258
0.034855056554079
0.0340090654790401
0.0315773338079452
0.0273123774677515
0.021132843568921
0.0131751634180545
0.0038026967085897
-0.006425242871046
-0.0168141834437847
-0.0266163386404514
-0.0351197347044944
-0.0417277142405509
-0.0460207685828208
-0.0477953739464283
-0.0470738001167774
-0.0440914742648601
-0.0392701029777526
-0.0331677757203578
-0.0264026578515768
-0.0195694472640752
-0.0131690260022878
-0.0075606568716466
-0.0029413788579404
0.0006492165848612
0.003306069644168
0.0052225501276552
0.0066472291946411
0.0078424708917737
0.0090485205873847
0.0104564214125275
0.0121943205595016
0.0143207479268312
0.0168206915259361
0.0196133814752101
0.0225734300911426
0.0255554392933845
0.0284162070602178
0.031031347811222
0.0332942605018615
0.0350884273648262
0.0362466536462307
0.0365240983664989
0.0356072671711444
0.0331653915345668
0.0289278533309698
0.0227638240903615
0.0147447129711508
0.0051685036160051
-0.0054629235528409
-0.0164986718446016
-0.0272090472280979
-0.0368650555610656
-0.044818989932537
-0.0505734533071517
-0.0538303256034851
-0.0545134879648685
-0.0527632944285869
-0.0489091537892818
-0.0434245616197586
-0.0368675515055656
-0.0298156328499317
-0.022801749408245
-0.0162568446248769
-0.0104748522862792
-0.0056080091744661
-0.00167843606323
0.0014047930017113
0.0038199871778488
0.0057990355417132
0.0075902389362454
0.0094195762649178
0.0114578735083341
0.0138062182813882
0.0164984986186027
0.0195089299231767
0.0227611735463142
0.0261425338685512
0.0295222233980894
0.0327703841030597
0.0357697494328022
0.0384076423943042
0.0405472218990325
0.0419915132224559
0.0424642600119113
0.0416300781071186
0.0391529574990272
0.0347726419568061
0.0283793453127145
0.0200703702867031
0.0101716481149196
-0.0007833206327632
-0.0121100265532732
-0.023049471899867
-0.0328495986759662
-0.0408438965678215
-0.0465247444808483
-0.0496027395129203
-0.0500348806381225
-0.0480140708386898
-0.0439289063215255
-0.0383058190345764
-0.0317407734692096
-0.0248273331671953
-0.0180918201804161
-0.0119447195902466
-0.0066528394818305
-0.0023341346532106
0.0010288516059517
0.0035633547231554
0.0054737003520131
0.0070084105245769
0.008426041342318
0.0099541135132312
0.0117524480447173
0.0138983707875013
0.0163931231945753
0.0191786512732505
0.0221580117940902
0.0252155344933271
0.0282337814569473
0.0311056394129991
0.0337407253682613
0.0360593199729919
0.0379635021090507
0.0392948128283023
0.0398073382675647
0.0391785986721515
0.0370595641434192
0.0331487171351909
0.0272714365273714
0.019445626065135
0.0099174221977591
-0.0008416641503572
-0.0121785812079906
-0.0233344752341508
-0.0335343033075332
-0.0420748814940452
-0.0484006330370903
-0.0521604008972644
-0.0532398708164691
-0.051764003932476
-0.0480687022209167
-0.0426467657089233
-0.0360807627439498
-0.0289781261235475
-0.02191230840981
-0.0153670832514762
-0.0096903629601001
-0.005069232545793
-0.0015293299220502
0.0010450440458953
0.0028750281780958
0.0042435778304934
0.0054486510343849
0.0067560565657913
0.0083640050143003
0.0103882011026144
0.0128636285662651
0.015757193788886
0.0189819615334272
0.0224065445363521
0.0258685126900672
0.0291965752840042
0.032229084521532
0.0348118282854557
0.0367704890668392
0.0378773435950279
0.0378430783748626
0.0363486781716346
0.0331078469753265
0.0279404260218143
0.020838726311922
0.0120075941085815
0.0018670754507184
-0.0089795775711536
-0.0198101419955492
-0.0298715308308601
-0.0384690687060356
-0.0450405701994895
-0.0492101535201072
-0.0508186593651771
-0.0499318279325962
-0.0468270853161811
-0.0419546663761138
-0.0358751602470874
-0.0291876830160617
-0.0224608778953552
-0.0161727648228406
-0.0106672756373882
-0.0061318250373005
-0.002596793230623
3.9816368371248245e-05
0.0019695411901921
0.0034309043549001
0.0046744444407522
0.0059311618097126
0.0073865349404513
0.0091649889945983
0.0113239595666527
0.0138575723394751
0.0167092327028512
0.0197865515947341
0.0229723341763019
0.0261262524873018
0.0290708877146244
0.0315677486360073
0.0333072245121002
0.0339278019964695
0.0330600515007972
0.0303940623998641
0.0257625356316566
0.0192097444087266
0.0110182967036962
0.001686951611191
-0.0081276334822177
-0.0176871810108423
-0.0262548960745334
-0.033177088946104
-0.0379544757306575
-0.0402955561876297
-0.0401439070701599
-0.0376735813915729
-0.0332546792924404
-0.0274007301777601
-0.0207101013511419
-0.0137988440692424
-0.007224362809211
-0.001420174492523
0.0033405725844204
0.006953751668334
0.0094715058803558
0.0110721662640571
0.0120172733440995
0.0126036200672388
0.0131184142082929
0.0138019043952226
0.0148222865536808
0.0162677951157093
0.0181536190211772
0.0204342883080244
