bvp
0.0173106361180543
0.0201527997851371
0.0231088399887084
0.0260319765657186
0.0287208016961812
0.0308966487646102
0.0322003252804279
0.0322205163538455
0.0305569358170032
0.0269055794924497
0.0211369711905717
0.0133443959057331
0.0038590030744671
-0.0067667374387383
-0.0178091078996658
-0.0284515917301177
-0.0378779806196689
-0.0453651398420333
-0.0503639206290245
-0.0525601059198379
-0.0519049279391765
-0.0486063957214355
-0.0430877171456813
-0.0359256416559219
-0.0277729965746402
-0.0192742142826318
-0.0109957735985517
-0.0033834902569651
0.0032619475387036
0.008796339854598
0.0132264997810125
0.0166872758418321
0.0194010678678751
0.0216263141483068
0.0236114393919706
0.025564968585968
0.027640227228403
0.0299276746809482
0.0324510782957077
0.0351698324084281
0.0379887744784355
0.0407701209187507
0.0433325916528701
0.0454284511506557
0.0467187091708183
0.0467782914638519
0.0451435521245002
0.0413942635059356
0.0352492779493331
0.026649322360754
0.0158047061413526
0.0031957980245351
-0.0104710003361105
-0.0243377927690744
-0.0374875217676162
-0.0490451902151107
-0.0582736581563949
-0.0646468624472618
-0.0678949803113937
-0.0680213794112205
-0.0652864351868629
-0.0601602308452129
-0.0532548762857914
-0.0452459976077079
-0.0367949083447456
-0.0284841191023588
-0.0207699332386255
-0.0139519460499286
-0.0081633711233735
-0.0033845189027488
0.0005245860666036
0.003780594561249
0.0066344947554171
0.0093382112681865
0.0121133271604776
0.0151184378191828
0.0184273831546306
0.0220286436378955
0.0258430391550064
0.0297484006732702
0.0335977338254451
0.0372203215956687
0.0404049158096313
0.0428762845695018
0.044283390045166
0.0442192964255809
0.0422802045941352
0.0381489470601081
0.0316821858286857
0.0229805335402488
0.0124145504087209
0.0005935113877058
-0.0117062963545322
-0.0236277841031551
-0.0343218222260475
-0.0430368930101394
-0.0491996966302394
-0.0524709783494472
-0.0527707561850547
-0.0502728857100009
-0.0453702993690967
-0.0386188887059688
-0.0306685436517
-0.0221858285367488
-0.0137776657938957
-0.0059305503964424
0.0010209786705672
0.0068960031494498
0.0116540715098381
0.0153761282563209
0.0182368848472833
0.0204679723829031
0.0223172456026077
0.0240136850625276
0.0257428064942359
0.0276310089975595
0.0297395214438438
0.0320686101913452
0.0345668345689773
0.0371405184268951
0.039663590490818
0.0419808998703956
0.0438900738954544
0.0451081544160842
0.0452597960829734
0.0439158864319324
0.0406738817691803
0.0352496355772018
0.0275554396212101
0.0177502147853374
0.0062512494623661
-0.0062988717108964
-0.0191025771200656
-0.0312972664833068
-0.042049616575241
-0.0506449118256568
-0.0565614998340606
-0.059519775211811
-0.05950428545475
-0.0567590817809104
-0.0517493784427642
-0.0450930260121822
-0.037477895617485
-0.0295780189335346
-0.0219795275479555
-0.0151273254305124
-0.0092963445931673
-0.004587457049638
-0.0009468476055189
0.0017976134549826
0.0038917805068194
0.0056085078977048
0.0072057014331221
0.0088965157046914
0.0108305104076862
0.0130814714357256
0.015646668151021
0.0184604302048683
0.021414503455162
0.0243734754621982
0.0271720942109823
0.0295936428010463
0.0313496477901935
0.0320842936635017
0.0314131677150726
0.0289898440241813
0.0245826598256826
0.0181425455957651
0.0098485024645924
0.000118370167911
-0.0104266330599784
-0.021037233993411
-0.0309262946248054
-0.039356306195259
-0.0457199066877365
-0.0496046282351017
-0.0508297234773635
-0.0494522638618946
-0.045748047530651
-0.0401726439595222
-0.0333032198250293
-0.0257663279771804
-0.0181635189801454
-0.0110061876475811
-0.0046674492768943
0.0006450819782912
0.004889010451734
0.0081563163548707
0.0106277540326118
0.0125314649194478
0.0141089959070086
0.0155851589515805
0.0171434208750724
0.0189111046493053
0.0209560617804527
0.0232921577990055
0.0258856881409883
0.0286556798964738
0.0314664542675018
0.0341130495071411
0.0363058112561702
0.0376698598265647
0.0377722531557083
0.0361774787306785
0.0325252190232276
0.0266152713447809
0.0184752997010946
0.0083943689242005
-0.0030851266346871
-0.0152198281139135
-0.0271520353853702
-0.0380094423890113
-0.0470028705894947
-0.0535142794251441
-0.0571632459759712
-0.0578377917408943
-0.0556843653321266
-0.0510672703385353
-0.0445154272019863
-0.0366638153791427
-0.02818563580513
-0.0197180937975645
-0.0117951864376664
-0.0048014954663813
0.0010481975041329
0.0057081831619143
0.0092821307480335
0.011984184384346
0.0140886222943663
0.0158805456012487
0.0176157485693693
0.0194924473762512
0.0216378178447484
0.0241105332970619
0.0269085261970758
0.0299707558006048
0.0331779904663562
0.0363576188683509
0.0392823815345764
0.0416572391986846
0.0431098714470863
0.0432082116603851
0.0415151603519916
0.0376724898815155
0.0314919203519821
0.023023746907711
0.0125836040824651
0.0007371134124696
-0.0117511255666613
-0.0239973999559879
-0.0351001545786857
-0.0442508161067962
-0.0508310087025165
-0.0544748343527317
-0.055091556161642
-0.0528542138636112
-0.0481609888374805
-0.0415759347379207
-0.0337555110454559
-0.0253702718764543
-0.0170337744057178
-0.0092487949877977
-0.0023746988736093
0.0033876884263008
0.0079988129436969
0.0115669388324022
0.0143087785691022
0.0164896212518215
0.0183678604662418
0.0201620645821094
0.0220376010984182
0.024101722985506
0.0264026466757059
0.0289331991225481
0.0316389426589012
0.0344299487769603
0.0371890850365161
0.0397643111646175
0.0419442728161811
0.0434349812567234
0.0438625179231166
0.0428140796720981
0.0399053506553173
0.0348558202385902
0.0275636948645114
0.018166285008192
0.0070619070902466
-0.0051176189444959
-0.0175759140402078
-0.0294456537812948
-0.0398902371525764
-0.0482010319828987
-0.0538775101304054
-0.056677721440792
-0.0566324107348918
-0.0540220998227596
-0.0493233613669872
-0.0431388914585113
-0.03612657263875
-0.0289310738444328
-0.0221168007701635
-0.0161112006753683
-0.0111705418676137
-0.0073719262145459
-0.0046282419934868
-0.0027214079163968
-0.0013484642840921
-0.0001716222614049
0.0011350179556757
0.0028459322638809
0.0051554245874285
0.0081621315330266
0.0118702268227934
0.0162055660039186
0.0210318751633167
0.0261551514267921
0.031317476183176
0.0361872725188732
0.0403582341969013
0.0433680042624473
0.0447430200874805
0.0440699942409992
0.0410781539976596
0.0357084237039089
0.0281514413654804
0.0188460312783718
0.0084400875493884
-0.0022789211943745
-0.0124709121882915
-0.021335307508707
-0.0282034650444984
-0.0326212160289287
-0.0344010218977928
-0.0336286649107933
-0.0306280404329299
-0.0259007774293422
-0.0200549382716417
-0.0137306377291679
-0.0075276885181665
-0.0019410285167396
0.0026848819106817
0.0061733801849186
0.0085077844560146
0.0098061542958021
0.0102843455970287
0.0102146472781896
0.0098822228610515
0.0095392800867557
0.0093708867207169
0.0094860093668103
0.0099263368174433
0.0106788538396358
0.0116873662918806
0.0128574892878532
0.0140449050813913
0.0150300385430455
0.0155009757727384
0.015067140571773
0.0133112911134958
0.0098687624558806
0.0045134015381336
-0.0027714716270565
-0.0117592569440603
-0.0219931341707706
-0.0328338854014873
-0.043525330722332
-0.0532716624438762
-0.061325266957283
-0.067073255777359
-0.0701050534844398
-0.0702510625123977
-0.0675922334194183
-0.0624419823288917
-0.0553008280694484
-0.0467896685004234
-0.0375729836523532
-0.0282809380441904
-0.0194415040314197
-0.0114392060786485
-0.0045039253309369
0.0012833825312554
0.0059745502658188
0.0097264647483825
0.0127656124532222
0.0153507180511951
0.0177363641560077
0.0201411582529544
0.0227254629135131
0.025578923523426
0.0287154167890548
0.0320762172341346
0.0355384424328804
0.0389182791113853
0.0419611483812332
0.0443252138793468
0.0455801784992218
0.045244850218296
0.0428679026663303
0.0381292030215263
0.0309278443455696
0.0214342307299375
0.010098110884428
-0.0023877555504441
-0.0151627780869603
-0.0272994022816419
-0.0379102453589439
-0.0462458096444606
-0.0517734363675117
-0.0542241744697093
-0.0535985082387924
-0.0501445606350898
-0.0443229004740715
-0.0367509201169014
-0.0281253177672624
-0.0191402826458215
-0.0104162339121103
-0.0024419352412223
0.0044652298092842
0.0101709635928273
0.0147075820714235
0.0182382855564355
0.021011222153902
0.0233123339712619
0.0254218224436044
0.0275784656405448
0.0299576744437217
0.0326599813997745
0.0357039719820022
0.0390267148613929
0.0424941889941692
0.0459152460098266
0.0490465015172958
0.051582746207714
0.0531486198306083
0.0533156096935272
0.0516541302204132
0.0478129684925079
0.0416062362492084
0.0330827385187149
0.0225584506988525
0.0106046944856643
-0.0020045912824571
-0.0143813006579875
-0.0256353300064802
-0.0349828675389289
-0.0418289564549922
-0.04582030326128
-0.0468677207827568
-0.0451367273926734
-0.0410103909671306
-0.0350324772298336
-0.0278380177915096
-0.0200793240219354
-0.0123582063242793
-0.0051727620884776
0.0011194599792361
0.0063228933140635
0.0104047507047653
0.0134683828800916
0.0157070830464363
0.0173581652343273
0.0186667777597904
0.0198568552732467
0.0211096554994583
0.0225510336458683
0.0242467802017927
0.0262061692774295
0.0283887851983308
0.0307077690958976
0.0330253094434738
0.0351377092301845
0.036757007241249
0.0375102162361145
0.0369737409055233
0.0347369313240051
0.0304769463837146
0.0240358412265777
0.0154860904440283
0.0051607992500066
-0.0063634547404944
-0.0183266513049602
-0.0298759508877992
-0.0401681251823902
-0.0484667010605335
-0.0542241781949996
-0.0571377985179424
-0.0571701861917972
-0.0545381605625152
-0.0496734268963336
-0.0431578420102596
-0.0356475263833999
-0.0278023798018693
-0.0202234834432601
-0.0133949276059865
-0.0076383589766919
-0.0030959823634475
0.0002576238475739
0.002586152870208
0.0041481032967567
0.0052454005926847
0.0061763417907059
0.0071979230269789
0.0085003189742565
0.010194394737482
0.0123112183064222
0.0148140499368309
0.0176092348992824
0.0205377768725156
0.023354697972536
0.0257181748747825
0.0272046625614166
0.0273569636046886
0.0257588643580675
0.0221197456121444
0.0163493268191814
0.0086040599271655
-0.0007061911746859
-0.0109533118084073
-0.0213615447282791
-0.0310995820909738
-0.0393773205578327
-0.0455344505608081
-0.0491137653589248
-0.0499104782938957
-0.0479883700609207
-0.0436610728502273
-0.0374412946403026
-0.0299660172313451
-0.0219117943197488
-0.013912203721702
-0.0064886813051998
-6.901536835357547e-06
0.0053377896547317
0.0095114996656775
0.0126164313405752
0.0148547766730189
0.0164872128516435
0.0177917014807462
0.0190232750028371
0.02037731744349
0.0219697766005992
0.0238388404250144
0.0259568747133016
0.0282428860664367
0.0305687598884105
0.032752800732851
0.034543078392744
0.0356064103543758
0.0355424843728542
0.033931478857994
0.0304083414375782
0.0247487239539623
0.0169473681598901
0.0072648581117391
-0.0037804041057825
-0.0154755655676126
-0.0270028039813041
-0.0375296548008918
-0.046296626329422
-0.0526984818279743
-0.0563473179936409
-0.0571064241230487
-0.0550921894609928
-0.0506491288542747
-0.0443002693355083
-0.0366759449243545
-0.028433509171009
-0.0201823934912681
-0.0124244019389152
-0.0055154166184365
0.0003464666660875
0.0051077436655759
0.0088346563279628
0.0116855762898921
0.0138780502602458
0.0156527273356914
0.0172402821481227
0.0188350193202495
0.02057939581573
0.0225583370774984
0.024797873571515
0.027267949655652
0.0298883523792028
0.0325297303497791
0.035004086792469
0.0370482429862022
0.0383116826415061
0.0383691936731338
0.0367773473262786
0.033166442066431
0.0273354183882474
0.0193232409656047
0.0094409165903925
-0.0017475755885243
-0.0134918149560689
-0.0249485317617654
-0.0352827757596969
-0.0437641814351081
-0.0498478338122367
-0.053229484707117
-0.0538642033934593
-0.0519453361630439
-0.0478592403233051
-0.0421316847205162
-0.0353649854660034
-0.0281675495207309
-0.0210878606885671
-0.0145630007609725
-0.0088870432227849
-0.0041994070634245
-0.0004905494861304
0.0023754690773785
0.0046227346174418
0.0065172356553375
0.0083236573264002
0.0102700851857662
0.0125243570655584
0.0151858981698751
0.0182846002280712
0.0217791739851236
0.0255635231733322
0.0294858384877443
0.0333698242902755
0.0370238423347473
0.0402295105159282
0.0427177585661411
0.0441574677824974
0.0441780239343643
0.0424259230494499
0.0386384837329387
0.0327144972980022
0.0247644241899251
0.0151297049596905
0.0043678218498826
-0.0068009132519364
-0.0175804495811462
-0.0271971002221107
-0.0349860414862632
-0.040458045899868
-0.0433435626327991
-0.0436106286942958
-0.0414553433656692
-0.0372668989002704
-0.0315715409815311
-0.0249639172106981
-0.0180366802960634
-0.0113166365772485
-0.0052153458818793
-1.8440186977386483e-07
0.0042135864496231
0.0074492106214165
0.0098370369523763
0.011576727963984
0.012899350374937
0.0140309957787394
0.0151638761162757
0.016438104212284
0.0179329439997673
0.0196677967905998
0.0216111093759536
0.0236931201070547
0.0258197281509637
0.027885453775525
0.0297804921865463
0.0313833318650722
0.0325375162065029
0.0330244004726409
0.0325549468398094
0.0308037996292114
0.0274804327636957
0.0224061496555805
0.0155750373378396
0.0071885306388139
-0.0023464113473892
-0.0124550005421042
-0.022456606850028
-0.0316412970423698
-0.0393530018627643
-0.0450673624873161
-0.0484515652060508
-0.0493941307067871
-0.0479999557137489
-0.0445641316473484
-0.0395353808999061
-0.0334614589810371
-0.0269184149801731
-0.0204406324774026
-0.0144635755568742
-0.0092862695455551
-0.0050583640113472
-0.001789107453078
0.0006285086274147
0.0023822472430765
0.0036997040733695
0.0048109693452715
0.0059183379635214
0.0071769384667277
0.0086901579052209
0.0105099128559231
0.0126310922205448
0.0149893872439861
0.0174751803278923
0.0199537295848131
0.0222706906497478
0.0242400355637073
0.0256280079483985
0.0261482633650302
0.0254834815859794
0.0233365837484598
0.0194950699806213
0.013891115784645
0.006646329537034
-0.0019106641411781
-0.0112615916877985
-0.0207528676837682
-0.0296792574226856
-0.0373742096126079
-0.0432858914136886
-0.04703164473176
-0.0484308116137981
-0.0475161224603652
-0.0445210970938205
-0.0398427918553352
-0.0339860096573829
-0.0274990852922201
-0.0209099985659122
-0.014670924283564
-0.0091200750321149
-0.0044614248909056
-0.0007578427903354
0.0020557781681418
0.0041348012164235
0.0056799231097102
0.0069038439542055
0.0080088833346962
0.0091688828542828
0.0105151757597923
0.0121274851262569
0.014029131270945
0.0161888096481561
0.0185310281813144
0.0209513865411281
0.0233290940523147
0.0255278926342725
0.0273820348083972
0.028675653040409
0.0291289873421192
0.0284059233963489
0.0261568296700716
0.0220955833792686
0.0160850379616022
0.0081996386870741
-0.0012515753041952
-0.0117451902478933
-0.0225997902452945
-0.0330540761351585
-0.0423535145819187
-0.0498360656201839
-0.0550070106983184
-0.0575895905494689
-0.0575397908687591
-0.0550283007323741
-0.0504083409905433
-0.0441768988966941
-0.0369189530611038
-0.0292362291365861
-0.0216772444546222
-0.0146808717399835
-0.0085412915796041
-0.0033972207456827
0.0007590241730213
0.0040564965456724
0.0067087626084685
0.0089726140722632
0.0111079458147287
0.013342872262001
0.0158493556082248
0.0187314413487911
0.0220202505588531
0.025672324001789
0.0295782685279846
0.0335849076509475
0.0375227071344852
0.0412246026098728
0.0445226430892944
0.0472222566604614
0.049073476344347
0.0497627854347229
0.0489372983574867
0.0462596081197261
0.0414825417101383
0.0345242172479629
0.0255212113261222
0.0148473875597119
0.0030909795314073
-0.0090108346194028
-0.0206600353121757
-0.0310848727822303
-0.0396187528967857
-0.045767780393362
-0.0492575019598007
-0.0500499904155731
-0.0483300499618053
-0.0444673672318458
-0.0389657877385616
-0.0324070081114769
-0.0253875590860843
-0.0184520315378904
-0.0120347794145345
-0.0064216051250696
-0.0017411056905984
0.0020158756524324
0.004965778440237
0.0073006618767976
0.0092536713927984
0.0110630821436643
0.0129403695464134
0.0150464382022619
0.0174769163131713
0.020258355885744
0.0233574323356151
0.026696853339672
0.0301702003926038
0.033654648810625
0.0370171293616294
0.0401024743914604
0.0427000522613525
0.0445090383291244
0.0451354384422302
0.0441359356045722
0.0410984605550766
0.0357385650277137
0.0279865525662899
0.018042467534542
0.0063844472169876
-0.0062716361135244
-0.0190511494874954
-0.0310233607888221
-0.0413111485540866
-0.0491892844438552
-0.0541571155190467
-0.0559828132390975
-0.05472257360816
-0.0507093667984008
-0.0445018336176872
-0.036800779402256
-0.0283544287085533
-0.0198695939034223
-0.011939238756895
-0.0049921795725822
0.0007339864969253
0.0051947385072708
0.0085128583014011
0.010930610820651
0.0127540975809097
0.0143032753840088
0.0158736370503902
0.0177093558013439
0.019983310252428
0.0227800421416759
0.0260880384594202
0.0298102535307407
0.0337899141013622
0.0378354452550411
0.0417255647480487
0.0451911464333534
0.0478905141353607
0.0494014248251915
0.0492491200566291
0.0469760075211524
0.0422368198633194
0.0348913110792636
0.0250730812549591
0.0132184717804193
4.126131534576416e-05
-0.0135459611192345
-0.0265414044260978
-0.0379704535007476
-0.0469947382807731
-0.0530008301138877
-0.0556582435965538
-0.0549435168504715
-0.0511288717389106
-0.0447371564805507
-0.0364693216979503
-0.0271154008805751
-0.0174622368067502
-0.0082083530724048
0.0001052729785442
0.0071387561038136
0.0127609223127365
0.0170218329876661
0.0201082695275545
0.0222975257784128
0.0239111501723527
0.0252698622643947
0.0266537554562091
0.028272122144699
0.0302487611770629
0.0326229594647884
0.0353604964911937
0.0383711829781532
0.0415282733738422
0.0446798652410507
0.0476420558989048
0.0501694083213806
0.0519141070544719
0.0524090155959129
0.0511082895100116
0.0474831387400627
0.0411439388990402
0.0319549180567264
0.0201073307543993
0.0061316201463341
-0.0091486405581235
-0.0247077271342277
-0.0394358038902282
-0.052264716476202
-0.0622866861522197
-0.0688534453511238
-0.0716403275728225
-0.0706643611192703
-0.0662619993090629
-0.0590392723679542
-0.0497970096766948
-0.039432656019926
-0.0288317650556564
-0.0187680535018444
-0.0098299467936158
-0.0023831091821193
0.0034353761002421
0.007698880508542
0.0106510203331708
0.0126474890857934
0.0140913743525743
0.0153721012175083
0.0168164670467376
0.0186606347560882
0.0210384242236614
0.0239755287766456
0.0273948721587657
0.0311406478285789
0.0350139662623405
0.0388039499521255
0.0422969907522201
0.0452557951211929
0.0473812296986579
0.0482865013182163
0.0475096888840198
0.0445728786289691
0.0390756465494632
0.0307991839945316
0.0197961386293172
0.0064417980611324
-0.0085752811282873
-0.0243266131728887
-0.0397565513849258
-0.0538026988506317
-0.0655082911252975
-0.0741227716207504
-0.0791789963841438
-0.0805307030677795
-0.0783475413918495
-0.073076993227005
-0.0653807297348976
-0.056050531566143
-0.0459146313369274
-0.0357501246035099
-0.0262093804776668
-0.0177635736763477
-0.0106764193624258
-0.0050156079232692
-0.0006867889314889
0.0025266781449317
0.0049226898699998
0.0068364590406417
0.0085927601903676
0.010462436825037
0.0126336812973022
0.0152010526508092
0.0181709565222263
0.0214789174497127
0.0250107776373624
0.0286218635737895
0.0321532636880874
0.0354417003691196
0.038304753601551
0.040495965629816
0.0416662395000457
0.0413726978003978
0.0391396582126617
0.0345526561141014
0.027361761778593
0.0175672993063926
0.0054663829505443
-0.0083494093269109
-0.02304407954216
-0.0376264452934265
-0.0510646626353263
-0.0624061785638332
-0.0708824396133422
-0.075984813272953
-0.0775093883275985
-0.0755718126893043
-0.0705842673778534
-0.0631911009550094
-0.0541780292987823
-0.0443733260035514
-0.0345542430877685
-0.0253700371831655
-0.0172890983521938
-0.0105738416314125
-0.0052833557128906
-0.0013012671843171
0.0016172835603356
0.0037923650816082
0.0055702570825815
0.0072814123705029
0.0092021720483899
0.0115203522145748
0.0143169835209846
0.017571659758687
0.0211838595569133
0.0250016748905181
0.0288488026708364
0.0325349681079387
0.0358412079513073
0.0384897515177726
0.0401247516274452
0.0403299406170845
0.0386890135705471
0.0348721146583557
0.0287257581949234
0.0203436482697725
0.0100935464724898
-0.0014088060706853
-0.0133640393614768
-0.0248769074678421
-0.0350576043128967
-0.0431216955184936
-0.0484763234853744
-0.0507851429283618
-0.0500007718801498
-0.0463577844202518
-0.0403317362070083
-0.0325721502304077
-0.0238170847296714
-0.0148035213351249
-0.0061860457062721
0.0015299542574211
0.0080277137458324
0.0131801106035709
0.0170237440615892
0.0197229068726301
0.0215269234031438
0.0227241963148117
0.0236015357077121
0.0244137030094862
0.025363240391016
0.0265890043228864
0.0281601268798112
0.030073782429099
0.0322607308626174
0.0345992445945739
0.0369257852435112
0.0390276201069355
0.0406179577112197
0.0413167886435985
0.0406669937074184
0.0381982512772083
0.0335254371166229
0.0264507215470075
0.0170390084385871
0.0056485934183001
-0.0070890951901674
-0.0203357599675655
-0.0331448651850223
-0.0445745065808296
-0.0537965558469295
-0.0601882673799991
-0.0633941292762756
-0.0633492916822433
-0.0602713301777839
-0.0546295344829559
-0.0470850132405757
-0.0384018048644065
-0.0293499920517206
-0.0206191409379243
-0.0127513110637664
-0.0061009582132101
-0.0008229352533817
0.0031161054503172
0.0059069418348371
0.007849539630115
0.0092936623841524
0.0105820223689079
0.0120085980743169
0.0137952119112014
0.0160776656121015
0.0188951194286346
0.022192234173417
0.0258399806916713
0.0296648200601339
0.0334726609289646
0.0370517373085022
0.0401467718183994
0.0424258261919021
0.0434742830693721
0.0428336113691329
0.0400785021483898
0.0349098369479179
0.0272397454828023
0.0172521956264972
0.0054227584041655
-0.0075190048664808
-0.0206794086843729
-0.0331112742424011
-0.0439201146364212
-0.0523582845926284
-0.0578993894159793
-0.0602840222418308
-0.0595327578485012
-0.0559261441230773
-0.0499576441943645
-0.0422706268727779
-0.0335853546857833
-0.0246176160871982
-0.0160006210207939
-0.0082245497033
-0.0015986179932951
0.0037583718076348
0.0078953616321086
0.0109885185956954
0.0132975848391652
0.0151191595941782
0.0167399886995553
0.0184021480381488
0.0202846899628639
0.0224976316094398
0.0250836461782455
0.0280234720557928
0.0312445610761642
0.0346332713961601
0.0380435287952423
0.0412927940487861
0.0441426932811737
0.0462710671126842
0.0472586899995803
0.046621348708868
0.0438914932310581
0.0387214608490467
0.0309789385646581
0.0208153817802667
0.0086887925863265
-0.0046714153140783
-0.0183492582291364
-0.0313534885644912
-0.0427344664931297
-0.0516916885972023
-0.0576579011976718
-0.0603476762771606
-0.0597672313451767
-0.0561945624649524
-0.050138983875513
-0.0422789230942726
-0.0333777517080307
-0.0241904109716415
-0.0153798209503293
-0.0074570560827851
-0.0007494315505027
0.0046065561473369
0.0086512826383113
0.0115707963705062
0.0136528983712196
0.0152341276407241
0.0166445225477218
0.0181638095527887
0.0199982244521379
0.0222705155611038
0.0250128991901874
0.0281683877110481
0.0316087529063224
0.035162515938282
0.0386372730135917
0.0418232157826423
0.0444735325872898
0.0462750792503356
0.0468384027481079
0.045728925615549
0.0425379835069179
0.0369760990142822
0.0289640631526708
0.0186963658779859
0.0066562858410179
-0.0064270789735019
-0.0196670796722173
-0.0321238413453102
-0.0429065711796283
-0.0512680746614933
-0.0566828921437263
-0.0588986054062843
-0.0579521022737026
-0.0541502572596073
-0.0480218902230262
-0.0402467027306556
-0.0315691977739334
-0.0227131061255931
-0.0143092377111315
-0.00683846604079
-0.0005929851904511
0.0043320190161466
0.0080126486718654
0.0106502566486597
0.0125207062810659
0.0139278369024395
0.0151661494746804
0.0164915472269058
0.0180984623730182
0.0201071538031101
0.0225600153207778
0.0254239998757839
0.0286033451557159
0.0319574400782585
0.0353052578866481
0.0384087413549423
0.0409497283399105
0.0425224378705024
0.0426573194563388
0.0408842638134956
0.0368271693587303
0.0303040221333503
0.0214031636714935
0.0105127990245819
-0.0017047228757292
-0.0143852513283491
-0.0265659764409065
-0.0373020768165588
-0.0457781441509723
-0.0513991639018058
-0.0538520850241184
-0.0531292557716369
-0.0495083816349506
-0.0435012429952621
-0.0357873663306236
-0.0271325949579477
-0.0182963628321886
-0.0099461413919925
-0.0025929580442607
0.0034462560433894
0.0080571342259645
0.011310352012515
0.0134245995432138
0.0147152785211801
0.0155359469354152
0.0162232350558042
0.0170552544295787
0.0182305797934532
0.0198646355420351
0.0219893269240856
0.0245534721761941
0.027435690164566
0.0304697975516319
0.0334669053554534
0.036216240376234
0.0384605191648006
0.0398681126534938
0.0400333032011985
0.0385171025991439
0.0349209234118461
0.0289763994514942
0.0206308662891387
0.010104477405548
-0.0020990641787648
-0.0152299348264932
-0.0283750854432582
-0.0405762568116188
-0.0509508475661277
-0.0587879717350006
-0.0636168718338012
-0.0652469769120216
-0.0637722983956337
-0.0595413893461227
-0.0531038120388984
-0.0451421290636062
-0.0363929122686386
-0.0275631844997406
-0.0192562881857156
-0.0119183026254177
-0.0058066779747605
-0.000984716694802
0.0026513261254876
0.0053217117674648
0.0073103327304124
0.0089201284572482
0.0104352459311485
0.0120879039168357
0.0140362977981567
0.0163606479763984
0.019071152433753
0.0221188589930534
0.0254100263118743
0.0288201346993446
0.0321971550583839
0.0353503748774528
0.0380270034074783
0.039891242980957
0.0405285879969596
0.0394859164953231
0.0363453030586242
0.0308193210512399
0.0228424277156591
0.0126290908083319
0.0006791707128286
-0.0122695714235305
-0.0253255199640989
-0.0375455282628536
-0.0480422005057334
-0.0560822486877441
-0.0611619874835014
-0.0630515217781066
-0.0618023350834846
-0.0577188357710838
-0.0513085685670375
-0.0432259403169155
-0.0342039577662944
-0.0249693561345338
-0.0161594543606042
-0.0082619041204452
-0.0015819033142179
0.0037656500935554
0.0078395176678895
0.0108346464112401
0.0130329057574272
0.0147513831034302
0.0162954833358526
0.0179227087646722
0.0198206026107072
0.0220984127372503
0.0247859228402376
0.0278338436037302
0.031122300773859
0.0344838201999664
0.0377332083880901
0.0406890995800495
0.0431728921830654
0.0449834838509559
0.0458658076822757
0.0454988703131675
0.0435209646821022
0.0395924001932144
0.0334801934659481
0.0251407120376825
0.0147755499929189
0.0028440840542316
-0.0099738221615552
-0.0228593181818723
-0.0349562689661979
-0.0454668812453746
-0.0537315011024475
-0.0592894628643989
-0.0619149692356586
-0.0616277195513248
-0.0586808212101459
-0.0535250343382358
-0.0467519536614418
-0.0390223450958728
-0.0309887751936912
-0.0232266504317522
-0.0161810852587223
-0.010132111608982
-0.0051873745396733
-0.001304340083152
0.0016716469544917
0.0039676195010542
0.0058456901460886
0.0075662387534976
0.0093550235033035
0.0113820927217602
0.0137524474412202
0.0165022239089012
0.0195994041860103
0.0229531750082969
0.0264325030148029
0.0298865716904401
0.0331565178930759
0.0360704287886619
0.0384191423654556
0.0399265326559543
0.0402436628937721
0.0389869026839733
0.0358130186796188
0.0305074080824852
0.0230608135461807
0.0137141775339841
0.0029580444097518
-0.0085143614560365
-0.0198882836848497
-0.0303256288170814
-0.0390649959444999
-0.0455081239342689
-0.049278125166893
-0.0502452403306961
-0.0485275499522686
-0.0444718115031719
-0.0386082977056503
-0.0315782502293586
-0.0240496601909399
-0.0166404396295547
-0.0098579637706279
-0.0040575661696493
0.0005770702846348
0.004029375500977
0.0064254123717546
0.0079970294609665
0.009036011993885
0.0098438505083322
0.0106896571815013
0.01178540289402
0.0132722556591033
0.0152084520086646
0.0175644010305404
0.0202362984418869
0.0230746436864137
0.0259118787944316
0.0285742860287427
0.0308703035116195
0.0325630828738212
0.0333528816699981
0.0328923538327217
0.0308360867202281
0.026910725980997
0.0209878757596015
0.0131426164880394
0.00368432700634
-0.006856357678771
-0.0177901964634656
-0.0283566750586032
-0.0378069654107093
-0.0454775467514991
-0.0508557558059692
-0.0536298118531703
-0.0537178590893745
-0.0512716881930828
-0.04665108025074
-0.0403746105730533
-0.0330545306205749
-0.0253218151628971
-0.0177543330937623
-0.0108175706118345
-0.0048227151855826
8.627260103821754e-05
0.0039148698560893
0.0067861806601285
0.0089052822440862
0.0105196461081504
0.0118805412203073
0.0132114924490451
0.0146845551207661
0.0164062548428773
0.0184168703854084
0.0207000542432069
0.0231945645064115
0.0258045960217714
0.0284110978245735
0.0308863092213869
0.0331051535904407
0.0349340103566646
0.0361905507743358
0.03660798817873
0.0358421616256237
0.0335241891443729
0.0293384063988924
0.0231055505573749
0.0148538313806056
0.0048581883311271
-0.0063676596619188
-0.0181237421929836
-0.0296047404408454
-0.0399941727519035
-0.0485579669475555
-0.0547225475311279
-0.0581278838217258
-0.0586566887795925
-0.0564421415328979
-0.0518463030457496
-0.0454062968492507
-0.0377601161599159
-0.0295666605234146
-0.021431278437376
-0.0138474218547344
-0.00716198887676
-0.0015642726793885
0.0029068947769701
0.0063434028998017
0.0089387986809015
0.0109497504308819
0.0126533163711428
0.0143112409859895
0.0161392055451869
0.0182765834033489
0.0207710824906826
0.0235874541103839
0.0266298372298479
0.0297688413411378
0.03286749497056
0.0357970781624317
0.0384417176246643
0.0406915545463562
0.0424173437058925
0.0434336066246032
0.0434774234890937
0.0422248393297195
0.0393471531569957
0.0345917046070098
0.0278583224862813
0.0192474797368049
0.0090780388563871
-0.0021238615736365
-0.0136717045679688
-0.0247963815927505
-0.0347337685525417
-0.0428075306117534
-0.0485018901526927
-0.0515155866742134
-0.0517882667481899
-0.0494969710707664
-0.045024886727333
-0.0389084368944168
-0.031769435852766
-0.0242382884025573
-0.0168836824595928
-0.010164737701416
-0.0044029559940099
0.0002327719703316
0.0037235566414892
0.0061793364584445
0.0078075886704027
0.008876028470695
0.0096699362620711
0.0104522258043289
0.0114348959177732
0.01276271417737
0.0145069658756256
0.0166676342487335
0.0191849172115325
0.0219602901488542
0.0248762220144271
0.0278036836534738
0.0306017138063907
0.0331100784242153
0.0351296439766883
0.0364027507603168
0.0366157591342926
0.0354311056435108
0.0325433015823364
0.0277504865080118
0.0210237056016922
0.0125497784465551
0.0027378017548471
-0.00780970742926
-0.0183590948581695
-0.0281291492283344
-0.0363829024136066
-0.0425193794071674
-0.0461455881595611
-0.047109767794609
-0.0454983301460742
-0.0416106544435024
-0.0359180346131324
-0.02900474332273
-0.0214960537850856
-0.0139867989346385
-0.0069814384914934
-0.0008515394292771
0.004186762496829
0.0080761928111314
0.0109033258631825
0.0128653496503829
0.0142233222723007
0.0152516616508364
0.0161966234445571
0.0172506589442491
0.0185398589819669
0.0201225616037845
0.0219977740198373
0.0241178777068853
0.0264020282775163
0.0287492778152227
0.0310475435107946
0.0331717506051063
0.0349651835858821
0.0362093858420848
0.0366090834140777
0.0358172878623008
0.0334926731884479
0.0293663721531629
0.0233086049556732
0.0153864892199635
0.0058957366272807
-0.0046487441286444
-0.0155666274949908
-0.026095688343048
-0.0354826524853706
-0.0430686958134174
-0.0483614206314086
-0.0510821156203746
-0.0511836223304271
-0.0488415881991386
-0.0444222763180732
-0.0384326390922069
-0.0314625352621078
-0.0241249445825815
-0.0169944390654563
-0.0105486810207366
-0.0051211426034569
-0.000872756820172
0.0022073253057897
0.0042704218067228
0.0055604041554033
0.0063640656881034
0.0069678989239037
0.0076247444376349
0.0085296668112277
0.0098052602261304
0.0115006417036056
0.013602215796709
0.0160430241376161
0.0187065526843071
0.0214375369250774
0.0240604281425476
0.0263859089463949
0.0281959287822246
0.0292233452200889
0.02915009111166
0.0276361741125583
0.0243768077343702
0.019174488261342
0.012005497701466
0.0030607534572482
-0.0072478959336876
-0.0183142442256212
-0.0293951742351055
-0.0396970845758914
-0.0484768226742744
-0.0551314055919647
-0.0592595040798187
-0.0606927126646041
-0.0594985708594322
-0.055957056581974
-0.0505159646272659
-0.0437318794429302
-0.036202784627676
-0.0285025518387556
-0.0211280658841133
-0.0144628025591373
-0.0087543474510312
-0.004102783743292
-0.0004636580124497
0.0023253741674125
0.0044960542581975
0.0062980675138533
0.0079626785591244
0.009682853706181
0.0116003705188632
0.0137968305498361
0.0162939578294754
0.019062478095293
0.0220334772020578
0.0251110270619392
0.0281855277717113
0.0311417318880558
0.0338521040976047
0.0361522361636161
0.0378128886222839
0.0385322049260139
0.037959549576044
0.0357495881617069
0.0316383354365825
0.0255212597548961
0.0175079796463251
0.00793968886137
-0.0026312950067222
-0.0134968440979719
-0.0238748788833618
-0.0330025218427181
-0.0402257405221462
-0.0450709722936153
-0.0472880527377128
-0.0468633510172367
-0.0440038628876209
-0.0390986800193786
-0.0326706953346729
-0.0253213457763195
-0.017665296792984
-0.0102620441466569
-0.0035599190741777
0.0021369298920035
0.0066803935915231
0.0100743686780333
0.0124537954106926
0.014046617783606
0.0151279503479599
0.0159766674041748
0.0168388802558183
0.0179042406380176
0.0192987248301506
0.0210834257304668
0.0232495889067649
0.0257193110883235
0.0283631440252065
0.0310277454555034
0.0335584208369255
0.0358060970902442
0.0376147329807281
0.0387949682772159
0.0391007252037525
0.0382302850484848
0.0358657129108905
0.0317419320344924
0.0257202237844467
0.0178472008556127
0.0083879819139838
-0.0021806256845593
-0.013220646418631
-0.0240081399679183
-0.0338142812252044
-0.0419860854744911
-0.0480158329010009
-0.0515880919992923
-0.0526043139398098
-0.051183633506298
-0.0476377494633197
-0.0424265898764133
-0.0361024849116802
-0.0292467083781957
-0.0224049370735883
-0.0160303767770528
-0.0104433512315154
-0.0058169336989521
-0.0021880138665437
0.000520278699696
0.0024739997461438
0.0038982406258583
0.0050399955362081
0.0061324066482484
0.0073678973130881
0.0088815838098526
0.0107434764504432
0.012957845814526
0.0154710654169321
0.0181882176548242
0.0209922343492507
0.0237547755241394
0.0263287369161844
0.0285214520990848
0.0300668179988861
0.030625220388174
0.0298264510929584
0.027346484363079
0.0229920968413352
0.0167669486254453
0.0089038163423538
-0.0001440292689949
-0.0097503587603569
-0.0191895104944705
-0.0277217142283916
-0.0346793532371521
-0.0395429022610187
-0.0419938266277313
-0.0419362410902977
-0.039495512843132
-0.0350025743246078
-0.0289538390934467
-0.0219435058534145
-0.014585698954761
-0.007442532107234
-0.0009667109698057
0.0045350240543484
0.0089163817465305
0.0121866650879383
0.0144868362694978
0.0160469058901071
0.0171364322304725
0.0180232860147953
0.0189444217830896
0.0200878754258155
0.0215801857411861
0.0234726872295141
0.0257371179759502
0.028279885649681
0.0309658572077751
0.0336380004882812
0.0361203141510486
0.0381991304457187
0.0395991466939449
0.0399802327156066
0.0389664098620414
0.0362038351595401
0.0314385220408439
0.0245937760919332
0.0158230904489755
0.0055227167904376
-0.0057018646039068
-0.0171066895127296
-0.0278979521244764
-0.037323247641325
-0.0447548404335975
-0.0497547835111618
-0.0521131716668605
-0.0518551617860794
-0.0492216013371944
-0.0446325838565826
-0.0386373549699783
-0.0318502485752105
-0.0248771756887435
-0.0182464309036731
-0.0123562328517436
-0.0074430718086659
-0.0035781739279627
-0.0006927060894668
0.0013841539621353
0.0028839651495218
0.0040567386895418
0.0051356488838791
0.0063142934814095
0.0077355345711112
0.0094875767827034
0.0116035975515842
0.014066182076931
0.0168153420090675
0.0197552386671304
0.0227550119161605
0.0256375148892402
0.0281577613204717
0.0299843475222587
0.0307044871151447
0.0298736989498138
0.0271058939397335
0.0221703667193651
0.0150644443929195
0.0060471901670098
-0.0043713306076824
-0.0154827209189534
-0.0264632496982812
-0.0364709869027137
-0.0447422415018081
-0.0506755970418453
-0.053893432021141
-0.0542740486562252
-0.0519491657614707
-0.0472713857889175
-0.0407672375440597
-0.0330771207809448
-0.0248758271336555
-0.0167882740497589
-0.0093227867037057
-0.0028298599645495
0.0025145635008811
0.00670224474743
0.0098648322746157
0.0122307045385241
0.0140760047361254
0.0156808104366064
0.0172953829169273
0.0191169828176498
0.0212769974023103
0.0238328408449888
0.0267627462744712
0.0299740508198738
0.0333268940448761
0.0366571992635726
0.0397821478545665
0.0424836426973342
0.0444827526807785
0.0454288870096206
0.0449229851365089
0.0425784178078174
0.038103774189949
0.0313810557126998
0.0225195977836847
0.0118782613426446
5.00046880915761e-05
-0.0121983559802174
-0.0240218434482812
-0.0346003510057926
-0.0432278402149677
-0.0493806786835193
-0.0527621544897556
-0.0533220246434211
-0.0512482821941375
-0.0469300523400306
-0.0409018918871879
-0.0337809473276138
-0.0261982828378677
-0.0187286995351314
-0.0118323983624577
-0.0058174366131424
-0.0008253036066889
0.0031561618670821
0.0062549975700676
0.0086699444800615
0.0106335962191224
0.0123834535479545
0.0141346268355846
0.0160562582314014
0.0182575583457946
0.0207845941185951
0.023624237626791
0.0267096422612667
0.0299283452332019
0.033132828772068
0.0361387953162193
0.0387071445584297
0.040531150996685
0.0412455089390277
0.0404609069228172
0.0378284640610218
0.0331251583993434
0.0263303313404321
0.0176665391772985
