bvp
-0.0127099566161632
-0.0082884263247251
-0.0045449025928974
-0.0012596431188285
0.0018023448064923
0.0048549100756645
0.0080666998401284
0.0115478346124291
0.0153390318155288
0.0194051377475261
0.0236462000757455
0.027924234047532
0.0320879518985748
0.0359832569956779
0.0394457727670669
0.0422790944576263
0.0442335195839405
0.0450043864548206
0.0442631505429744
0.0417195111513137
0.0371942780911922
0.0306801963597536
0.022379508242011
0.012708923779428
0.0022625948768109
-0.0082593876868486
-0.0181319694966077
-0.0266781877726316
-0.033333096653223
-0.0376984328031539
-0.0395814999938011
-0.0390090979635715
-0.0362118482589721
-0.0315838679671287
-0.0256282798945903
-0.0188971869647502
-0.011930102482438
-0.0051958719268441
0.0009526973590254
0.0063024740666151
0.0107769295573234
0.0144129190593957
0.0173315722495317
0.0197079423815011
0.0217374097555875
0.0236049182713031
0.0254645906388759
0.0274273119866848
0.0295526087284088
0.0318481847643852
0.0342783108353614
0.0367763750255107
0.0392573438584804
0.0416240394115448
0.0437591709196567
0.0455031134188175
0.0466278232634067
0.0468266382813453
0.0457417294383049
0.0430306792259216
0.0384491011500358
0.0319231264293193
0.023595018312335
0.0138326976448297
0.0031997745390981
-0.0076082851737737
-0.0178467892110347
-0.0268071759492158
-0.0338958650827407
-0.0386996120214462
-0.0410246960818767
-0.0409017130732536
-0.0385668873786926
-0.0344305969774723
-0.0290259141474962
-0.0229378696531057
-0.0167298335582017
-0.010878512635827
-0.0057270526885986
-0.0014649620279669
0.0018678144551813
0.0043605053797364
0.0061978809535503
0.0076166968792676
0.0088611543178558
0.010146178305149
0.0116341840475797
0.013426711782813
0.0155627690255641
0.018017753958702
0.0207094550132751
0.0235139597207307
0.0262805428355932
0.0288325641304254
0.0309523604810237
0.0323646180331707
0.0327409394085407
0.0317367278039455
0.0290524829179048
0.0245034210383892
0.01807994954288
0.0099805304780602
0.0006083995103836
-0.0094627412036061
-0.0195501148700714
-0.028943795710802
-0.0369896925985813
-0.0431584045290946
-0.0470962263643741
-0.0486556738615036
-0.0479025393724441
-0.0450975373387336
-0.0406547933816909
-0.0350855998694896
-0.0289353132247924
-0.0227191261947155
-0.016865786164999
-0.0116791576147079
-0.0073204012587666
-0.0038099030498415
-0.0010524900862947
0.0011185454204678
0.0028981734067201
0.0044791279360651
0.0060304137878119
0.0076822368428111
0.0095188664272427
0.0115779526531696
0.0138537436723709
0.0163038484752178
0.0188587307929992
0.0214291457086801
0.0239025633782148
0.0261224061250686
0.0278601497411727
0.0288046803325414
0.0285836532711982
0.026815241202712
0.0231834426522254
0.017520397901535
0.0098708057776093
0.000520153902471
-0.0100204516202211
-0.0210697501897811
-0.0318587608635425
-0.0416218861937522
-0.0496833324432373
-0.0555295012891292
-0.0588559135794639
-0.0595842823386192
-0.0578553974628448
-0.0540001168847084
-0.0484918542206287
-0.0418883860111236
-0.0347670465707778
-0.02765997312963
-0.0210009757429361
-0.0150907281786203
-0.0100821796804666
-0.0059869135729968
-0.0026994450017809
-3.245193511247635e-05
0.0022440333850681
0.0043637189082801
0.0065297316759824
0.0088912826031446
0.0115364650264382
0.0144992871209979
0.0177672933787107
0.0212797150015831
0.0249266251921653
0.0285587944090366
0.0319953858852386
0.0350131541490554
0.0373250246047973
0.0385767854750156
0.0383818708360195
0.0363885797560215
0.0323588214814662
0.0262367762625217
0.018189962953329
0.0086125275120139
-0.0019075041636824
-0.0126489009708166
-0.0228394120931625
-0.0317477211356163
-0.038766399025917
-0.0434715934097766
-0.0456550978124141
-0.045332308858633
-0.0427266992628574
-0.038229513913393
-0.0323450453579425
-0.0256331171840429
-0.0186494924128055
-0.011885892599821
-0.0057213027030229
-0.0003938674926757
0.0040091853588819
0.00754264742136
0.0103676877915859
0.0126980226486921
0.0147525928914546
0.0167267341166734
0.0187754668295383
0.0210041143000125
0.0234679486602544
0.0261767916381359
0.0290974210947752
0.0321570560336113
0.0352534390985965
0.0382627621293067
0.041031714528799
0.0433537997305393
0.0449485331773757
0.0454687885940074
0.044542159885168
0.0418326295912265
0.0371138229966163
0.0303434841334819
0.0217123851180076
0.0116451121866703
0.0007562059909105
-0.01022011321038
-0.0205129887908697
-0.0294010620564222
-0.0362912416458129
-0.04078109562397
-0.0426958873867988
-0.0420945733785629
-0.0392475724220275
-0.0345926471054554
-0.0286773182451725
-0.0220959987491369
-0.015424164943397
-0.0091537246480584
-0.0036429651081562
0.0009074844419956
0.0044529801234602
0.0070833163335919
0.0089879063889384
0.0104156751185655
0.0116336178034543
0.0128862485289573
0.0143641177564859
0.0161877404898405
0.0184061806648969
0.021006591618061
0.0239256266504526
0.027054488658905
0.0302363969385623
0.0332560837268829
0.0358260199427604
0.0375843532383441
0.0381217077374458
0.0370419509708881
0.0340417437255382
0.0289857983589172
0.021959364414215
0.0132829388603568
0.0034841271117329
-0.0067608091048896
-0.0166970882564783
-0.0255671367049217
-0.0326970145106315
-0.0375833958387374
-0.03995356336236
-0.0397855527698993
-0.0372955650091171
-0.0329002514481544
-0.0271580778062343
-0.0206958428025245
-0.0141302859410643
-0.0079978592693805
-0.002703359350562
0.0015074962284415
0.0045517110265791
0.0064937490969896
0.0075169494375586
0.0078866947442293
0.0079066064208745
0.0078678214922547
0.0080054569989442
0.0084778722375631
0.0093643618747591
0.0106716798618435
0.0123486313968896
0.0143057648092508
0.0164296254515647
0.0185827109962701
0.0205855257809162
0.0221888870000839
0.0230631362646818
0.0228273011744022
0.021116629242897
0.0176701098680496
0.012409989722073
0.0054862108081579
-0.0027215313166379
-0.0116361752152442
-0.0205439459532499
-0.028677687048912
-0.0353106223046779
-0.0398458167910575
-0.0418887287378311
-0.0412899032235145
-0.0381509475409984
-0.0327990874648094
-0.0257385447621345
-0.0175840184092521
-0.0089823883026838
-0.0005351912695914
0.0072580524720251
0.0140297831967473
0.0195607151836156
0.0237833317369222
0.0267637465149164
0.028666915372014
0.0297162737697362
0.0301542673259973
0.0302072316408157
0.0300588514655828
0.0298371091485023
0.0296149998903274
0.0294210836291313
0.0292534045875072
0.0290921702980995
0.0289090238511562
0.0286601595580577
0.0282495971769094
0.0274826325476169
0.0260514840483665
0.0235703531652688
0.0196466632187366
0.0139675866812467
0.0063826255500316
-0.0030367001891136
-0.0139756575226783
-0.0258978679776191
-0.0381044745445251
-0.0498196706175804
-0.0602817870676517
-0.068821832537651
-0.0749281495809555
-0.0783009380102157
-0.0788868367671966
-0.0768766552209854
-0.07266466319561
-0.0667839646339416
-0.0598321855068206
-0.0523989051580429
-0.0450055971741676
-0.0380621664226055
-0.031839832663536
-0.0264620408415794
-0.0219149924814701
-0.0180742479860782
-0.0147415064275264
-0.0116843720898032
-0.0086726304143667
-0.0055133402347564
-0.0020842317026108
0.0016505110543221
0.0056492709554731
0.0098131503909826
0.0140071902424097
0.0180797595530748
0.0218696407973766
0.0251907221972942
0.0278039928525686
0.0294063575565814
0.0296570546925067
0.0282351411879062
0.0249102879315614
0.0196130685508251
0.0124885905534029
0.0039090113714337
-0.005565820261836
-0.0152581557631492
-0.0244475454092025
-0.032444592565298
-0.0386579856276512
-0.0426474995911121
-0.0441614873707294
-0.0431565642356872
-0.0397930890321731
-0.0344054624438285
-0.027454599738121
-0.0194715745747089
-0.0110002402216196
-0.0025433804839849
0.0054840063676238
0.0127844037488102
0.0191846452653408
0.0246277749538421
0.0291597433388233
0.0329123064875602
0.0360771119594574
0.038869559764862
0.0414918437600135
0.0441068783402442
0.0468250662088394
0.0496987476944923
0.0527192391455173
0.0558120235800743
0.0588256977498531
0.0615191981196403
0.0635615885257721
0.0645513236522674
0.0640556886792182
0.0616750828921794
0.0571244806051254
0.0503079257905483
0.0413647182285785
0.0306760370731353
0.0188311897218227
0.0065637459047138
-0.0053304526954889
-0.0160832665860652
-0.0250395182520151
-0.0317262709140777
-0.0358984693884849
-0.0375510230660438
-0.0368954986333847
-0.0343182943761348
-0.030331116169691
-0.0255080554634332
-0.0204127393662929
-0.0155304968357086
-0.011218181811273
-0.0076786377467215
-0.0049593281000852
-0.002971390960738
-0.0015249131247401
-0.0003744682762771
0.0007331673987209
0.0020190884824842
0.0036462214775383
0.0057087051682174
0.0082341693341732
0.0111873345449566
0.0144692407920956
0.0179177038371562
0.0213064886629581
0.0243394263088703
0.0266486033797264
0.0278119221329689
0.0274009630084037
0.0250546056777238
0.020557552576065
0.0139011247083544
0.0053128227591514
-0.0047493055462837
-0.0156354792416095
-0.0265705473721027
-0.0367396920919418
-0.0453848540782928
-0.0518976971507072
-0.0558869540691375
-0.0572058409452438
-0.0559447184205055
-0.0524011775851249
-0.0470326989889144
-0.0403959676623344
-0.0330809541046619
-0.0256461203098297
-0.0185618102550506
-0.0121698603034019
-0.0066652158275246
-0.0021005431190133
0.0015930039808154
0.004576270468533
0.0070647117681801
0.0092850169166922
0.0114352535456418
0.0136585170403122
0.0160333309322595
0.0185781903564929
0.0212649721652269
0.0240340251475572
0.0268025435507297
0.0294574908912181
0.0318298302590847
0.0336662679910659
0.0346254408359527
0.0343097224831581
0.0323286727070808
0.028382021933794
0.0223373491317033
0.0142798759043216
0.0045283734798431
-0.0063831359148025
-0.0177576467394828
-0.0288124941289424
-0.0387674085795879
-0.0469308346509933
-0.0527739152312278
-0.055983230471611
-0.0564846955239772
-0.0544375404715538
-0.0502037666738033
-0.0442950241267681
-0.0373007580637931
-0.0298122130334377
-0.022361671552062
-0.0153839820995926
-0.0091902231797575
-0.0039497101679444
0.0003100214526057
0.00368243153207
0.0063487468287348
0.0085408315062522
0.0105039682239294
0.0124620338901877
0.014590373262763
0.0170011706650257
0.0197401922196149
0.0227899961173534
0.0260788351297378
0.0294958651065826
0.0328998491168022
0.0361054651439189
0.0388562120497226
0.0408097170293331
0.0415525697171688
0.0406498573720455
0.0377239845693111
0.0325443558394908
0.0251016560941934
0.0156441759318113
0.0046680346131324
-0.0071339206770062
-0.0189528129994869
-0.0299564804881811
-0.0393774136900901
-0.0465877279639244
-0.0511620789766311
-0.0529238209128379
-0.0519585683941841
-0.0485880337655544
-0.0433125644922256
-0.0367363542318344
-0.0294902008026838
-0.02216237783432
-0.0152433272451162
-0.0090878717601299
-0.0038957493379712
0.0002875076606869
0.0035496279597282
0.0060788230039179
0.0081269294023513
0.0099700931459665
0.011864248663187
0.0140000404790043
0.0164766442030668
0.0193048119544982
0.0224277265369892
0.0257446356117725
0.0291294679045677
0.0324417240917682
0.0355245657265186
0.0381857007741928
0.0401731133460998
0.0411686971783638
0.0408135280013084
0.0387642905116081
0.0347699970006942
0.0287485420703887
0.0208361372351646
0.0113940862938761
0.0009788126917555
-0.0097139868885278
-0.0199229456484317
-0.0289026629179716
-0.0360068455338478
-0.0407641641795635
-0.0429297089576721
-0.0425017885863781
-0.0397073291242122
-0.0349624156951904
-0.0288132615387439
-0.0218648537993431
-0.0147065930068492
-0.0078470287844538
-0.0016721598803997
0.003569446504116
0.0077677299268543
0.0109451627358794
0.0132371205836534
0.0148579441010952
0.0160605330020189
0.0170976854860782
0.0181920565664768
0.0195154212415218
0.0211738180369138
0.0232005883008241
0.0255612470209598
0.0281667690724134
0.0308874323964118
0.0335566587746143
0.0359530821442604
0.0377713553607463
0.0386176593601703
0.0380513928830623
0.0356618836522102
0.031156176701188
0.0244387406855821
0.0156652368605136
0.0052520437166094
-0.0061629549600183
-0.0177939087152481
-0.0287976209074258
-0.0383711978793144
-0.0458447262644767
-0.050750732421875
-0.0528607778251171
-0.0521972849965095
-0.0490258783102035
-0.0438182540237903
-0.0371833555400371
-0.0297828875482082
-0.022248663008213
-0.015114520676434
-0.0087722856551408
-0.0034531715791672
0.0007698843255639
0.0039628739468753
0.0062980358488857
0.0080146705731749
0.0093792686238884
0.0106486408039927
0.0120414895936846
0.0137165179476141
0.0157541092485189
0.0181521028280258
0.0208412911742925
0.0237094834446907
0.0266220569610595
0.0294318981468677
0.0319714359939098
0.0340257249772548
0.0353048294782638
0.0354433059692382
0.0340384319424629
0.0307194013148546
0.0252322200685739
0.0175211019814014
0.0077835377305746
-0.0035231802612543
-0.015730258077383
-0.028040712699294
-0.0396213196218013
-0.0496886298060417
-0.0575836040079593
-0.0628338530659675
-0.0651988163590431
-0.0646866858005523
-0.0615400746464729
-0.0561982467770576
-0.0492402203381061
-0.0413117930293083
-0.0330474488437175
-0.0250001233071088
-0.0175890959799289
-0.0110756494104862
-0.005567502696067
-0.0010392861440777
0.002640713006258
0.0056777112185955
0.0083134826272726
0.0107895648106932
0.0133141344413161
0.0160375572741031
0.01904140971601
0.0223395358771085
0.0258857496082782
0.0295877009630203
0.0333259105682373
0.0369738899171352
0.0404145158827304
0.0435364730656147
0.0461996793746948
0.0481914766132831
0.0492072142660617
0.0488688722252845
0.046777069568634
0.0425896272063255
0.0361137501895427
0.027383703738451
0.0166979059576988
0.0046065850183367
-0.0081445146352052
-0.0207004491239786
-0.0321975164115428
-0.041860643774271
-0.0490818433463573
-0.0534752085804939
-0.0549108907580375
-0.0535216480493545
-0.0496727041900157
-0.0439002066850662
-0.0368349999189376
-0.0291273724287748
-0.0213822461664676
-0.0141060836613178
-0.0076647750101983
-0.0022600246593356
0.0020665968768298
0.0054078572429716
0.0079577807337045
0.0099756997078657
0.0117448307573795
0.0135266277939081
0.0155195388942956
0.0178356543183326
0.0205013118684291
0.0234739519655704
0.0266631375998258
0.0299489609897136
0.0331991128623485
0.0362863205373287
0.0391000099480152
0.0415433198213577
0.043511014431715
0.0448527447879314
0.0453407503664493
0.0446687266230583
0.0424955859780311
0.03851930052042
0.0325529240071773
0.0245882235467433
0.0148392245173454
0.0037524942308664
-0.0080263633280992
-0.0197258237749338
-0.0305421985685825
-0.0397349447011947
-0.0467106141149997
-0.0510841831564903
-0.0527118854224681
-0.0516960397362709
-0.0483615733683109
-0.0432052128016948
-0.036826055496931
-0.0298514086753129
-0.0228710696101188
-0.0163845978677272
-0.0107593294233083
-0.0062028523534536
-0.0027588757220655
-0.0003258171491324
0.0013088886626064
0.0024237013421952
0.003315482288599
0.0042571984231472
0.0054648714140057
0.0070779742673039
0.0091530233621597
0.0116696553304791
0.0145497471094131
0.0176778249442577
0.02091078273952
0.0240847617387771
0.0270198509097099
0.0295071527361869
0.0312853753566741
0.0320349000394344
0.0314056947827339
0.0290752239525318
0.0248190127313137
0.0185761749744415
0.0104948310181498
0.0009449571371078
-0.0095043368637561
-0.0201390068978071
-0.0301789008080959
-0.0388730987906456
-0.0455958768725395
-0.0499181672930717
-0.0516436547040939
-0.0508153885602951
-0.0476958751678466
-0.0427231937646865
-0.0364508628845214
-0.0294790416955947
-0.0223853792995214
-0.0156653244048357
-0.0096894335001707
-0.0046796877868473
-0.0007057045586407
0.0023000105284154
0.0045143174938857
0.0061834212392568
0.0075700236484408
0.0089054554700851
0.0103624137118458
0.0120447315275669
0.0139882192015647
0.016171084716916
0.0185311175882816
0.0209835562855005
0.0234342105686664
0.0257869623601436
0.0279445704072713
0.029797188937664
0.0311970170587301
0.0319325663149356
0.0317225866019725
0.0302378851920366
0.0271502584218978
0.022205539047718
0.0153044871985912
0.0065626809373497
-0.0036701494827866
-0.0148308789357543
-0.0261971838772296
-0.0369712114334106
-0.0463791340589523
-0.0537627711892128
-0.058648757636547
-0.0607933774590492
-0.0602007135748863
-0.0571074560284614
-0.0519351959228515
-0.0452298074960708
-0.0376035645604133
-0.0296731907874345
-0.0219931583851575
-0.0149999856948852
-0.0089771747589111
-0.0040433164685964
-0.0001647751778364
0.0028121140785515
0.0051192436367273
0.007022188976407
0.008778216317296
0.0106036011129617
0.0126542663201689
0.0150200929492712
0.0177304781973361
0.0207621529698371
0.0240414887666702
0.0274479873478412
0.0308299716562032
0.0340284071862697
0.0368889942765235
0.0392467826604843
0.0408942326903343
0.0415625274181366
0.0409364849328994
0.0387021824717521
0.0346137732267379
0.0285640638321638
0.0206421986222267
0.0111606419086456
0.000641697901301
-0.0102369058877229
-0.0207286644726991
-0.0301119498908519
-0.0377657674252986
-0.0432241894304752
-0.0462146028876304
-0.0466789044439792
-0.0447721742093563
-0.0408340096473693
-0.0353373773396015
-0.0288285091519355
-0.0218661911785602
-0.0149628333747386
-0.0085338288918137
-0.0028630569577217
0.0019118338823318
0.0057892096228897
0.0088708158582448
0.0113249942660331
0.0133560132235288
0.015175299718976
0.0169739946722984
0.0189004298299551
0.0210457853972911
0.0234408155083656
0.0260624811053276
0.0288458075374364
0.0316979810595512
0.0345129035413265
0.0371810644865036
0.0395875424146652
0.0415925942361354
0.0429982803761959
0.0435227788984775
0.0428121909499168
0.0404981039464473
0.0362808480858802
0.0300117209553718
0.0217536427080631
0.0118067935109138
0.0006929626688361
-0.0108992122113704
-0.0221958421170711
-0.0324275977909565
-0.0409135408699512
-0.0471325553953647
-0.0507734194397926
-0.0517565049231052
-0.050232321023941
-0.0465601533651351
-0.0412605442106723
-0.0349422395229339
-0.0282202940434217
-0.021644277498126
-0.0156445521861314
-0.0104987490922212
-0.0063222898170351
-0.0030830884352326
-0.0006329789757728
0.0012511373497545
0.0028221076354384
0.0043216468766331
0.005951358936727
0.0078579448163509
0.0101255672052502
0.0127693284302949
0.0157362986356019
0.0189198665320873
0.0221814662218093
0.0253689046949148
0.0283233653753995
0.0308721214532852
0.0328094698488712
0.0338794626295566
0.0337821058928966
0.0322127565741539
0.0289239212870597
0.0237917080521583
0.0168733745813369
0.0084409257397055
-0.0010281765135005
-0.0109072374179959
-0.0205007549375295
-0.0291237067431211
-0.0361715331673622
-0.0411794930696487
-0.04386792704463
-0.0441678911447525
-0.0422229431569576
-0.0383655838668346
-0.0330697484314441
-0.0268863625824451
-0.0203737597912549
-0.0140356626361608
-0.0082726189866662
-0.0033456897363066
0.000638713594526
0.0037132883444428
0.0060155186802148
0.0077499472536146
0.0091503979638218
0.0104444995522499
0.0118243433535099
0.0134264547377824
0.0153232226148247
0.017524903640151
0.0199890974909067
0.0226331818848848
0.025347676128149
0.0280110239982604
0.0304991323500871
0.0326753854751586
0.0343567766249179
0.0352789387106895
0.0350948683917522
0.033420767635107
0.0299159716814756
0.0243722032755613
0.016785429790616
0.0073924316093325
-0.0033350698649883
-0.0147377718240022
-0.0260454695671796
-0.0364648513495922
-0.0452664867043495
-0.0518633425235748
-0.0558703616261482
-0.0571363903582096
-0.0557504147291183
-0.0520272143185138
-0.0464671403169631
-0.039687406271696
-0.032337050884962
-0.0250149872153997
-0.0182081907987594
-0.0122547531500458
-0.0073277717456221
-0.0034397607669234
-0.0004682410508394
0.0018032435327768
0.0036388803273439
0.0053085954859852
0.0070554171688854
0.0090714190155267
0.0114776892587542
0.0143095823004841
0.017517602071166
0.0209877509623765
0.0245714802294969
0.0281134583055973
0.0314685478806495
0.0344985574483871
0.037044733762741
0.0388914383947849
0.0397486053407192
0.0392690300941467
0.0370982810854911
0.0329484045505523
0.0266825333237648
0.0183851700276136
0.0083879828453063
-0.002757943700999
-0.0143458098173141
-0.0255918763577938
-0.0357178747653961
-0.0440302602946758
-0.0499900393187999
-0.0532669313251972
-0.0537714548408985
-0.0516576096415519
-0.0472928248345851
-0.0412016473710536
-0.0339954309165477
-0.026298938319087
-0.0186817832291126
-0.0116018094122409
-0.0053694881498813
-0.0001385919749736
0.0040811197832226
0.0073979161679744
0.010005441494286
0.0121463648974895
0.0140754394233226
0.016026010736823
0.0181813482195138
0.0206542257219553
0.0234807040542364
0.0266280248761177
0.0300106108188629
0.0335094891488552
0.0369929745793342
0.0403326973319053
0.0433997064828872
0.0460311733186244
0.0479885935783386
0.0489435456693172
0.0485052466392517
0.0462801977992057
0.0419514887034893
0.0353644117712974
0.02659697458148
0.0159931220114231
0.0041450010612607
-0.0081737833097577
-0.020103657618165
-0.0308003649115562
-0.0395272932946682
-0.0457298979163169
-0.0490928851068019
-0.0495757088065147
-0.0474079139530658
-0.0430397540330886
-0.0370663329958915
-0.0301453117281198
-0.0229198150336742
-0.0159521251916885
-0.0096723278984427
-0.0043482044711709
-7.986370474100113e-05
0.0031860605813562
0.0056261643767356
0.0074943113140761
0.009071510285139
0.0106254983693361
0.0123763447627425
0.0144652146846055
0.0169418193399906
0.0197759568691253
0.0228794999420642
0.0261305402964353
0.0293959062546491
0.0325465686619281
0.0354624763131141
0.0380211174488067
0.0400682315230369
0.0413868315517902
0.041687861084938
0.0406331308186054
0.0378902740776538
0.0332120209932327
0.0265155658125877
0.0179325081408023
0.0078204190358519
-0.0032586194574832
-0.0145909832790493
-0.0253916531801223
-0.0348971858620643
-0.0424545221030712
-0.0475933626294136
-0.0500747337937355
-0.0499098822474479
-0.0473472401499748
-0.0428310371935367
-0.0369372963905334
-0.0302952118217945
-0.0235068425536155
-0.0170826502144336
-0.0114033287391066
-0.0067014982923865
-0.0030559038277715
-0.0004004468210041
0.0014487183652818
0.0027510179206728
0.003793142735958
0.0048435791395604
0.0061165057122707
0.0077505647204816
0.0098035521805286
0.012258936651051
0.0150405336171388
0.0180331040173769
0.0211036913096904
0.0241104811429977
0.0268868468701839
0.0292099192738533
0.0307803023606538
0.0312321260571479
0.0301774889230728
0.0272792093455791
0.022334411740303
0.0153436344116926
0.0065457616001367
-0.0035883784294128
-0.0144016854465007
-0.0251247603446245
-0.0349633060395717
-0.0431880503892898
-0.0492153540253639
-0.0526697635650634
-0.0534257404506206
-0.051617357879877
-0.0476084686815738
-0.0419337153434753
-0.0352226346731185
-0.0281156711280345
-0.0211862735450267
-0.0148837966844439
-0.0095013231039047
-0.0051660314202308
-0.001850742381066
0.0005958992987871
0.0024080416187644
0.0038611129857599
0.005233340896666
0.0067638745531439
0.0086146118119359
0.010855165310204
0.0134731195867061
0.0163947157561779
0.0195060912519693
0.0226734783500432
0.0257608629763126
0.0286403354257345
0.0311860330402851
0.0332444496452808
0.0345954149961471
0.0349376127123832
0.0339148491621017
0.0311736539006233
0.0264425314962863
0.0196147561073303
0.0108050033450126
0.0003664996474981
-0.0111307352781295
-0.0229578949511051
-0.0343091785907745
-0.0443927571177482
-0.0525209978222847
-0.0581864491105079
-0.0611110143363475
-0.0612642019987106
-0.0588500127196311
-0.0542676076292991
-0.0480555668473243
-0.0408232435584068
-0.0331745147705078
-0.0256433542817831
-0.0186554361134767
-0.0125073678791522
-0.007352883927524
-0.0032001598738133
7.215701043605804e-05
0.0026803887449204
0.0048900102265179
0.006969085894525
0.0091496407985687
0.0115993488579988
0.0144051555544137
0.017573494464159
0.02104570902884
0.0247203577309846
0.0284756496548652
0.0321848727762699
0.0357193760573864
0.0389395579695701
0.041673194617033
0.0436873361468315
0.0446744710206985
0.0442704334855079
0.0421073175966739
0.0378930121660232
0.0314960703253746
0.0230105258524417
0.0127819497138261
0.0013844142667949
-0.010445449501276
-0.0218927431851625
-0.0321504846215248
-0.0405095666646957
-0.0464432537555694
-0.0496621243655681
-0.0501300878822803
-0.0480480603873729
-0.0438133925199508
-0.0379633493721485
-0.031108433380723
-0.0238597467541694
-0.0167599823325872
-0.0102293584495782
-0.0045361444354057
0.0002046865411102
0.0040133660659193
0.0070204744115471
0.0094381030648946
0.0115194208920001
0.0135082304477691
0.0155974579975008
0.0179090201854705
0.0204919856041669
0.0233333446085453
0.0263748336583375
0.0295283384621143
0.032688058912754
0.0357431396842002
0.0385913401842117
0.0411447063088417
0.0433165207505226
0.0449906177818775
0.045988455414772
0.0460537448525428
0.0448642075061798
0.0420731864869594
0.0373846441507339
0.0306464508175849
0.0219248197972774
0.0115332566201686
1.1982396245002748e-05
-0.0119338929653167
-0.0235189739614725
-0.0339659415185451
-0.0425893627107143
-0.048868253827095
-0.0524981804192066
-0.053417257964611
-0.0518009811639785
-0.0480237752199173
-0.042600367218256
-0.0361237935721874
-0.0292019601911306
-0.0223931241780519
-0.0161493681371212
-0.0107764527201652
-0.0064155808649957
-0.0030496125109493
-0.0005299689946696
0.0013814897974953
0.0029609333723783
0.0044728382490575
0.00613420503214
0.0080932192504405
0.0104216020554304
0.0131235923618078
0.0161501578986644
0.0194062162190675
0.0227595288306474
0.02605951577425
0.0291570834815502
0.0319081172347068
0.0341521874070167
0.0356815159320831
0.0362263619899749
0.0354726389050483
0.0331124067306518
0.0289148204028606
0.0227983780205249
0.0148853817954659
0.0055231358855962
-0.0047352211549878
-0.015190701931715
-0.0250885151326656
-0.0337138697504997
-0.0404737330973148
-0.0449566096067428
-0.0469666942954063
-0.0465330258011817
-0.0438959188759326
-0.0394704230129718
-0.0337899476289749
-0.0274392049759626
-0.0209828875958919
-0.0148986661806702
-0.0095310322940349
-0.0050720628350973
-0.0015613604336977
0.0010934370802715
0.003075631102547
0.0046148998662829
0.0059504671953618
0.0073009338229894
0.0088402042165398
0.0106816347688436
0.012873126193881
0.0154022518545389
0.0182075705379247
0.0211931765079498
0.0242429189383983
0.0272279195487499
0.0299997795373201
0.0323698818683624
0.0340895988047122
0.0348477214574813
0.034294169396162
0.0320938639342784
0.0280013978481292
0.0219336990267038
0.0140203684568405
0.0046178624033927
-0.0057173650711774
-0.0162892695516347
-0.0263434313237667
-0.0351541712880134
-0.0421037673950195
-0.0467477664351463
-0.0488613359630107
-0.0484562814235687
-0.0457641184329986
-0.0411960929632186
-0.0352908782660961
-0.028649054467678
-0.0218607187271118
-0.0154397273436188
-0.0097703989595174
-0.0050757620483636
-0.0014166751643642
0.0012862082803621
0.003219241509214
0.0046335076913237
0.0057982541620731
0.0069596087560057
0.0083097573369741
0.0099715823307633
0.0120020555332303
0.0144021790474653
0.0171210467815399
0.0200610198080539
0.0230914205312728
0.0260658450424671
0.028832584619522
0.031224938109517
0.0330323874950408
0.0339772626757621
0.0337217040359973
0.031910914927721
0.0282445400953292
0.0225563086569309
0.0148773221299052
0.0054695457220077
-0.0051776496693491
-0.0163957346230745
-0.0274210721254348
-0.0374861434102058
-0.045899674296379
-0.0521160960197448
-0.0557921752333641
-0.0568198598921299
-0.055325262248516
-0.0516345128417015
-0.0462200604379177
-0.039641048759222
-0.0324813649058342
-0.0252871476113796
-0.0185119826346635
-0.0124774556607007
-0.0073521416634321
-0.003155312500894
0.0002123843878507
0.0029272618703544
0.0052065285854041
0.0072763748466968
0.0093414587900042
0.0115612987428903
0.0140364617109298
0.0168037451803684
0.0198402516543865
0.0230764299631118
0.0264146141707897
0.0297454688698053
0.0329582504928112
0.0359427630901336
0.0385748632252216
0.0406813770532608
0.0420038513839244
0.0421967171132564
0.0408751592040061
0.0376962311565876
0.0324472747743129
0.0251190569251775
0.0159450676292181
0.0053961384110152
-0.0058681149967014
-0.0170772727578878
-0.0274398643523454
-0.0362309627234935
-0.0428690239787101
-0.0469731129705905
-0.0483911819756031
-0.0472037866711616
-0.0437122695147991
-0.0384026579558849
-0.0318780988454818
-0.0247759819030761
-0.0176908634603023
-0.0111129535362124
-0.0053856531158089
-0.0006862897425889
0.0029698675498366
0.0057073370553553
0.0077518871985375
0.0093792024999856
0.0108631830662488
0.0124379163607954
0.0142778502777218
0.0164872165769338
0.0190912038087844
0.0220363363623619
0.0252084285020828
0.0284628104418516
0.0316536873579025
0.034650795161724
0.0373362936079502
0.0395814105868339
0.0412121787667274
0.0419853813946247
0.0415954887866973
0.0397156737744808
0.0360618457198143
0.0304671227931976
0.0229515563696622
0.0137623380869627
0.0033628130331635
-0.0076222866773605
-0.0184780955314636
-0.0284735970199108
-0.0369375459849834
-0.0433305650949478
-0.0473019257187843
-0.0487217530608177
-0.0476857498288154
-0.0444921515882015
-0.0395952425897121
-0.0335472859442234
-0.0269337780773639
-0.0203013531863689
-0.0140931457281112
-0.0086133312433958
-0.0040217489004135
-0.0003440584987401
0.0025078835897147
0.0047031324356794
0.0064527904614806
0.0079765189439058
0.0094773564487695
0.0111207170411944
0.0130177568644285
0.0152175119146704
0.0177099592983722
0.0204374957829713
0.0233081337064504
0.0262083187699317
0.0290114805102348
0.0315642803907394
0.033650130033493
0.0349658988416194
0.03514039888978
0.0337902382016181
0.0305959545075893
0.0253812298178672
0.0181767009198665
0.0092516811564564
-0.0008959812112152
-0.0115910600870847
-0.0220601502805948
-0.031522262841463
-0.0392788872122764
-0.0447907336056232
-0.0477296225726604
-0.0480071790516376
-0.0457820259034633
-0.0414354987442493
-0.0355148427188396
-0.0286558084189891
-0.0214974731206893
-0.0146045982837677
-0.0084108691662549
-0.0031879395246505
0.000959990080446
0.0040809446945786
0.0063441460952162
0.0079956762492656
0.009310470893979
0.0105530824512243
0.0119483806192874
0.0136566888540983
0.0157564468681812
0.0182426255196332
0.0210394095629453
0.0240211617201566
0.0270391125231981
0.0299446806311607
0.0325930342078208
0.0348211899399757
0.0364145413041114
0.0370851457118988
0.0364819392561912
0.0342406928539276
0.0300642773509025
0.023810688406229
0.0155606847256422
0.0056404201313853
-0.0054060453549027
-0.0168775171041488
-0.0279936045408248
-0.0379811041057109
-0.0461575090885162
-0.0520020201802253
-0.055207148194313
-0.0557037442922592
-0.0536570884287357
-0.0494368374347686
-0.0435646697878837
-0.0366456322371959
-0.0292939729988574
-0.0220643561333417
-0.0153967821970582
-0.0095846485346555
-0.0047685438767075
-0.0009472835808992
0.0019993593450635
0.0042775361798703
0.0061406311579048
0.0078484499827027
0.0096278907731175
0.0116449445486068
0.0139942970126867
0.0167019981890916
0.0197336561977863
0.0230045169591903
0.0263934470713138
0.0297636967152357
0.0329807475209236
0.0359053947031497
0.0383581444621086
0.0400811396539211
0.0407271906733512
0.0398918353021144
0.0371870547533035
0.0323351062834262
0.0252524968236684
0.0161013267934322
0.0052983458153903
-0.0065190498717129
-0.0185648314654827
-0.0299990717321634
-0.0400226600468158
-0.0479572005569934
-0.0533090941607952
-0.0558192506432533
-0.0554901510477066
-0.0525765940546989
-0.0475391633808612
-0.0409735590219497
-0.0335313901305198
-0.0258444268256425
-0.0184594374150037
-0.0117887090891599
-0.0060821804217994
-0.0014238962903618
0.0022492236457765
0.0051122000440955
0.0074089793488383
0.0094095356762409
0.0113720148801803
0.0135083049535751
0.0159535333514213
0.0187522117048501
0.0218681618571281
0.0252080652862787
0.0286463908851146
0.032046228647232
0.0352749787271022
0.038212351500988
0.0407409965991973
0.0427160374820232
0.0439305081963539
0.0441016145050525
0.0428928360342979
0.0399740487337112
0.0351056903600692
0.02821577899158
0.0194443184882402
0.0091530801728367
-0.0020961062982678
-0.013595288619399
-0.0245687030255794
-0.0342607907950878
-0.0420198664069175
-0.0473681576550006
-0.0500530488789081
-0.0500697307288646
-0.0476466491818428
-0.0432016663253307
-0.0372821390628814
-0.0304933320730924
-0.0234243888407945
-0.0165892131626606
-0.0103882998228073
-0.0050862780772149
-0.0008044571150094
0.0024718102067708
0.0048746177926659
0.0066222781315445
0.0079759415239095
0.0091960309073328
0.0105076357722282
0.0120762847363948
0.0139961568638682
0.0162896607071161
0.0189149528741836
0.0217825900763273
0.0247787348926067
0.0277781430631876
0.0306327361613512
0.0331457965075969
0.0350532606244087
0.0360241867601871
0.0356868393719196
0.0336849279701709
0.0297559089958667
0.0238084010779857
0.0159735232591629
0.0066144913434982
-0.0037048608064651
-0.0142826177179813
-0.0243601687252521
-0.0332045219838619
-0.0401804856956005
-0.0448194481432437
-0.0468818843364715
-0.0463872924447059
-0.0435973331332206
-0.0389651097357273
-0.0330661498010158
-0.0265198461711406
-0.0199119169265031
-0.0137305231764912
-0.0083245187997818
-0.0038861846551299
-0.0004556346684694
0.0020584792364388
0.0038471908774226
0.0051625203341245
0.0062758107669651
0.0074352924712002
0.0088265361264348
0.0105481799691915
0.0126121947541832
0.0149628268554806
0.0175011437386274
0.0201058201491832
0.0226496756076812
0.0250083152204751
0.0270481575280427
0.0285942554473876
0.0294009521603584
0.0291518606245517
0.0275003537535667
0.0241431891918182
0.0189053937792778
0.0118047054857015
0.0030745537951588
-0.0068494342267513
-0.0173687357455492
-0.0277825817465782
-0.0373613759875297
-0.0454244427382946
-0.0514162555336952
-0.0549692697823047
-0.0559405051171779
-0.054419245570898
-0.050707533955574
-0.0452730357646942
-0.0386810377240181
-0.0315190702676773
-0.0243259202688932
-0.0175387300550937
-0.0114669753238558
-0.0062850168906152
-0.0020349684637039
0.0013583379331976
0.0040612164884805
0.0062968311831355
0.008305599913001
0.0103076165542006
0.0124748386442661
0.0149155464023351
0.0176691338419914
0.0207099057734012
0.0239597428590059
0.0273069087415933
0.0306253544986248
0.0337818786501884
0.0366183146834373
0.0389179289340972
0.0403833240270614
0.0406459830701351
0.0393130630254745
0.0360440388321876
0.0306364614516496
0.0230950750410556
0.0136657282710075
0.0028274650685489
-0.0087540242820978
-0.020302353426814
-0.0310205649584531
-0.0401766747236251
-0.0471738502383232
-0.0516083352267742
-0.0533138923346996
-0.05237602815032
-0.0491064079105854
-0.043988361954689
-0.0376085005700588
-0.0305826757103204
-0.0234845448285341
-0.0167876500636339
-0.0108280610293149
-0.0057882582768797
-0.0017008809372782
0.0015290891751646
0.0040896874852478
0.0062241344712674
0.0081924870610237
0.0102292113006114
0.012503245845437
0.0150985848158597
0.0180210880935192
0.0212181955575943
0.0245990995317697
0.0280511677265167
0.0314524360001087
0.0346800945699214
0.0376065596938133
0.0400756895542144
0.0418697446584701
0.0426914617419242
0.0421834364533424
0.039989847689867
0.0358435772359371
0.0296469703316688
0.0215185023844242
0.0117999576032161
0.0010319926077499
-0.0100970435887575
-0.0208246298134326
-0.0304004345089197
-0.0381715968251228
-0.0436530448496341
-0.0465750992298126
-0.0469040349125862
-0.0448328256607055
-0.0407449677586555
-0.035157486796379
-0.0286501813679933
-0.0217926241457462
-0.0150855630636215
-0.008925455622375
-0.0035840459167957
0.000803779810667
0.0042389631271362
0.0068390001542866
0.0088036647066473
0.0103749902918934
0.0117992935702204
0.0132951140403747
0.0150288473814725
0.0170990340411663
0.0195317436009645
0.0222893394529819
0.0252897888422012
0.0284264646470546
0.0315729528665542
0.0345648415386676
0.037172358483076
0.0390868410468101
0.0399332009255886
0.0393128581345081
0.0368737690150737
0.032389473170042
0.025825610384345
0.0173794664442539
0.0074824653565883
-0.0032385089434683
-0.0140341706573963
-0.024121543392539
-0.0327679589390754
-0.039365280419588
-0.0435001030564308
-0.0450073070824146
-0.0439815409481525
-0.0407459884881973
-0.03579593449831
-0.029726481065154
-0.0231529474258422
-0.0166385564953088
-0.0106391087174415
-0.0054681804031133
-0.0012842183932662
0.0019029285758733
0.0042107319459319
0.0058509297668933
0.0070886979810893
0.0082013141363859
0.0094377314671874
0.0109802596271038
0.0129232164472341
0.0152771165594458
0.0179854780435562
0.0209420025348663
0.0240079052746295
0.0270249862223863
0.0298108048737049
0.0321346744894981
0.0336977280676364
0.0341400988399982
0.0330807007849216
0.0301866400986909
0.0252586621791124
0.0183049347251653
0.0095742810517549
-0.0004604747518897
-0.0111545361578464
-0.0217610727995634
-0.0315123796463012
-0.0397063083946704
-0.0457832552492618
-0.0493815764784812
-0.0503694713115692
-0.0488510355353355
-0.0451439432799816
-0.0397337935864925
-0.0332110412418842
-0.026194317266345
-0.0192498974502086
-0.0128250466659665
-0.0072123710997402
-0.0025484422221779
0.0011663392651826
0.0040401648730039
0.0062590856105089
0.0080534862354397
0.0096633061766624
0.0113048208877444
0.0131435506045818
0.015279371291399
0.0177437551319599
0.0205041635781526
0.0234768111258745
0.0265476536005735
0.0295905228704214
0.0324682854115963
0.0350060760974884
0.0369475558400154
0.0379349812865257
0.0375409945845603
0.0353426374495029
0.0310142785310745
0.0244168601930141
0.015660360455513
0.0051217461004853
-0.0065860608592629
-0.0186856389045715
-0.0303282588720321
-0.0406884253025054
-0.0490509718656539
-0.0548838041722774
-0.0578842163085937
-0.0579998418688774
-0.0554301105439662
-0.0505970008671283
-0.0440798290073871
-0.0365329049527645
-0.0286061335355043
-0.0208757258951663
-0.0137895587831735
