bvp
0.0209870189428329
0.0235759541392326
0.0264480337500572
0.0296644810587167
0.033218003809452
0.0370423570275306
0.0410260185599327
0.0450312457978725
0.0489128865301609
0.0525237098336219
0.0556954890489578
0.0582011565566062
0.0597247704863548
0.0598643273115158
0.0581753477454185
0.0542554594576358
0.0478507801890373
0.038947619497776
0.0278223603963851
0.0150381028652191
0.0013906359672546
-0.0121821518987417
-0.0247095357626676
-0.0352999009191989
-0.0432421118021011
-0.048081561923027
-0.0496587753295898
-0.0481086149811744
-0.0438251867890358
-0.037403754889965
-0.0295711420476436
-0.0211029183119535
-0.0127278240397572
-0.0050413981080055
0.0015484131872653
0.0068405722267925
0.0108308903872966
0.0136781837791204
0.0156533122062683
0.0170813295990228
0.0182893387973308
0.0195639096200466
0.0211177542805671
0.0230745486915111
0.0254755821079015
0.0282925944775342
0.0314350984990596
0.0347614362835884
0.0380987115204334
0.0412575416266918
0.044026605784893
0.0461446493864059
0.047267273068428
0.0469616912305355
0.0447490774095058
0.0401877537369728
0.032977856695652
0.0230585131794214
0.0106689129024744
-0.003637702204287
-0.0190308410674333
-0.0344941467046737
-0.0489558167755603
-0.0614214204251766
-0.0710818544030189
-0.0773909613490104
-0.080111525952816
-0.0793235972523689
-0.0753938853740692
-0.0689146518707275
-0.0606230534613132
-0.0513102486729621
-0.041730910539627
-0.0325267165899276
-0.0241751428693532
-0.0169640351086854
-0.0109872836619615
-0.0061655500903725
-0.0022934386506676
0.0009020713623613
0.0037090573459863
0.006390199996531
0.0091541456058621
0.0121384672820568
0.0154066104441881
0.0189571138471364
0.0227379500865936
0.0266603007912635
0.0306107699871063
0.034462496638298
0.0380751602351665
0.0412693880498409
0.0437818802893161
0.045230034738779
0.045119509100914
0.0429125316441059
0.0381429232656955
0.0305421631783247
0.0201393850147724
0.0073065478354692
-0.0072616869583725
-0.0226231589913368
-0.0376998670399189
-0.0514060519635677
-0.0627713724970817
-0.0710434094071388
-0.0757603570818901
-0.0767841041088104
-0.0742899850010871
-0.0687265619635582
-0.0607597082853317
-0.051196414977312
-0.0408849753439426
-0.0306112822145223
-0.021016726270318
-0.012547212652862
-0.0054332017898559
0.0002998780109919
0.0047964192926883
0.008319959975779
0.0111959120258688
0.0137563720345497
0.0162942465394735
0.0190330483019351
0.0221135914325714
0.0255903024226427
0.0294329598546028
0.0335374325513839
0.0377482026815414
0.0418876558542251
0.0457751713693141
0.0492192953824996
0.0519841462373733
0.0537519492208957
0.0541124269366264
0.052598301321268
0.0487666428089141
0.0423086434602737
0.0331535562872886
0.0215341597795486
0.0079986974596977
-0.0066366121172904
-0.0213873293250799
-0.0352238081395626
-0.0471870303153991
-0.0564854219555854
-0.0625720471143722
-0.0651966631412506
-0.0644210651516914
-0.0605932138860225
-0.0542883314192295
-0.0462285503745079
-0.0371927320957183
-0.0279278401285409
-0.0190722215920686
-0.0110995760187506
-0.0042894477955996
0.0012708530994132
0.0056553026661276
0.0090539697557687
0.0117266615852713
0.0139592252671718
0.0160250309854745
0.0181554332375526
0.0205192398279905
0.0232106167823076
0.0262484643608331
0.0295857526361942
0.0331232771277427
0.0367240272462368
0.0402197763323783
0.0434013269841671
0.0459960848093032
0.0476464740931987
0.047911562025547
0.0463156625628471
0.0424416549503803
0.036039151251316
0.0271154753863811
0.0159832052886486
0.0032488470897078
-0.0102528948336839
-0.0235587283968925
-0.0356897562742233
-0.0457657165825367
-0.053105566650629
-0.0572965741157531
-0.0582251735031604
-0.056071612983942
-0.0512742549180984
-0.0444698631763458
-0.0364110954105854
-0.0278685502707958
-0.0195368658751249
-0.0119610484689474
-0.0054921861737966
-0.0002787597477436
0.0037103288341313
0.0066440589725971
0.0087811918929219
0.010422745719552
0.0118667986243963
0.0133696179836988
0.0151229407638311
0.0172479208558797
0.0197917260229587
0.0227231103926897
0.0259400587528944
0.0292903184890747
0.032585933804512
0.0355960354208946
0.0380228087306022
0.0394859164953231
0.0395391173660755
0.0377240367233753
0.0336522534489631
0.0270996186882257
0.0180875472724437
0.0069255456328392
-0.0057952152565121
-0.0192548930644989
-0.03250003606081
-0.04456477612257
-0.0545884184539318
-0.0619080439209938
-0.0661199390888214
-0.0671084225177764
-0.0650426000356674
-0.0603405497968196
-0.0536035746335983
-0.0455337278544902
-0.0368495061993598
-0.0282085072249174
-0.0201431196182966
-0.0130170509219169
-0.0070095434784889
-0.002126088598743
0.0017678707372397
0.0048958119004964
0.0075172218494117
0.0098858308047056
0.0122201032936573
0.0146841295063495
0.0173792652785778
0.0203451868146657
0.0235658809542655
0.0269791465252637
0.0304883643984794
0.033969510346651
0.0372638031840324
0.0401529073715209
0.0423322729766368
0.0434074625372886
0.0429232344031333
0.040424957871437
0.035550657659769
0.0281336121261119
0.0182804130017757
0.0064005022868514
-0.0068191373720765
-0.0204898379743099
-0.0336307734251022
-0.045287299901247
-0.0546385794878006
-0.0610817931592464
-0.0642849132418632
-0.064206562936306
-0.0610839985311031
-0.0553886145353317
-0.0477587394416332
-0.0389251559972763
-0.029631171375513
-0.0205492563545703
-0.012210420332849
-0.0049613239243626
0.0010472713038325
0.005845321342349
0.0096082454547286
0.0126074086874723
0.0151539603248238
0.0175459533929824
0.0200272910296916
0.0227629318833351
0.0258328504860401
0.0292423255741596
0.0329360589385032
0.0368083268404006
0.0407153703272342
0.044491209089756
0.0479551628232002
0.0508996583521366
0.0530627071857452
0.0541089363396167
0.0536425225436687
0.0512573942542076
0.0466169752180576
0.0395455509424209
0.0301046874374151
0.0186300855129957
0.0057195913977921
-0.0078218011185526
-0.021073117852211
-0.0331122204661369
-0.0431272387504577
-0.0505024120211601
-0.0548720397055149
-0.0561432614922523
-0.0544895119965076
-0.0503146611154079
-0.0441907718777656
-0.0367814153432846
-0.0287636034190654
-0.0207563154399395
-0.0132631659507751
-0.0066348761320114
-0.0010528536513447
0.0034654070623219
0.0070367869921028
0.0098651852458715
0.0121934404596686
0.0142651107162237
0.0162959098815917
0.0184540301561355
0.0208503454923629
0.0235357005149126
0.0265008807182312
0.0296827666461467
0.0329786837100982
0.0362594127655029
0.0393698662519454
0.0421133711934089
0.0442292988300323
0.0453847758471965
0.0451919846236705
0.0432528853416442
0.0392331853508949
0.0329526215791702
0.0244606379419565
0.014071736484766
0.0023518921807408
-0.0099400356411933
-0.0219436101615428
-0.0328013002872467
-0.0417560823261737
-0.0482311621308326
-0.0518854781985282
-0.0526375658810138
-0.0506562739610672
-0.0463268458843231
-0.0402014404535293
-0.032935544848442
-0.0252094157040119
-0.0176451690495014
-0.0107401553541421
-0.004827793687582
-6.270036101341248e-05
0.003571729408577
0.0062308339402079
0.0081591289490461
0.0096391597762703
0.0109462328255176
0.0123131498694419
0.0139100151136517
0.0158374048769474
0.0181288141757249
0.020757108926773
0.0236392766237258
0.0266426187008619
0.0295927580446004
0.0322718396782875
0.0344028398394584
0.0356379523873329
0.0355756096541881
0.0338133871555328
0.0300231724977493
0.0240290574729442
0.0158721935003995
0.0058465301990509
-0.0055091874673962
-0.017464205622673
-0.0291790254414081
-0.0398042351007461
-0.0485832467675209
-0.0549401715397834
-0.0585353523492813
-0.0592856779694557
-0.0573559254407882
-0.0531261451542377
-0.0471371002495288
-0.0400178208947181
-0.0324070192873477
-0.0248823799192905
-0.0179061219096183
-0.0117896776646375
-0.0066797649487853
-0.0025675154756754
0.0006821490824222
0.0032861505169421
0.0054928734898567
0.0075392425060272
0.0096213398501276
0.0118760950863361
0.0143729671835899
0.0171164348721504
0.0200589038431644
0.0231194384396076
0.0262004062533378
0.0291982516646385
0.0320087857544422
0.0345227979123592
0.0366036593914032
0.0380532406270504
0.038590207695961
0.0378572382032871
0.0354611873626709
0.0310479514300823
0.0243978314101696
0.0155091676861047
0.0046448288485407
-0.007669037207961
-0.0206937938928604
-0.0335669070482254
-0.0454062074422836
-0.0554115697741508
-0.0629523545503616
-0.0676277875900268
-0.0692926868796348
-0.068052738904953
-0.0642334893345832
-0.0583306066691875
-0.050953060388565
-0.042759645730257
-0.0343875773251056
-0.0263833384960889
-0.0191503372043371
-0.0129220774397253
-0.0077608446590602
-0.0035801772028207
-0.0001867301762104
0.0026714000850915
0.0052618370391428
0.0078323222696781
0.0105802649632096
0.0136320330202579
0.0170389860868453
0.0207843333482742
0.0247908607125282
0.0289329774677753
0.0330572389066219
0.0370057076215744
0.0406322702765464
0.0437986515462398
0.046346116811037
0.0480599403381347
0.0486513711512088
0.047774001955986
0.0450774580240249
0.0402857065200805
0.0332791469991207
0.0241620782762765
0.0132959922775626
0.001277748029679
-0.011134723201394
-0.023116935044527
-0.0338676534593105
-0.0426899120211601
-0.0490597300231456
-0.0526743195950984
-0.0534722544252872
-0.0516227707266807
-0.0474900975823402
-0.0415821596980094
-0.0344900339841842
-0.026821956038475
-0.0191384106874465
-0.0118969893082976
-0.0054138461127877
0.0001482656225562
0.004762565717101
0.0085083860903978
0.0115424077957868
0.0140669625252485
0.0162958241999149
0.0184268038719892
0.0206220317631959
0.0229925792664289
0.0255901739001274
0.0284084714949131
0.0313931815326213
0.0344574898481369
0.0374981351196765
0.0404113084077835
0.0431068167090415
0.0455095022916793
0.0475351959466934
0.0490491911768913
0.0498332940042018
0.0495804399251937
0.0479238145053386
0.0444995239377021
0.0390303283929824
0.0314089134335517
0.0217581260949373
0.0104525387287139
-0.0019042196217924
-0.014544278383255
-0.0266282372176647
-0.0373418405652046
-0.0459828786551952
-0.0520378984510898
-0.0552411638200283
-0.0555974058806896
-0.0533613450825214
-0.0489855334162712
-0.0430517047643661
-0.0361963585019111
-0.0290371309965848
-0.0221079066395759
-0.0158138312399387
-0.0104096420109272
-0.0059967865236103
-0.0025368831120431
0.0001207720488309
0.0022024251520633
0.0039687124080955
0.0056713526137173
0.0075125596486032
0.0096203591674566
0.0120470896363258
0.0147837866097688
0.0177771225571632
0.0209409911185503
0.0241667479276657
0.0273363497108221
0.0303328521549701
0.0330391190946102
0.0353195741772651
0.0369912087917327
0.0378015451133251
0.0374333076179027
0.0355470664799213
0.0318529717624187
0.0261874571442604
0.0185772087424993
0.0092781614512205
-0.0012258682399988
-0.0122685208916664
-0.0230770036578178
-0.0328635871410369
-0.0409196764230728
-0.0466986894607543
-0.0498743653297424
-0.0503671467304229
-0.0483389943838119
-0.0441609434783458
-0.0383574627339839
-0.0315335765480995
-0.0242999158799648
-0.0172097217291593
-0.0107092261314392
-0.0051034539937973
-0.0005419349763542
0.0029765956569463
0.0055798953399062
0.0074816257692873
0.0089361295104026
0.0101971002295613
0.0114842047914862
0.0129604367539286
0.0147218452766537
0.0167990494519472
0.0191667508333921
0.0217589139938354
0.0244827885180711
0.0272236913442611
0.0298498421907424
0.0322281420230865
0.0342358238995075
0.0357464775443077
0.0365960299968719
0.0365539640188217
0.0353199318051338
0.0325543284416198
0.0279409047216177
0.0212683100253343
0.0125095136463642
0.0018771812319755
-0.0101630371063947
-0.0229296255856752
-0.0356073975563049
-0.0473538972437381
-0.0574010536074638
-0.0651343166828155
-0.0701465606689453
-0.0722678005695343
-0.0715695545077323
-0.0683423355221748
-0.0630503147840499
-0.0562702156603336
-0.0486218854784965
-0.0407009646296501
-0.0330214090645313
-0.0259717050939798
-0.0197875276207923
-0.0145450588315725
-0.0101816048845648
-0.0065383585169911
-0.0034052343107759
-0.0005565392784774
0.0022186215501278
0.0050896960310637
0.0081677064299583
0.0115006864070892
0.0150778498500585
0.0188408158719539
0.0227014049887657
0.0265585035085678
0.0303078647702932
0.0338488556444644
0.0370911657810211
0.0399539358913898
0.0423428118228912
0.0441043227910995
0.0449867285788059
0.0446404740214347
0.0426671430468559
0.0387057438492774
0.0325322262942791
0.0241422094404697
0.0137936752289533
0.0020013102330267
-0.0105137806385755
-0.0229100435972213
-0.034330204129219
-0.044000569730997
-0.0513073019683361
-0.055846694856882
-0.0574556812644004
-0.0562236681580543
-0.0524764321744442
-0.0467273965477943
-0.0396040603518486
-0.0317634046077728
-0.0238135606050491
-0.0162553638219833
-0.0094454139471054
-0.0035799415782094
0.001297197304666
0.0052681388333439
0.0085087101906538
0.0112518593668937
0.0137473791837692
0.0162272471934556
0.0188764743506908
0.0218058079481124
0.0250379927456378
0.0285172015428543
0.0321343317627906
0.0357555784285068
0.0392450578510761
0.0424784794449806
0.0453519858419895
0.0477881915867328
0.0497305057942867
0.0511146299540996
0.0518230162560939
0.051647875458002
0.0502889901399612
0.04739610850811
0.0426432490348815
0.0358119122684001
0.0268692858517169
0.0160258244723081
0.0037470571696758
-0.0092891547828912
-0.0222713239490985
-0.0343484356999397
-0.0447280034422874
-0.052764244377613
-0.0580233447253704
-0.0603204406797885
-0.0597272180020809
-0.0565501824021339
-0.0512806475162506
-0.0445222146809101
-0.0369137749075889
-0.0290664434432983
-0.0215121824294328
-0.0146597120910882
-0.0087674325332045
-0.0039385287091135
-0.0001329379156231
0.0028073596768081
0.0051197567954659
0.0070738168433308
0.0089258886873722
0.0108843063935637
0.0130875017493963
0.0155961709097027
0.0184017457067966
0.0214451067149639
0.0246315114200115
0.0278374906629323
0.030920423567295
0.0337356552481651
0.036145843565464
0.0380049869418144
0.039122961461544
0.0392392911016941
0.0380335114896297
0.0351773388683795
0.0304138083010911
0.0236400179564952
0.0149681456387043
0.0047494433820247
-0.0064407177269458
-0.0178571175783872
-0.0286761950701475
-0.0381057485938072
-0.0454834103584289
-0.0503466799855232
-0.0524699948728084
-0.0518713183701038
-0.0487966313958168
-0.0436832606792449
-0.0370996445417404
-0.0296720694750547
-0.0220115035772323
-0.0146487867459654
-0.007987130433321
-0.0022780699655413
0.0023825869429856
0.0060443729162216
0.0088719446212053
0.011094769462943
0.0129562122747302
0.0146771427243947
0.0164318270981311
0.0183344446122646
0.0204392801970243
0.0227503385394811
0.0252319183200597
0.0278173200786113
0.0304177813231945
0.0329326801002025
0.0352567322552204
0.0372758358716964
0.0388462431728839
0.0397633649408817
0.0397375971078872
0.038399688899517
0.035351313650608
0.0302537027746438
0.0229269191622734
0.013428958132863
0.0020926631987094
-0.0104901790618896
-0.0235347673296928
-0.0361597314476966
-0.0474897995591163
-0.0567522943019866
-0.0633605271577835
-0.0669720619916915
-0.0675118118524551
-0.0651615336537361
-0.0603263825178146
-0.0535841099917888
-0.0456155650317668
-0.0371226035058498
-0.0287478882819414
-0.0210097581148147
-0.014260284602642
-0.0086683426052331
-0.0042272033169865
-0.0007857452146708
0.0019046524539589
0.0041373106651008
0.0061987554654479
0.0083289286121726
0.0107000619173049
0.0134112909436225
0.0164895169436931
0.0198917612433433
0.0235167294740676
0.0272273458540439
0.0308747570961713
0.0343174152076244
0.0374245271086692
0.0400508791208267
0.0419928096234798
0.0429577939212322
0.0425741374492645
0.0404441319406032
0.0362263098359108
0.0297274999320507
0.0209825672209262
0.0102962739765644
-0.0017703198827803
-0.0144640216603875
-0.0269310008734464
-0.0383140258491039
-0.0478427819907665
-0.0549104399979114
-0.0591316595673561
-0.0603751242160797
-0.0587660260498523
-0.0546583831310272
-0.0485806725919246
-0.041164182126522
-0.0330667681992054
-0.0249026007950305
-0.0171819701790809
-0.0102633219212293
-0.0043323319405317
0.0005806488916277
0.0045624724589288
0.0077807600609958
0.0104522230103611
0.0128117194399237
0.0150809464976191
0.0174415111541748
0.0200178623199462
0.0228702612221241
0.0259980522096157
0.029350858181715
0.0328403487801551
0.0363509654998779
0.0397517383098602
0.0429009273648262
0.0456281080842018
0.0476964339613914
0.0487773939967155
0.0484688580036163
0.0463559627532959
0.0420948974788188
0.0355013161897659
0.0266241207718849
0.015783043578267
0.003557949559763
-0.009270092472434
-0.0218132454901933
-0.03318402916193
-0.0425974614918231
-0.0494545511901378
-0.0533957593142986
-0.0543271340429782
-0.0524227991700172
-0.0480952709913253
-0.0419327355921268
-0.0346160195767879
-0.0268306713551282
-0.0191896017640829
-0.0121755125001072
-0.0061055282130837
-0.0011203521862626
0.0028003198094666
0.0058023352175951
0.0081138089299201
0.010001502931118
0.0117331454530358
0.0135489907115697
0.0156344380229711
0.018093217164278
0.0209366492927074
0.0240960791707038
0.0274496916681528
0.0308521352708339
0.0341580435633659
0.0372285172343254
0.0399104543030262
0.0419989824295043
0.0432129390537738
0.0432029701769351
0.0415939465165138
0.0380573235452175
0.0323998294770717
0.0246431604027748
0.0150649603456258
0.0041850404813885
-0.0072925924323499
-0.018562763929367
-0.0288129337131977
-0.0373139530420303
-0.043497908860445
-0.0470156297087669
-0.0477676577866077
-0.0459063090384006
-0.0418078787624836
-0.036017395555973
-0.029173620045185
-0.0219255182892084
-0.0148535128682851
-0.0084098055958747
-0.0028893046546727
0.001572054810822
0.0049835401587188
0.0074737025424838
0.0092536844313144
0.0105763459578156
0.0116967465728521
0.012838470749557
0.0141709959134459
0.0157995987683534
0.0177644491195678
0.0200463999062776
0.0225772876292467
0.0252499934285879
0.0279235951602458
0.0304177030920982
0.032492384314537
0.0338264070451259
0.0340204909443855
0.0326427221298217
0.029309494420886
0.0237785838544368
0.0160300824791193
0.0063143372535705
-0.0048505933955311
-0.0167331360280513
-0.0284791197627782
-0.0392194241285324
-0.0481733903288841
-0.0547341778874397
-0.0585269890725612
-0.05943438783288
-0.0575957149267196
-0.0533863119781017
-0.0473668240010738
-0.0402016453444957
-0.032568696886301
-0.0250807255506515
-0.0182242877781391
-0.0123220458626747
-0.0075214700773358
-0.0038066904526203
-0.0010292865335941
0.0010486040264368
0.002705942839384
0.0042160307057201
0.0058113825507462
0.0076660383492708
0.0098874922841787
0.0125093199312686
0.0154905673116445
0.0187287330627441
0.0220802426338195
0.0253775268793106
0.0284328237175941
0.0310254078358411
0.0328819379210472
0.0336677841842174
0.0330056883394718
0.0305302999913692
0.0259710866957902
0.0192373972386121
0.0104768136516213
9.140465408563614e-05
-0.0112947532907128
-0.0229126065969467
-0.0339455530047416
-0.0436214581131935
-0.0512908436357975
-0.0564893297851085
-0.0589760616421699
-0.0587431006133556
-0.0560017824172973
-0.0511500760912895
-0.0447214171290397
-0.0373200587928295
-0.029549553990364
-0.0219450891017913
-0.0149228060618042
-0.0087498798966407
-0.0035378593020141
0.0007364167831838
0.0041940785013139
0.0070200930349528
0.009434875100851
0.0116644008085131
0.0139077734202146
0.0163121633231639
0.0189627390354871
0.0218836180865764
0.0250445865094661
0.0283728167414665
0.0317654609680175
0.0350960195064544
0.0382113270461559
0.0409166291356086
0.0429499931633472
0.0439662560820579
0.0435591079294681
0.0413287319242954
0.0369766801595687
0.0303971711546182
0.0217348616570234
0.0113941561430692
1.896871253848076e-06
-0.011665666475892
-0.0227740556001663
-0.0325236544013023
-0.0402368903160095
-0.0454312190413475
-0.0478632077574729
-0.0475355051457881
-0.044676911085844
-0.0397090651094913
-0.0331973619759082
-0.0257799699902534
-0.0180859006941318
-0.0106637589633464
-0.0039332257583737
0.0018406193703413
0.0065520135685801
0.0102391662076115
0.0130519866943359
0.0152097791433334
0.0169584490358829
0.0185358393937349
0.0201477855443954
0.0219517052173614
0.024042535573244
0.0264431834220886
0.0291091501712799
0.0319460816681385
0.0348295345902442
0.0376220345497131
0.0401826873421669
0.0423606559634208
0.0439728237688541
0.0447806566953659
0.0444858595728874
0.0427566990256309
0.0392845496535301
0.0338596180081367
0.0264465995132923
0.0172380525618791
0.0066636148840188
-0.0046537518501281
-0.0159754119813442
-0.0265336632728576
-0.0356176272034645
-0.0426500216126441
-0.0472434610128402
-0.0492321625351905
-0.0486800372600555
-0.0458641462028026
-0.0412329845130443
-0.03534372523427
-0.0287887305021286
-0.0221256390213966
-0.0158195681869983
-0.0102010034024715
-0.0054488210007548
-0.0016041746130213
0.0013991848099976
0.0037052449770271
0.0055071688257157
0.0070167067460715
0.008434759452939
0.009925877675414
0.011601272970438
0.0135160032659769
0.015675276517868
0.0180411487817764
0.0205421298742294
0.0230880063027143
0.0255801156163215
0.0279048960655927
0.0299074500799179
0.0313596799969673
0.0319510921835899
0.0313195511698722
0.0291163176298141
0.0250867120921611
0.0191461332142353
0.0114316791296005
0.0023129610344767
-0.0076409578323364
-0.0177270732820034
-0.0271924752742052
-0.0353261977434158
-0.0415447801351547
-0.0454548001289367
-0.0468847006559371
-0.0458920337259769
-0.0427524670958519
-0.0379226766526699
-0.0319729186594486
-0.0255057793110609
-0.0190786533057689
-0.0131399203091859
-0.0079915607348084
-0.0037829461507499
-0.0005242032930254
0.0018916113767772
0.0036574557889252
0.0050120605155825
0.0061966106295585
0.0074191470630466
0.0088346898555755
0.0105353575199842
0.012544447556138
0.0148231890052557
0.0172902587801218
0.0198408588767051
0.0223621446639299
0.0247449148446321
0.0268836878240108
0.028659950941801
0.0299148224294185
0.0304258540272712
0.0299041084945201
0.0280232205986976
0.0244802385568618
0.0190758444368839
0.0117909591645002
0.002830097451806
-0.0073836548253893
-0.0182531736791133
-0.0290744323283433
-0.0391142219305038
-0.0476918779313564
-0.054255124181509
-0.0584350936114788
-0.0600742511451244
-0.0592302270233631
-0.0561577416956424
-0.0512712448835372
-0.045092511922121
-0.0381876081228256
-0.0310999304056167
-0.0242908578366041
-0.0181006472557783
-0.0127342073246836
-0.0082655530422925
-0.0046543129719793
-0.0017706006765365
0.0005775610916316
0.0026166893076151
0.0045776986517012
0.0066647347994148
0.0090302359312772
0.0117616327479481
0.014879529364407
0.0183444265276193
0.0220683943480253
0.0259326323866844
0.0298096053302288
0.0335744731128215
0.0370998494327068
0.040247194468975
0.0428579971194267
0.0447389148175716
0.045646496117115
0.0452860966324806
0.0433391295373439
0.0395217575132846
0.033659990876913
0.025757398456335
0.0160348191857337
0.0049297455698251
-0.0069443713873624
-0.0188627857714891
-0.0300625916570425
-0.0398243851959705
-0.04755574837327
-0.0528534203767776
-0.0555327385663986
-0.0556307695806026
-0.0533888190984725
-0.0492131672799587
-0.0436173826456069
-0.0371589213609695
-0.0303788501769304
-0.023747481405735
-0.0176222436130046
-0.0122253252193331
-0.0076413573697209
-0.003828483633697
-0.0006409240886569
0.0021301601082086
0.004703564569354
0.0072663770988583
0.0099534187465906
0.012839488685131
0.0159399341791868
0.0192197170108556
0.0226082056760787
0.0260153487324714
0.0293473228812217
0.0325200781226158
0.0354653149843215
0.0381274819374084
0.0404590144753456
0.0424149334430694
0.0439363867044448
0.0449157990515232
0.0451586954295635
0.0443758778274059
0.0422229394316673
0.0383733958005905
0.0326029732823371
0.02486552298069
0.015340531244874
0.0044374661520123
-0.0072419005446136
-0.0189712550491094
-0.0299841426312923
-0.0395616851747036
-0.0471110679209232
-0.0522242784500122
-0.0547103583812713
-0.0546021126210689
-0.0521428063511848
-0.0477515421807765
-0.0419661365449428
-0.0353732593357563
-0.0285381283611059
-0.0219431966543197
-0.0159462019801139
-0.0107632977887988
-0.0064737349748611
-0.0030370112508535
-0.0003157351166009
0.0018940111622214
0.003824159502983
0.005698537454009
0.0077080801129341
0.0099915415048599
0.0126166585832834
0.0155744720250368
0.0187953375279903
0.0221744365990161
0.0255935676395893
0.0289365649223327
0.032099213451147
0.0349918343126773
0.0375297553837299
0.0396088734269142
0.0410730130970478
0.0416928753256797
0.0411763340234756
0.0392137616872787
0.0355475544929504
0.0300445742905139
0.0227503962814807
0.013916065916419
0.0039917882531881
-0.006414960604161
-0.0166061911731958
-0.0258711632341146
-0.0335668660700321
-0.0391912385821342
-0.0424370393157005
-0.0432198010385036
-0.0416781976819038
-0.0381466038525104
-0.0331046432256698
-0.02710996940732
-0.0207227952778339
-0.0144409369677305
-0.008659235201776
-0.0036479365080595
0.0004582572728395
0.003659276291728
0.0060717896558344
0.0078935949131846
0.009360141120851
0.0107050323858857
0.0121290748938918
0.0137799829244613
0.0157430693507194
0.0180407986044883
0.0206389743834733
0.0234606154263019
0.026406867429614
0.0293719209730625
0.0322441272437572
0.0349058359861373
0.0372398309409618
0.0391303338110446
0.0404446236789226
0.041000485420227
0.0405435860157012
0.0387562252581119
0.0353042744100093
0.0299136061221361
0.0224532019346952
0.0130001595243811
0.0018688309937715
-0.0104035241529345
-0.023110058158636
-0.0354572087526321
-0.0466630682349205
-0.0560490153729915
-0.0631076097488403
-0.0675422921776771
-0.0692788437008857
-0.068450853228569
-0.0653669610619545
-0.0604684129357337
-0.0542798191308975
-0.047353345900774
-0.0402097515761852
-0.0332843773066997
-0.0268894284963607
-0.0211979188024997
-0.0162480100989341
-0.0119680184870958
-0.0082144970074296
-0.0048095188103616
-0.0015726843848824
0.0016529075801372
0.0049834148958325
0.0084859002381563
0.0121756196022033
0.0160184036940336
0.0199435092508792
0.0238642375916242
0.0276946537196636
0.0313593298196792
0.0347979627549648
0.0379632785916328
0.0408101677894592
0.043266724795103
0.0451863780617713
0.0463119260966777
0.0462830252945423
0.0446873903274536
0.0411416068673133
0.0353858657181263
0.027369299903512
0.0173006616532802
0.0056497217155992
-0.0069005647674202
-0.0195344612002372
-0.0313955545425415
-0.0416802801191806
-0.0497239902615547
-0.0550664961338043
-0.0574924051761627
-0.0570466965436935
-0.0540187507867813
-0.0488924346864223
-0.0422752164304256
-0.0348202995955944
-0.0271497629582881
-0.0197907760739326
-0.0131339877843856
-0.0074115265160799
-0.0026942938566207
0.0010886406525969
0.0041141002438962
0.0066214310936629
0.0088698603212833
0.0111022172495722
0.0135138519108295
0.0162274781614542
0.0192833077162504
0.0226479358971118
0.0262336358428001
0.0299206338822841
0.0335793904960155
0.0370896570384502
0.0403519421815872
0.043289303779602
0.0458423607051372
0.0479556992650032
0.0495464503765106
0.0504594221711158
0.0504381246864795
0.0491398423910141
0.0461919046938419
0.0412691235542297
0.0341795347630977
0.0249417349696159
0.0138295087963342
0.0013688895851373
-0.0117134172469377
-0.0245764143764972
-0.0363645106554031
-0.0463061779737472
-0.0537998899817466
-0.0584743469953537
-0.0602153651416301
-0.0591603145003318
-0.0556651577353477
-0.0502490065991878
-0.0435277372598648
-0.0361472591757774
-0.0287158917635679
-0.0217405892908573
-0.0155815407633781
-0.0104325553402304
-0.0063234814442694
-0.0031418786384165
-0.000673888833262
0.001345491502434
0.0031869681552052
0.0050902003422379
0.0072361351922154
0.0097329653799533
0.0126170190051198
0.015863487496972
0.0193972308188676
0.0230994820594787
0.0268219429999589
0.0304140392690897
0.0337464660406112
0.0367122702300548
0.0392005741596221
0.0410525649785995
0.0420249365270137
0.0417883284389972
0.0399701334536075
0.0362324453890323
0.0303663238883018
0.0223755463957786
0.0125221693888306
0.0013208799064159
-0.0105159515514969
-0.0221697017550468
-0.0328176319599151
-0.0417237281799316
-0.0483134239912033
-0.0522314235568046
-0.0533745661377906
-0.0518909804522991
-0.0481462068855762
-0.0426652543246746
-0.0360615737736225
-0.0289641674607992
-0.0219511315226554
-0.0154933845624327
-0.0099117141216993
-0.0053542600944638
-0.0018055532127618
0.0008740774355828
0.0028980621136724
0.0045086522586643
0.0059430082328617
0.0074095423333346
0.00906902551651
0.011020834557712
0.0133005995303392
0.0158870127052068
0.0187120158225297
0.0216746237128973
0.0246571041643619
0.0275383573025465
0.030201269313693
0.0325274243950843
0.0343682691454887
0.0355017744004726
0.0356102734804153
0.034305028617382
0.0311942007392644
0.0259756296873092
0.0185282677412033
0.0089761205017566
-0.0022920556366443
-0.0146525548771023
-0.0273170135915279
-0.0394232422113418
-0.0501314997673034
-0.0587178841233253
-0.0646508485078811
-0.0676386877894401
-0.0676520839333534
-0.0649236738681793
-0.0599119253456592
-0.0532285943627357
-0.0455513037741184
-0.0375410206615924
-0.0297725927084684
-0.0226846989244222
-0.0165538061410188
-0.0114897591993212
-0.0074495216831564
-0.0042674760334193
-0.001696606632322
0.0005453433841466
0.0027301558293402
0.0050836014561355
0.0077618691138923
0.010835601016879
0.0142884775996208
0.0180354472249746
0.0219499729573726
0.0258881952613592
0.0297075826674699
0.0332825556397438
0.0365138389170169
0.0393224917352199
0.0416234172880649
0.0432829111814498
0.0440790094435215
0.043692011386156
0.0417420081794261
0.0378681719303131
0.0318245887756347
0.0235616713762283
0.0132748363539576
0.0014132612850517
-0.011354099959135
-0.0242098607122898
-0.0362823382019996
-0.046743955463171
-0.0549004301428794
-0.0602622032165527
-0.0625895708799362
-0.0619074627757072
-0.0584904104471206
-0.0528197214007377
-0.0455174930393695
-0.0372649542987346
-0.0287213511765003
-0.0204611346125602
-0.0129322903230786
-0.0064273383468389
-0.0010667368769645
0.003193974494934
0.0065318122506141
0.0092120068147778
0.0115400990471243
0.01381241902709
0.0162726547569036
0.0190843287855386
0.0223218295723199
0.0259765572845935
0.0299749299883842
0.0342018380761146
0.0385173372924327
0.042765736579895
0.0467880144715309
0.0504390448331832
0.053597941994667
0.0561570674180984
0.0579870529472827
0.0588947832584381
0.0586011409759521
0.0567585974931716
0.0530118346214294
0.0470878146588802
0.0388888418674469
0.028557926416397
0.0165005736052989
0.0033616714645177
-0.0100444788113236
-0.0228404086083173
-0.0341946370899677
-0.0434088669717311
-0.0499820709228515
-0.0536525659263134
-0.0544132962822914
-0.0524980798363685
-0.0483416616916656
-0.0425206907093524
-0.035682275891304
-0.028466435149312
-0.0214349031448364
-0.0150186214596033
-0.0094867283478379
-0.0049383994191884
-0.0013218950480222
0.0015249093994498
0.003827144857496
0.0058282543905079
0.0077539710327982
0.0097886882722377
0.0120611330494284
0.01463667396456
0.0175179727375507
0.0206545554101467
0.0239579640328884
0.0273170694708824
0.0306115355342626
0.0337252393364906
0.0365598574280738
0.0390392169356346
0.0410853326320648
0.042564608156681
0.0432383567094802
0.0427584610879421
0.0407201945781707
0.0367514230310916
0.0306105129420757
0.0222731381654739
0.0119842318817973
0.0002541076391935
-0.0121979834511876
-0.0245304927229881
-0.0358781144022941
-0.0454522594809532
-0.0526272356510162
-0.0569999366998672
-0.0584277138113975
-0.0570435784757137
-0.0532330349087715
-0.0475710220634937
-0.0407377332448959
-0.0334289334714412
-0.0262712817639112
-0.0197560265660285
-0.0142010916024446
-0.0097405994310975
-0.0063371360301971
-0.0038168434984982
-0.0019201698014512
-0.0003534190764185
0.0011675497516989
0.0028857975266873
0.0049806209281086
0.0075473352335393
0.0105880443006753
0.0140233011916279
0.0177187696099281
0.0215147286653518
0.0252491366118192
0.0287697352468967
0.031928613781929
0.0345533601939678
0.0364105589687824
0.0371907167136669
0.0365312919020652
0.03407883644104
0.0295761730521917
0.0229471065104007
0.0143477898091077
0.0041698552668094
-0.0069939787499606
-0.0184078887104988
-0.0292703807353973
-0.0388049185276031
-0.0463494844734668
-0.0514293536543846
-0.0538030266761779
-0.0534764789044857
-0.0506867542862892
-0.0458646789193153
-0.0395821817219257
-0.0324798375368118
-0.025180347263813
-0.0182098429650068
-0.0119489980861544
-0.0066190329380333
-0.0022898425813764
0.001102349255234
0.0037287417799234
0.0058295344933867
0.0076666823588311
0.0094806179404258
0.011460249312222
0.0137264793738722
0.0163284409791231
0.0192488469183444
0.0224148891866207
0.0257166754454374
0.0290326457470655
0.0322529561817646
0.0352854952216148
0.0380372628569603
0.0403788276016712
0.0421052239835262
0.0429118461906909
0.0424040667712688
0.0401478856801986
0.0357567779719829
0.0289942696690559
0.0198594126850366
0.0086312722414731
-0.0041357800364494
-0.0176675580441951
-0.0310665071010589
-0.0434217527508735
-0.0539073310792446
-0.061866607517004
-0.0668832585215568
-0.0688185542821884
-0.067804217338562
-0.0642037391662597
-0.0585541650652885
-0.0514958873391151
-0.0436972863972187
-0.0357808656990528
-0.0282610710710287
-0.0215024724602699
-0.0157018918544054
-0.0108939949423074
-0.0069755651056766
-0.0037402147427201
-0.0009189127013087
0.0017700875177979
0.0045680287294089
0.0076390402391552
0.0110583063215017
0.0148195661604404
0.0188541579991579
0.0230523403733968
0.0272830333560705
0.0314117297530174
0.0353148877620697
0.0388892367482185
0.0420494712889194
0.0447034761309623
0.0467058531939983
0.0478162690997123
0.0476956516504287
0.0459472574293613
0.0421908237040042
0.0361577086150646
0.0277842748910188
0.0172722414135932
0.0050978474318981
-0.0080308923497796
-0.0212569236755371
-0.0336758978664875
-0.0444383360445499
-0.0528416521847248
-0.0584026277065277
-0.0609003566205501
-0.0603835955262184
-0.0571435093879699
-0.0516616068780422
-0.0445471853017807
-0.0364725887775421
-0.0281037874519824
-0.0200274437665939
-0.0126893743872642
-0.0063595734536647
-0.0011279108002781
0.0030727023258805
0.0064261090010404
0.0091889388859272
0.011646170169115
0.0140659809112548
0.0166629701852798
0.0195779260247945
0.0228729918599128
0.0265406146645545
0.0305187702178955
0.0346998646855354
0.0389383360743522
0.0430689752101898
0.0469290614128112
0.050367385149002
0.0532301999628543
0.0553254038095474
0.0563843995332717
0.0560530014336109
0.0539282970130443
0.0496349222958087
0.0429221019148826
0.0337550938129425
0.0223744679242372
0.0093056503683328
-0.0046906950883567
-0.0187174808233976
-0.0318546406924724
-0.0432587750256061
-0.0522444583475589
-0.0583468936383724
-0.061358742415905
-0.0613359808921813
-0.0585749745368957
-0.053567074239254
-0.0469372160732746
-0.0393700040876865
-0.0315281152725219
-0.0239774137735366
-0.017133854329586
-0.0112373149022459
-0.0063552288338541
-0.0024136928841471
0.0007611364126205
0.0034033460542559
0.0057670925743877
0.0080893822014331
0.0105629200115799
0.0133183300495147
0.0164157357066869
0.01984747312963
0.0235482938587665
0.0274091437458992
0.0312943160533905
0.0350618474185466
0.0385823622345924
0.0417423322796821
0.0444147735834121
0.0464044250547885
0.0474074184894561
0.0470202825963497
0.0448021106421947
0.0403726585209369
0.0335177071392536
0.0242722649127244
0.0129614789038896
0.0001879530027508
-0.0132324676960706
-0.0263687502592802
-0.0382855236530303
-0.0481503829360008
-0.0553228072822093
-0.0594147033989429
-0.0603247731924057
-0.05824501439929
-0.0536265559494495
-0.0471072047948837
-0.0394204258918762
-0.0313002616167068
-0.0233942307531833
-0.0161989275366067
-0.0100268684327602
-0.005001968704164
-0.0010763481259346
0.0019333707168698
0.0042953579686582
0.0063133994117379
0.0082876402884721
0.0104793841019272
0.0130751375108957
0.0161585379391908
0.0197063982486724
0.0236111413687467
0.0277152508497238
0.0318443365395069
0.0358309037983417
0.0395247228443622
0.0427886582911014
0.0454745404422283
0.0473796129226684
0.0482093915343284
0.0475796647369861
0.0450657308101654
0.0402883514761924
0.0330183580517768
0.0232675317674875
0.011332712136209
-0.0022142566740512
-0.0165794603526592
-0.030831404030323
-0.0440046563744545
-0.0552064590156078
-0.0637127384543418
-0.0690444409847259
-0.0710142627358436
-0.0697351172566413
-0.0655907243490219
-0.0591752268373966
-0.0512103512883186
-0.042450688779354
-0.0335924737155437
-0.0252053011208772
-0.017695352435112
-0.0112912859767675
-0.0060455752536654
-0.0018533458933234
0.0015095551498234
0.0043350141495466
0.0069285132922232
0.0095614939928054
0.0124366106465458
0.0156704857945442
0.0192940682172775
0.0232650358229875
0.0274869799613952
0.0318326540291309
0.0361659154295921
0.0403541773557662
0.0442692600190639
0.0477834679186344
0.0507571659982204
0.0530051849782466
0.0542545691132545
0.0541289448738098
0.0521800890564918
0.0479636825621128
0.0411454290151596
0.0316125713288784
0.019552607089281
0.0054718377068638
-0.0098470654338598
-0.0254330839961767
-0.0402385890483856
-0.0532592386007308
-0.0636517852544784
-0.0708289816975593
-0.0745115503668785
-0.0747339949011802
-0.0718122944235801
-0.0662859305739402
-0.0588447786867618
-0.0502449795603752
-0.0412212610244751
-0.0324109271168708
-0.0242998041212558
-0.0171920210123062
-0.0112040322273969
-0.0062823398038744
-0.0022383271716535
0.0012044929899275
0.0043516866862773
0.0074798031710088
0.0107971606776118
0.0144277121871709
0.0184104200452566
0.0227095298469066
0.0272330306470394
0.0318519957363605
0.0364153571426868
0.0407624281942844
0.0447368435561656
0.0481959171593189
0.0510038472712039
0.0530067682266235
0.0540003627538681
0.053707331418991
0.0517830476164817
0.0478606708347797
