bvp
-0.0174784120172262
-0.016608215868473
-0.015587599016726
-0.0144199002534151
-0.0131198754534125
-0.0117118172347545
-0.0102329328656196
-0.0087333275005221
-0.0072674928233027
-0.0058840811252593
-0.0046196673065423
-0.0034948177635669
-0.0025124438107013
-0.0016608852893114
-0.0009202752262353
-0.0002686567604541
0.0003136917948722
0.0008373018354177
0.0012901574373245
0.0016282871365547
0.0017801951617002
0.0016569681465625
0.0011610984802246
0.000200668349862
-0.0012894663959741
-0.0033277934417128
-0.005874453112483
-0.0088304877281188
-0.0120486039668321
-0.0153530705720186
-0.0185627806931734
-0.0215118806809186
-0.0240647792816162
-0.0261232703924179
-0.027625111863017
-0.0285340435802936
-0.028825256973505
-0.0284797605127096
-0.0274951495230197
-0.0258970819413661
-0.02373518794775
-0.0210702382028102
-0.0179644841700792
-0.0144758857786655
-0.0106541365385055
-0.0065395757555961
-0.0021663773804903
0.0024314650800079
0.0072150067426264
0.0121370339766144
0.0171399731189012
0.0221580155193805
0.0271227806806564
0.0319631062448024
0.0365958511829376
0.0409191399812698
0.0448176823556423
0.0481757074594497
0.0508872009813785
0.0528618618845939
0.0540332980453968
0.0543700642883777
0.0538835488259792
0.0526293292641639
0.0507015585899353
0.0482212454080581
0.0453228428959846
0.0421450696885585
0.0388242751359939
0.0354827567934989
0.032212495803833
0.0290631391108036
0.0260368976742029
0.0230865757912397
0.0201185178011655
0.0170060694217681
0.0136138554662466
0.0098258145153522
0.0055689327418804
0.0008292812854051
-0.0043424684554338
-0.0098375044763088
-0.0155021008104085
-0.021153163164854
-0.0265964139252901
-0.0316495597362518
-0.0361675173044204
-0.0400563478469848
-0.0432695150375366
-0.0457984507083892
-0.0476666167378425
-0.0489233247935771
-0.0496353209018707
-0.049879714846611
-0.049739122390747
-0.0492948442697525
-0.0486144199967384
-0.0477342009544372
-0.0466467924416065
-0.0453096628189086
-0.0436805635690689
-0.041764996945858
-0.0396475344896316
-0.0374858230352401
-0.0354741811752319
-0.0338000543415546
-0.0326089262962341
-0.0319833010435104
-0.0319359302520751
-0.0324126593768596
-0.0333013013005256
-0.0344462320208549
-0.035667423158884
-0.0367794297635555
-0.0376069918274879
-0.0379965677857399
-0.0378241650760173
-0.0370045863091945
-0.0355038940906524
-0.0333442501723766
-0.0305945165455341
-0.0273537579923868
-0.0237350556999444
-0.0198513604700565
-0.0158074367791414
-0.011708503589034
-0.0076871011406183
-0.0039309188723564
-0.000691495835781
0.0017356574535369
0.0030556134879589
0.0030308030545711
0.0015358105301856
-0.0014081709086894
-0.0056295730173587
-0.0108233541250228
-0.0165797285735607
-0.022427637130022
-0.0278865210711956
-0.0325111150741577
-0.0359269231557846
-0.0378592200577259
-0.0381499603390693
-0.0367626473307609
-0.03378327190876
-0.0294174998998641
-0.0239777565002441
-0.0178536400198936
-0.0114660412073135
-0.0052208229899406
0.0005267560482025
0.0055029764771461
0.0095454081892967
0.0126237422227859
0.0148432180285453
0.0164265036582946
0.0176755636930465
0.0189203694462776
0.0204671621322631
0.0225577056407928
0.0253453776240348
0.0288895294070243
0.0331630557775497
0.0380684956908226
0.0434623956680297
0.049178596585989
0.0550389736890792
0.0608587116003036
0.0664563477039337
0.0716674625873565
0.0763617306947708
0.0804605856537818
0.0839446261525154
0.0868476033210754
0.0892441868782043
0.0912353545427322
0.0929282829165458
0.0944093912839889
0.0957157090306282
0.0968158021569252
0.0976085886359214
0.0979364663362503
0.0976099297404289
0.0964464098215103
0.0943135768175125
0.091159738600254
0.0870255157351493
0.0820391103625297
0.0763972029089927
0.0703362673521041
0.0641034469008445
0.0579317770898342
0.0520187281072139
0.046509712934494
0.041490651667118
0.0369924567639827
0.033003631979227
0.0294783134013414
0.0263353176414966
0.0234603267163038
0.0207213703542947
0.0179957412183284
0.0152002433314919
0.0123141473159194
0.0093871708959341
0.0065323514863848
0.0039063468575477
0.001681949943304
2.282299101352692e-05
-0.0009323619306087
-0.0010780210141092
-0.0003452525124885
0.0012966211652383
0.0038322524633258
0.0071829161606729
0.0111946938559412
0.0156476199626922
0.0202831402420997
0.0248379372060298
0.0290765147656202
0.0328178852796554
0.0359498262405395
0.0384279862046241
0.0402618609368801
0.0414900258183479
0.042152602225542
0.0422729104757308
0.0418536849319934
0.0408861637115478
0.039361510425806
0.0372734069824218
0.0346166267991066
0.0313876792788505
0.0275822132825851
0.023188516497612
0.0181855335831642
0.0125491544604301
0.0062648132443428
-0.0006575807929039
-0.0081708431243896
-0.0161821618676185
-0.0245517641305923
-0.0331004709005355
-0.0416242852807045
-0.0499124377965927
-0.0577695928514003
-0.0650410503149032
-0.0716274008154869
-0.0774808675050735
-0.0825947821140289
-0.0869943350553512
-0.090724803507328
-0.0938390493392944
-0.0963915288448333
-0.0984382331371307
-0.1000359207391738
-0.1012406796216964
-0.1021078005433082
-0.1026879847049713
-0.1030171513557434
-0.10310610383749
-0.1029411256313324
-0.1024989560246467
-0.1017631515860557
-0.1007299497723579
-0.0994062349200248
-0.0978051200509071
-0.095941886305809
-0.0938316956162452
-0.0914893373847007
-0.0889307335019111
-0.0861746817827224
-0.0832429677248001
-0.0801586136221885
-0.0769429877400398
-0.073612168431282
-0.070174902677536
-0.0666365325450897
-0.0630081221461296
-0.0593120753765106
-0.0555793456733226
-0.0518404021859169
-0.0481150634586811
-0.0444081164896488
-0.0407133512198925
-0.0370214693248271
-0.0333265401422977
-0.0296286772936582
-0.0259343925863504
-0.022259309887886
-0.0186361540108919
-0.0151231298223137
-0.0118054468184709
-0.0087920017540454
-0.0062091369181871
-0.0041825901716947
-0.0028069671243429
-0.0021175458095967
-0.0020760181359946
-0.0025714021176099
-0.003433377481997
-0.0044546863064169
-0.0054177325218915
-0.0061210552230477
-0.0064010638743638
-0.0061433194205164
-0.0052844230085611
-0.0038096234202384
-0.0017464719712734
0.0008415803313255
0.0038572177290916
0.0071751438081264
0.0106578059494495
0.0141742341220378
0.0176158193498849
0.020906476303935
0.0240048170089721
0.0268988125026226
0.0295984633266925
0.0321306586265563
0.0345333069562912
0.0368463359773159
0.0391036979854106
0.0413317680358886
0.04355289041996
0.0457844175398349
0.0480285584926605
0.0502633713185787
0.0524460040032863
0.0545256845653057
0.0564551465213298
0.0581959038972854
0.0597209371626377
0.0610159635543823
0.0620796717703342
0.0629236996173858
0.0635710954666137
0.0640528872609138
0.0644023045897483
0.0646484419703483
0.0648146122694015
0.0649169310927391
0.0649547800421714
0.0648994818329811
0.0646890699863433
0.0642289146780967
0.0633986219763755
0.0620645247399807
0.0600978061556816
0.057399146258831
0.0539223626255989
0.0496871918439865
0.0447816923260688
0.0393580384552478
0.033618651330471
0.027793725952506
0.0221175998449325
0.0168032385408878
0.0120157804340124
0.0078569650650024
0.0043658483773469
0.0015305709093809
-0.0006963871419429
-0.0023851431906223
-0.0036188848316669
-0.0044873133301734
-0.005081009119749
-0.0054849302396178
-0.0057724677026271
-0.0060012969188392
-0.0062105082906782
-0.0064173536375164
-0.0066139646805822
-0.006771046668291
-0.006851453334093
-0.0068235448561608
-0.0066664237529039
-0.006370997056365
-0.0059417020529508
-0.0053968476131558
-0.0047643114812672
-0.004074758850038
-0.003357206005603
-0.0026369497645646
-0.0019334870157763
-0.0012604647781699
-0.0006276913918554
-4.057679325342178e-05
0.0005017761141061
0.0010033035650849
0.0014621894806623
0.0018650945276021
0.0021911580115556
0.0024221409112215
0.0025500794872641
0.0025780834257602
0.0025161579251289
0.0023766430094838
0.0021718349307775
0.0019109528511762
0.00159153342247
0.0011864118278026
0.0006353296339511
-0.0001498758792877
-0.0012684650719165
-0.002813434228301
-0.0048580300062894
-0.0074411211535334
-0.0105514535680413
-0.0141189182177186
-0.0180188007652759
-0.0220874175429344
-0.0261434279382228
-0.0300100669264793
-0.0335339158773422
-0.0365965813398361
-0.0391185507178306
-0.0410564616322517
-0.0423978231847286
-0.043155089020729
-0.0433569997549057
-0.0430437996983528
-0.0422724857926368
-0.0411220714449882
-0.0396897755563259
-0.0380794890224933
-0.0363860540091991
-0.0346811562776565
-0.0330058373510837
-0.0313688106834888
-0.0297494307160377
-0.0281061343848705
-0.0263882391154766
-0.0245469510555267
-0.0225433986634016
-0.0203517377376556
-0.0179569870233535
-0.0153555329889059
-0.0125638619065284
-0.0096253901720047
-0.0066045764833688
-0.0035732851829379
-0.0005994497332721
0.0022608269937336
0.0049696550704538
0.0075082182884216
0.0098694004118442
0.0120493751019239
0.0140460655093193
0.0158625151962041
0.0175084006041288
0.0189990792423486
0.0203562602400779
0.0216060597449541
0.0227688774466514
0.0238496921956539
0.0248396266251802
0.0257246419787406
0.026487885043025
0.0271001420915126
0.0275068059563636
0.0276227705180645
0.0273388195782899
0.0265374779701232
0.0251149833202362
0.0230047665536403
0.0201975610107183
0.0167546588927507
0.0128101222217082
0.0085553983226418
0.0042080669663846
-2.0740029867738485e-05
-0.003948732279241
-0.0074336631223559
-0.0103763937950134
-0.0127194337546825
-0.0144431395456194
-0.015560382977128
-0.0161106176674366
-0.0161547120660543
-0.015771135687828
-0.0150527749210596
-0.0141025055199861
-0.0130230542272329
-0.0119009781628847
-0.0107965264469385
-0.0097471997141838
-0.0087732058018445
-0.0078752990812063
-0.0070331217721104
-0.0062090884894132
-0.0053539341315627
-0.0044132601469755
-0.0033367867581546
-0.0020886044949293
-0.00065344478935
0.0009620361961424
0.0027301348745822
0.0046064062044024
0.0065397680737078
0.0084848906844854
0.010407455265522
0.0122783221304416
0.0140661289915442
0.0157374069094657
0.0172617025673389
0.0186162870377302
0.0197891499847173
0.0207794830203056
0.0215969290584325
0.0222608968615531
0.0227952990680933
0.0232194047421216
0.0235419627279043
0.0237573627382516
0.02383953332901
0.0237352568656206
0.023358704522252
0.0225917268544435
0.0212992820888757
0.0193591900169849
0.0166934411972761
0.0132912900298833
0.0092215165495872
0.0046325414441525
-0.0002621207386255
-0.005212630610913
-0.0099674696102738
-0.0143023822456598
-0.0180392656475305
-0.0210581310093402
-0.0233021788299083
-0.0247721746563911
-0.0255162622779607
-0.025624543428421
-0.0252225436270236
-0.0244553480297327
-0.0234667379409074
-0.0223815906792879
-0.0212949179112911
-0.0202667824923992
-0.019321072846651
-0.0184472277760505
-0.017607619985938
-0.0167502034455537
-0.0158194005489349
-0.0147631727159023
-0.0135382078588008
-0.0121125224977731
-0.010469464585185
-0.0086167640984058
-0.0065911905840039
-0.0044505149126052
-0.0022604553960263
-8.564768359065056e-05
0.0020176901016384
0.0040091993287205
0.0058660889044404
0.0075784977525472
0.0091452617198228
0.0105719184502959
0.0118679786100983
0.0130433291196823
0.0141076166182756
0.0150739923119544
0.0159588120877742
0.0167720504105091
0.0175096839666366
0.0181566476821899
0.0186931937932968
0.019096752628684
0.0193366408348083
0.0193612053990364
0.0190825369209051
0.0183704812079668
0.0170670580118894
0.0150195155292749
0.012118567712605
0.0083301560953259
0.003714682534337
-0.0015690275467932
-0.0072776023298501
-0.0131148044019937
-0.018771456554532
-0.0239632371813058
-0.0284613016992807
-0.032109547406435
-0.0348268561065197
-0.036600362509489
-0.0374736785888671
-0.0375311225652694
-0.0368814095854759
-0.0356446653604507
-0.0339431427419185
-0.031893715262413
-0.0295999944210052
-0.0271442290395498
-0.0245850700885057
-0.0219637528061866
-0.0193104483187198
-0.016646908596158
-0.0139882965013384
-0.0113421762362122
-0.0087059773504734
-0.0060690660029649
-0.0034193657338619
-0.0007497835904359
0.0019392110407352
0.0046400586143136
0.0073393946513533
0.0100197894498705
0.0126621620729565
0.0152489719912409
0.0177634470164775
0.0201834011822938
0.0224794168025255
0.0246202368289232
0.0265777315944433
0.0283295027911663
0.0298616085201501
0.0311718061566352
0.0322711355984211
0.0331808626651763
0.0339261442422866
0.0345310121774673
0.0350161492824554
0.035398494452238
0.0356927961111068
0.0359137393534183
0.0360700413584709
0.036146841943264
0.0360894501209259
0.0358008369803428
0.0351522229611873
0.0340030826628208
0.0322282537817955
0.0297463200986385
0.026539783924818
0.0226624608039855
0.018236756324768
0.0134408334270119
0.0084863612428307
0.0035936895292252
-0.0010313570965081
-0.0052158767357468
-0.0088321976363658
-0.011806609109044
-0.0141214318573474
-0.0158067941665649
-0.0169267859309911
-0.0175661798566579
-0.0178195796906948
-0.0177830960601568
-0.017548531293869
-0.017198035493493
-0.0167974587529897
-0.0163903310894966
-0.0159950293600559
-0.0156052857637405
-0.0151922758668661
-0.0147082870826125
-0.0140977557748556
-0.013316405005753
-0.0123457442969083
-0.0111925881356
-0.0098793096840381
-0.0084358900785446
-0.0068963221274316
-0.005296301562339
-0.0036715015303343
-0.0020567304454743
-0.0004842230118811
0.0010183635167777
0.0024271025322377
0.003720249980688
0.0048821503296494
0.0059112384915351
0.0068214302882552
0.0076330788433551
0.0083630383014678
0.0090207112953066
0.0096082938835024
0.010123299434781
0.0105618666857481
0.0109186964109539
0.0111797293648123
0.0113084781914949
0.0112341260537505
0.0108513608574867
0.0100343916565179
0.0086616408079862
0.006647428497672
0.0039701294153928
0.0006811618804931
-0.0031051710247993
-0.0072273118421435
-0.0114920642226934
-0.0156927034258842
-0.0196292605251073
-0.0231278724968433
-0.0260555800050497
-0.0283281598240137
-0.0299100019037723
-0.0308082923293113
-0.0310666263103485
-0.0307586304843425
-0.0299795791506767
-0.0288356784731149
-0.0274306833744049
-0.0258562676608562
-0.0241929069161415
-0.0225120987743139
-0.0208706967532634
-0.0193024333566427
-0.0178139638155698
-0.0163872353732585
-0.014986771158874
-0.0135698150843381
-0.0120962029322981
-0.0105351880192756
-0.0088694989681243
-0.0070983050391077
-0.0052381241694092
-0.0033173970878124
-0.0013660036493092
0.0005896869115531
0.0025220045354217
0.0043977331370115
0.0061814892105758
0.0078426469117403
0.0093604605644941
0.0107244364917278
0.0119318151846528
0.0129867540672421
0.0139009924605488
0.0146930264309048
0.0153854265809059
0.015999961644411
0.01655232347548
0.0170538034290075
0.0175189059227705
0.0179636273533105
0.0183878745883703
0.018755480647087
0.0189855340868234
0.0189566109329462
0.0185207035392522
0.0175251942127943
0.015841107815504
0.0133931674063205
0.010183997452259
0.0063033094629645
0.0019189035519957
-0.0027459980919957
-0.0074425488710403
-0.011925003491342
-0.0159733574837446
-0.0194139834493398
-0.0221371501684188
-0.0241004899144172
-0.025317445397377
-0.0258409325033426
-0.0257484465837478
-0.0251301005482673
-0.0240803118795156
-0.0226922649890184
-0.0210539512336254
-0.0192454680800437
-0.0173367895185947
-0.0153848705813288
-0.0134297311305999
-0.011490199714899
-0.0095619289204478
-0.0076236184686422
-0.0056522344239056
-0.003636076580733
-0.0015773940831422
0.0005105342715978
0.0026067374274134
0.0046876207925379
0.0067324298433959
0.0087248589843511
0.0106502464041113
0.0124924508854746
0.0142354136332869
0.0158678367733955
0.0173846837133169
0.0187868140637874
0.0200820621103048
0.0212805587798357
0.0223825871944427
0.0233717374503612
0.0242212619632482
0.0249082315713167
0.0254242103546857
0.0257765240967273
0.0259840711951255
0.0260712206363677
0.0260607078671455
0.0259690359234809
0.0258060339838266
0.0255762636661529
0.0252790842205286
0.0249047167599201
0.0244261994957923
0.0237868372350931
0.0228885114192962
0.0215963385999202
0.0197665151208639
0.0172842442989349
0.0140945985913276
0.0102200098335742
0.0057638436555862
0.0008995002135634
-0.0041518257930874
-0.0091492207720875
-0.0138609679415822
-0.0180894788354635
-0.0216875560581684
-0.0245621260255575
-0.02666836977005
-0.0280046612024307
-0.0286125838756561
-0.0285746492445468
-0.0280043948441743
-0.0270329546183347
-0.0257968828082084
-0.0244265832006931
-0.0230330135673284
-0.0216946490108966
-0.0204510167241096
-0.0193047877401113
-0.0182288140058517
-0.0171758141368627
-0.0160894729197025
-0.0149139650166034
-0.0135993668809533
-0.0121066579595208
-0.0104175824671983
-0.0085426801815629
-0.0065184249542653
-0.004397427663207
-0.0022390615195035
-0.0001002889475785
0.0019734050147235
0.0039517395198345
0.0058168265968561
0.0075586745515465
0.0091726621612906
0.0106592075899243
0.0120245181024074
0.0132824834436178
0.0144562115892767
0.0155718950554728
0.0166451260447502
0.0176739729940891
0.0186430010944604
0.0195288024842739
0.0203037559986114
0.0209364425390958
0.0213856287300586
0.0215917471796274
0.0214721802622079
0.0209241360425949
0.0198380388319492
0.0181193649768829
0.0157115869224071
0.0126157272607088
0.0089046070352196
0.0047224713489413
0.0002631908282637
-0.0042610480450093
-0.0086451824754476
-0.0127078406512737
-0.0163018200546503
-0.0193207077682018
-0.0217010378837585
-0.023419240489602
-0.0244861170649528
-0.0249417014420032
-0.0248517245054245
-0.0243044160306453
-0.0234036147594451
-0.0222561731934547
-0.0209570303559303
-0.0195814184844493
-0.0181884542107582
-0.0168258678168058
-0.0155275072902441
-0.0143069392070174
-0.0131538417190313
-0.0120376944541931
-0.0109152644872665
-0.0097373984754085
-0.0084584960713982
-0.0070478692650794
-0.0054959151893854
-0.0038131144829094
-0.0020247802603989
-0.0001635819207876
0.0017379883211106
0.0036487181205302
0.005532806739211
0.0073483269661664
0.0090541709214448
0.0106170624494552
0.0120138190686702
0.0132313631474971
0.014267573133111
0.0151325240731239
0.0158466137945652
0.0164342895150184
0.016917735338211
0.0173159223049879
0.0176458600908517
0.0179218277335166
0.0181565880775451
0.018360948190093
0.0185337681323289
0.0186472255736589
0.0186354126781225
0.0183923654258251
0.0177840217947959
0.0166712123900651
0.0149368625134229
0.0125101804733276
0.0093829315155744
0.0056172115728259
0.0013430221006274
-0.0032556906808167
-0.0079622352495789
-0.0125497598201036
-0.016803104430437
-0.0205414928495883
-0.0236393250524997
-0.0260352026671171
-0.0277249719947576
-0.0287457983940839
-0.0291609857231378
-0.0290500782430171
-0.0285027381032705
-0.0276126898825168
-0.0264696478843688
-0.0251515842974185
-0.0237211249768733
-0.0222247764468193
-0.0206923149526119
-0.0191365517675876
-0.0175537653267383
-0.0159278158098459
-0.0142400963231921
-0.0124783720821142
-0.010638422332704
-0.0087218284606933
-0.0067345555871725
-0.0046861907467246
-0.0025894166901707
-0.0004601785913109
0.0016832649707794
0.0038220398128032
0.0059371180832386
0.0080091962590813
0.0100185917690396
0.011946172453463
0.0137762119993567
0.0154970958828926
0.0170973986387252
0.018562963232398
0.0198789481073617
0.0210339948534965
0.0220226421952247
0.0228456072509288
0.0235098339617252
0.0240280181169509
0.0244174338877201
0.0246994569897651
0.0248975418508052
0.0250317156314849
0.0251142978668212
0.0251488983631134
0.0251249261200428
0.0250026062130928
0.0246974248439073
0.0240792073309421
0.0229928418993949
0.0212944392114877
0.0188886411488056
0.0157552417367696
0.0119602028280496
0.0076492098160088
0.0030257331673055
-0.0016788977663964
-0.0062339236028492
-0.0104309488087892
-0.0141004929319024
-0.0171224903315305
-0.0194272343069314
-0.0209922716021537
-0.0218431558459997
-0.0220523923635482
-0.0217283088713884
-0.0209982395172119
-0.0199928879737854
-0.0188334584236145
-0.0176218450069427
-0.0164336618036031
-0.0153135452419519
-0.014273902401328
-0.0132983177900314
-0.0123484674841165
-0.0113725950941443
-0.0103139216080307
-0.0091179274022579
-0.0077416910789906
-0.0061675757169723
-0.004411085974425
-0.0025128908455371
-0.0005234731361269
0.001506776548922
0.0035309181548655
0.0055061327293515
0.0073933037929236
0.009157040156424
0.0107684275135397
0.0122099686414003
0.013479839079082
0.0145918065682053
0.0155705399811267
0.0164471548050642
0.0172530338168144
0.01800830475986
0.0187153220176696
0.0193633493036031
0.0199355632066726
0.0204135403037071
0.0207801070064306
0.0210171714425086
0.0210962276905775
0.0209671538323164
0.0205534696578979
0.0197568852454423
0.0184687338769435
0.0165866315364837
0.0140390060842037
0.0108138797804713
0.0069748135283589
0.0026549031026661
-0.0019610049203038
-0.0066570010967552
-0.0112092997878789
-0.0154098160564899
-0.0190850626677274
-0.0221066400408744
-0.0243948176503181
-0.0259182751178741
-0.0266917087137699
-0.026772703975439
-0.0262550003826618
-0.0252569112926721
-0.0239078179001808
-0.0223321840167045
-0.0206364877521991
-0.0189075283706188
-0.0172151587903499
-0.0156097682192921
-0.0141176702454686
-0.0127384010702371
-0.0114447763189673
-0.01018928270787
-0.0089179910719394
-0.0075852279551327
-0.0061615803278982
-0.0046355105005204
-0.0030120851006358
-0.0013098389608785
0.0004457568284124
0.0022302852012217
0.0040202792733907
0.005784545559436
0.0074807773344218
0.00906253606081
0.0104890698567032
0.0117319477722048
0.0127773834392428
0.013626504689455
0.0142953461036086
0.0148124797269701
0.0152133665978908
0.015533392317593
0.0158017333596944
0.0160389188677072
0.0162586793303489
0.0164719093590974
0.0166877340525388
0.0169047582894563
0.0170951578766107
0.0171926598995924
0.0170909017324447
0.0166515037417411
0.0157193839550018
0.0141464676707983
0.0118225952610373
0.0087040998041629
0.004830022342503
0.0003232769668102
-0.0046216640621423
-0.0097637819126248
-0.0148472590371966
-0.0196287240833044
-0.0238997712731361
-0.0275094658136367
-0.0303780902177095
-0.0324923247098922
-0.0338865853846073
-0.0346226245164871
-0.0347747057676315
-0.0344214402139186
-0.0336425080895423
-0.0325164347887039
-0.0311185084283351
-0.0295196138322353
-0.0277823358774185
-0.0259549915790557
-0.0240683853626251
-0.022132322192192
-0.0201359372586011
-0.0180597230792045
-0.0158888306468725
-0.0136188855394721
-0.0112592065706849
-0.0088327946141362
-0.0063700592145323
-0.0039015244692564
-0.0014539640396833
0.0009530531242489
0.0033092750236392
0.0056096473708748
0.00784851051867
0.0100180823355913
0.0121094994246959
0.014114654622972
0.0160269457846879
0.0178380105644464
0.0195335522294044
0.0210943408310413
0.0225020889192819
0.0237445477396249
0.0248167030513286
0.0257199741899967
0.0264613926410675
0.0270533673465251
0.027514461427927
0.0278685614466667
0.0281395055353641
0.0283432863652706
0.0284796580672264
0.0285217072814703
0.0284035634249448
0.0280123222619295
0.0271968282759189
0.0257979594171047
0.0236869156360626
0.0207965057343244
0.0171413961797952
0.0128255803138017
0.0080329487100243
0.0030012461356818
-0.0020109354518353
-0.0067540570162236
-0.0110134510323405
-0.014628579840064
-0.0174973551183938
-0.0195691604167222
-0.0208439230918884
-0.0213793404400348
-0.0212866123765707
-0.0207085963338613
-0.0197952296584844
-0.0186845734715461
-0.0174900647252798
-0.016293803229928
-0.0151425134390592
-0.0140485223382711
-0.0129997115582227
-0.0119712082669138
-0.0109308855608105
-0.0098417196422815
-0.0086647113785147
-0.0073603391647338
-0.0058936881832778
-0.004249460529536
-0.0024437382817268
-0.0005188575014472
0.0014704545028507
0.0034678759984672
0.0054212622344493
0.0072856666520237
0.0090267341583967
0.0106239933520555
0.0120700439438223
0.0133657017722725
0.0145150003954768
0.0155227771028876
0.0163964312523603
0.017149630934
0.0178008452057838
0.0183654837310314
0.0188498310744762
0.019251124933362
0.0195602886378765
0.0197632536292076
0.0198388211429119
0.0197526738047599
0.0194485709071159
0.0188422538340091
0.0178269147872924
0.0162924565374851
0.01415073312819
0.0113573838025331
0.0079275015741586
0.0039451289921998
-0.0004395740106701
-0.00503073586151
-0.0096171684563159
-0.0139989955350756
-0.0180040132254362
-0.0214956887066364
-0.0243761222809553
-0.0265861209481954
-0.0281039904803037
-0.028943657875061
-0.0291517674922943
-0.028802627697587
-0.027991009876132
-0.0268239490687847
-0.0254098940640687
-0.0238453224301338
-0.0222071707248687
-0.0205549150705337
-0.0189326908439397
-0.0173658579587936
-0.0158576574176549
-0.0143906734883785
-0.0129331070929765
-0.0114476401358842
-0.0098988926038146
-0.0082576097920537
-0.006504570133984
-0.0046356446109712
-0.0026640575379133
-0.0006183182122185
0.0014621677109971
0.0035353931598365
0.0055646952241659
0.0075166812166571
0.0093540530651807
0.0110342008993029
0.012514179572463
0.0137600656598806
0.0147571731358766
0.0155139788985252
0.016059260815382
0.0164369735866785
0.0166994705796241
0.0168992187827825
0.0170815344899892
0.017279639840126
0.0175130981951951
0.0177895724773406
0.0181009322404861
0.0184068493545055
0.0186190698295831
0.0186029039323329
0.0181962400674819
0.0172376446425914
0.0155963758006691
0.0131999449804425
0.0100534232333302
0.0062435208819806
0.0019268211908638
-0.0026924521662294
-0.007389664184302
-0.0119456639513373
-0.016164019703865
-0.0198792964220047
-0.0229655355215072
-0.0253474861383438
-0.0270044095814228
-0.0279632899910211
-0.0282877683639526
-0.0280663333833217
-0.0274015106260776
-0.0263992361724376
-0.0251584388315677
-0.0237642358988523
-0.0222839564085006
-0.0207643769681453
-0.0192319191992282
-0.0176959056407213
-0.0161502696573734
-0.0145712429657578
-0.0129205593839287
-0.0111613031476736
-0.009273974224925
-0.0072596059180796
-0.00513386586681
-0.0029216227121651
-0.0006541572511196
0.0016337940469384
0.0039074379019439
0.0061342045664787
0.008285486139357
0.0103383641690015
0.0122761148959398
0.0140869077295064
0.0157637391239404
0.0173072181642055
0.0187242589890956
0.0200192518532276
0.0211884081363677
0.02222416177392
0.0231219306588172
0.0238835588097572
0.0245185121893882
0.0250418093055486
0.0254684463143348
0.0258089192211627
0.0260681472718715
0.0262423399835824
0.0263090189546346
0.0262150652706623
0.0258716624230146
0.0251616556197404
0.023958196863532
0.0221477467566728
0.0196525212377309
0.0164505634456872
0.012590485624969
0.0081954775378108
0.0034521599300205
-0.0014129690825939
-0.0061630420386791
-0.0105804987251758
-0.0144893024116754
-0.0177654419094324
-0.0203382819890975
-0.0221865512430667
-0.0233298204839229
-0.0238165184855461
-0.0237170588225126
-0.0231260731816291
-0.0221610926091671
-0.0209487155079841
-0.0196070522069931
-0.0182350557297468
-0.0169062037020921
-0.0156615152955055
-0.014506509527564
-0.0134159354493021
-0.0123430211097002
-0.0112309958785772
-0.0100266663357615
-0.0086919218301773
-0.0072079142555594
-0.0055727963335812
-0.0037995467428117
-0.0019165524281561
3.344807191751897e-05
0.0019989879801869
0.0039280168712139
0.0057745077647268
0.0075006652623414
0.0090767834335565
0.010482626967132
0.0117098744958639
0.0127626433968544
0.0136556765064597
0.0144102778285741
0.0150466887280344
0.0155784990638494
0.0160170886665582
0.0163777656853199
0.0166754722595214
0.016916049644351
0.0170926824212074
0.0171855688095092
0.0171580165624618
0.0169477872550487
0.0164616368710994
0.0155819132924079
0.014185706153512
0.0121693424880504
0.0094732129946351
0.0061040567234158
0.0021449374035
-0.0022534048184752
-0.0068927542306482
-0.0115529373288154
-0.0160210262984037
-0.0201167650520801
-0.0237055886536836
-0.0266985166817903
-0.0290448423475027
-0.0307243019342422
-0.0317414961755275
-0.0321224182844162
-0.0319120362401008
-0.0311729833483696
-0.0299854651093482
-0.0284439586102962
-0.0266478434205055
-0.024688659235835
-0.0226381570100784
-0.0205453671514987
-0.0184448659420013
-0.0163630880415439
-0.0143157374113798
-0.0123059414327144
-0.0103276716545224
-0.0083683207631111
-0.0064102308824658
-0.0044347122311592
-0.0024266107939183
-0.0003770231269299
0.0017154905945062
0.0038431487046182
0.0059872395358979
0.0081212446093559
0.0102181592956185
0.012252477928996
0.0141939865425229
0.0160062182694673
0.0176558978855609
0.0191216990351676
0.020394954830408
0.0214764103293418
0.0223720036447048
0.0230890568345785
0.0236363522708416
0.0240282583981752
0.0242872014641761
0.0244414880871772
0.0245206877589225
0.0245522502809762
0.0245589651167392
0.0245469082146883
0.0244813840836286
0.0242694336920976
0.0237653367221355
0.0227975007146596
0.0212054196745157
0.0188743397593498
0.0157612115144729
0.0119095910340547
0.0074487635865807
0.0025747064501047
-0.0024798051454126
-0.007474411278963
-0.0121846087276935
-0.0164183285087347
-0.0200248900800943
-0.0229019373655319
-0.0250042267143726
-0.0263458341360092
-0.0269895922392606
-0.0270301215350627
-0.0265793036669492
-0.0257556326687335
-0.0246737748384475
-0.0234349500387907
-0.0221219453960657
-0.0207968689501285
-0.019497450441122
-0.018233785405755
-0.0169901009649038
-0.015730895102024
-0.0144076980650424
-0.0129686603322625
-0.0113735282793641
-0.0096055222675204
-0.0076719769276678
-0.0055972165428102
-0.0034155244939029
-0.0011672722175717
0.0011042305268347
0.003356248140335
0.0055482811294496
0.0076427203603088
0.0096079278737306
0.0114229414612054
0.0130793778225779
0.0145803298801183
0.0159395523369312
0.0171766784042119
0.0183048993349075
0.0193232856690883
0.0202218890190124
0.0209895968437194
0.0216181483119726
0.0221061389893293
0.0224623419344425
0.0227027982473373
0.0228392630815505
0.0228613652288913
0.0227214880287647
0.0223322622478008
0.021577613428235
0.0203358475118875
0.0185120981186628
0.016065839678049
0.013020671904087
0.0094610080122947
0.0055221347138285
0.0013743112795054
-0.002794824540615
-0.0067961723543703
-0.0104548642411828
-0.013624845072627
-0.0161991380155086
-0.0181165933609008
-0.0193655118346214
-0.0199803542345762
-0.0200316235423088
-0.019613116979599
-0.0188302714377641
-0.0177937541157007
-0.0166166257113218
-0.0154072418808937
-0.0142566850408911
-0.0132257249206304
-0.0123369004577398
-0.0115763284265995
-0.0109022632241249
-0.0102557428181171
-0.0095723951235413
-0.0087922383099794
-0.0078663770109415
-0.0067632002755999
-0.0054736696183681
-0.004012013785541
-0.0024090674705803
-0.0007046441314741
0.0010520900832489
0.002800793852657
0.0044775651767849
0.0060283043421804
0.0074177403002977
0.0086299246177077
0.0096633825451135
0.0105265080928802
0.0112352780997753
0.0118125928565859
0.0122868036851286
0.0126870749518275
0.0130383307114243
0.013360422104597
0.0136691341176629
0.013968713581562
0.0142336627468466
0.014394698664546
0.0143406111747026
0.0139321004971861
0.0130224209278821
0.0114846732467412
0.0092418827116489
0.0062892567366361
0.0026994617655873
-0.001387326978147
-0.0057805050164461
-0.0102605130523443
-0.0146048683673143
-0.0186129547655582
-0.0221222750842571
-0.025017324835062
-0.0272353999316692
-0.0287661757320165
-0.0296408981084823
-0.0299172140657901
-0.0296677276492118
-0.0289721321314573
-0.0279131419956684
-0.0265768151730299
-0.0250502862036228
-0.0234135277569293
-0.0217291750013828
-0.0200350284576416
-0.0183433033525943
-0.0166443791240453
-0.0149110127240419
-0.0131084686145186
-0.0112114204093813
-0.0092145232483744
-0.0071304226294159
-0.0049825580790638
-0.0027989372611045
-0.0006079492159187
0.0015633120201528
0.0036895400844514
0.0057494370266795
0.0077288821339607
0.0096209980547428
0.0114221759140491
0.0131277153268456
0.0147327482700347
0.0162375457584857
0.0176466982811689
0.0189600177109241
0.0201667807996273
0.0212488584220409
0.0221870094537735
0.0229670256376266
0.0235857032239437
0.0240528471767902
0.024386579170823
0.0246062651276588
0.0247281827032566
0.0247608199715614
0.024693664163351
0.0244830716401338
0.0240471735596656
0.0232763700187206
0.022053524851799
0.0202749725431203
0.01787138171494
0.0148286465555429
0.0112020811066031
0.0071169873699545
0.0027538957074284
-0.001676867250353
-0.0059635126963257
-0.0099181467667222
-0.0133940577507019
-0.0162930488586425
-0.0185658652335405
-0.0202068891376256
-0.0212434343993663
-0.0217242054641246
-0.0217135939747095
-0.0212933756411075
-0.0205632336437702
-0.0196303725242614
-0.0185910891741514
-0.0175165981054306
-0.0164496824145317
-0.0154074858874082
-0.0143841076642274
-0.0133540155366063
-0.0122792664915323
-0.0111178029328584
-0.0098309759050607
-0.0083914846181869
-0.0067872242070734
-0.005018456839025
-0.0030980645678937
-0.0010591000318527
0.0010429071262478
0.0031399368308484
0.0051665408536791
0.0070722261443734
0.0088268909603357
0.0104188602417707
0.0118500459939241
0.0131314042955636
0.0142780374735593
0.0153047703206539
0.0162237901240587
0.017044149339199
0.0177743770182132
0.0184275042265653
0.0190200675278902
0.0195618253201246
0.0200479533523321
0.0204615145921707
0.0207794681191444
0.0209728367626667
0.0209987331181764
0.0207907948642969
0.0202578231692314
0.0192957818508148
0.0178094878792762
0.0157354045659303
0.013059951364994
0.0098303649574518
0.0061563593335449
0.0022021871991455
-0.0018347059376537
-0.0057562822476029
-0.009391420520842
-0.012607792392373
-0.0153138637542724
-0.017457565292716
-0.0190220847725868
-0.020020954310894
-0.0204963274300098
-0.0205170288681983
-0.0201703421771526
-0.0195507518947124
-0.018750861287117
-0.0178537219762802
-0.0169242545962333
-0.0159996021538972
-0.0150867793709039
-0.0141747798770666
-0.0132499579340219
-0.0123003777116537
-0.0113118914887309
-0.0102665545418858
-0.0091460421681404
-0.0079359794035553
-0.0066289179958403
-0.005225533619523
-0.0037342275027185
-0.0021708458662033
-0.0005585614126175
0.0010723975719884
0.0026871780864894
0.0042541795410215
0.0057504419237375
0.0071560651995241
0.008447341620922
0.0096000954508781
0.0105988839641213
0.0114419963210821
0.0121400747448205
0.0127111757174134
0.0131745114922523
0.0135455848649144
0.0138347772881388
0.0140483658760786
0.0141889778897166
0.0142522100359201
0.0142191620543599
0.0140496417880058
0.0136772599071264
0.0130059104412794
0.0119170416146516
0.0102946823462843
0.0080587612465024
0.0051916106604039
0.001748826354742
-0.0021459944546222
-0.0063174627721309
-0.0105597591027617
-0.0146604161709547
-0.0184246022254228
-0.02169487811625
-0.0243616048246622
-0.0263623800128698
-0.0276740156114101
-0.0283069685101509
-0.0283073149621486
-0.0277580190449953
-0.0267702005803585
-0.0254664793610572
-0.0239640995860099
-0.0223626475781202
-0.0207386575639247
-0.0191445276141166
-0.0176068246364593
-0.0161261688917875
-0.0146822575479745
-0.0132414950057864
-0.0117637924849987
-0.0102069173008203
-0.0085303699597716
-0.0067046321928501
-0.0047231130301952
-0.0026058284565806
-0.0003934325650334
0.0018615368753671
0.0041037811897695
0.0062843495979905
0.0083662839606404
0.0103253303095698
0.0121472366154193
0.0138228302821516
0.0153446467593312
0.0167081281542778
0.0179133415222167
0.0189642310142517
0.0198682807385921
0.0206345245242118
0.0212672166526317
0.0217631012201309
0.022116158157587
0.0223229527473449
0.0223861671984195
0.0223189871758222
0.0221471991389989
0.0219006799161434
0.0215932726860046
0.0212023742496967
0.0206600558012723
0.0198591947555542
0.018673688173294
0.0169896036386489
0.0147382672876119
0.011915598064661
0.0085799675434827
0.004840382374823
0.000845230417326
-0.0032318194862455
-0.0072095897048711
-0.0109168486669659
-0.0142082478851079
-0.0169762410223484
-0.0191549807786941
-0.020717991515994
-0.0216747410595417
-0.0220653899013996
-0.0219503119587898
-0.0213979389518499
-0.0204774364829063
-0.0192590858787298
-0.0178197417408227
-0.0162428431212902
-0.0146071761846542
-0.0129727451130747
-0.0113729555159807
-0.0098145306110382
-0.0082837287336587
-0.0067560230381786
-0.0052043884061276
-0.0036034686490893
-0.0019320016726851
-0.0001770071685314
0.0016611255705356
0.0035685040056705
0.0055242418311536
0.0075033027678728
0.009470616467297
0.0113783627748489
0.013173809275031
0.0148109653964638
0.0162585750222206
0.0175023227930068
0.0185420718044042
0.0193866342306137
0.0200502686202526
0.0205526053905487
0.0209183804690837
0.0211754199117422
0.021352756768465
0.0214785132557153
0.0215775221586227
0.0216671805828809
0.021749535575509
0.0218028910458087
0.0217753686010837
0.0215835403650999
0.0211205035448074
0.0202709659934043
0.0189304649829864
0.0170267410576343
0.0145363099873065
0.011492034420371
0.0079839546233415
0.0041538514196872
0.0001798057928681
-0.0037479666061699
-0.007449610158801
-0.0107730524614453
-0.0136094614863395
-0.0159005727618932
-0.0176343899220228
-0.0188354756683111
-0.01955471560359
-0.0198599807918071
-0.0198276452720165
-0.0195353887975215
-0.019057210534811
-0.0184601545333862
-0.0178011544048786
-0.0171238966286182
-0.0164558254182338
-0.0158041771501302
-0.0151541978120803
-0.0144757740199565
-0.0137371011078357
-0.0129159521311521
-0.0120020005851984
-0.0109927505254745
-0.0098902657628059
-0.0087016057223081
-0.0074401390738785
-0.0061252592131495
-0.004781789612025
-0.0034397765994071
-0.0021315277554094
-0.0008862507529556
0.0002725981175899
0.0013284147717058
0.0022749044001102
0.0031165638938546
0.0038625011220574
0.0045213960111141
0.0051011480391025
0.0056092902086675
0.0060546570457518
0.006449298467487
0.0068070823326706
0.0071412855759263
0.0074600577354431
0.007754205726087
0.0079821608960628
0.0080625088885426
0.007878023199737
0.0072927242144942
0.0061810361221432
0.0044569559395313
0.0020898366346955
-0.0008914060890674
-0.0043974081054329
-0.0082823270931839
-0.0123583478853106
-0.0164186842739582
-0.0202620588243007
-0.0237126443535089
-0.0266330912709236
-0.0289320405572652
