bvp
0.007454328238964
0.0085492907091975
0.0099257407709956
0.0116357859224081
0.0137117551639676
0.0161576922982931
0.0189407505095005
0.0219857599586248
0.0251777209341526
0.028369802981615
0.0313925594091415
0.0340640358626842
0.0362016782164573
0.0376361869275569
0.0382288843393325
0.0378931872546672
0.0366140753030777
0.0344572104513645
0.0315660685300827
0.028150912374258
0.0244712326675653
0.0208109021186828
0.0174481496214866
0.0146263968199491
0.0125323720276355
0.0112834265455603
0.0109191946685314
0.011395001783967
0.0125857228413224
0.0143047608435153
0.0163304209709167
0.0184324290603399
0.020393555983901
0.0220213700085878
0.0231468360871076
0.0236153043806552
0.0232845265418291
0.0220299921929836
0.0197507366538047
0.0163882058113813
0.0119654387235641
0.0066282413899898
0.0006727986037731
-0.0054404763504862
-0.0110925184562802
-0.0155508825555443
-0.018066955730319
-0.0180027317255735
-0.0149398297071456
-0.0087371030822396
0.0004682205617427
0.0122867273166775
0.0261054411530494
0.0411926358938217
0.0569312423467636
0.0730373114347457
0.0896038264036178
0.1069830805063247
0.1256110370159149
0.1458390355110168
0.1677747666835785
0.1911430060863495
0.2152273952960968
0.2389440834522247
0.2610273063182831
0.280247688293457
0.2955756485462188
0.3062453866004944
0.3117356896400451
0.3117127418518066
0.3059764504432678
0.2944420874118805
0.27717125415802
0.2544381618499756
0.2267881035804748
0.1950470805168151
0.1602842807769775
0.1237523257732391
0.0868088603019714
0.0508112907409668
0.0169966220855712
-0.013627141714096
-0.040364921092987
-0.0628916472196579
-0.0812714844942092
-0.0959296524524688
-0.1075873970985412
-0.1171761453151702
-0.1257354915142059
-0.1342990696430206
-0.1437797546386718
-0.1548710912466049
-0.1679870039224624
-0.1832489520311355
-0.2005056887865066
-0.2193675339221954
-0.2392522990703582
-0.2594437599182129
-0.2791591882705688
-0.2976257801055908
-0.3141603469848633
-0.3282357454299927
-0.3395179510116577
-0.3478695750236511
-0.3533269762992859
-0.3560664057731628
-0.3563712537288666
-0.3545970618724823
-0.3511261343955993
-0.3463224470615387
-0.340503066778183
-0.333924651145935
-0.3267780244350433
-0.3191909193992615
-0.3112406730651855
-0.3029810190200805
-0.294483333826065
-0.2858658730983734
-0.2772791683673858
-0.2688639163970947
-0.2607197761535644
-0.2529039680957794
-0.2454651594161987
-0.2384955883026123
-0.2321583330631256
-0.2266579270362854
-0.2221685349941253
-0.2187617421150207
-0.2163603454828262
-0.2147213071584701
-0.2134449183940887
-0.2120011299848556
-0.2097636014223098
-0.2060606032609939
-0.2002519369125366
-0.1918150335550308
-0.1804123967885971
-0.1659259796142578
-0.1484570503234863
-0.1282996833324432
-0.1058985441923141
-0.0817975848913192
-0.0565875023603439
-0.030857428908348
-0.0051495432853698
0.0200849920511245
0.0445221960544586
0.0679820924997329
0.0904167890548706
0.1118648648262023
0.1323798596858978
0.1519675105810165
0.1705737113952636
0.1881203949451446
0.2045463621616363
0.2198260128498077
0.2339731752872467
0.2470416277647018
0.259124219417572
0.2703459858894348
0.2808462977409363
0.2907537519931793
0.300161749124527
0.3091002404689789
0.3174964189529419
0.3251406252384186
0.3316867351531982
0.3366972506046295
0.3397229313850403
0.3404124081134796
0.3386408984661102
0.3346039652824402
0.3288109600543976
0.3219760060310364
0.3148650228977203
0.3081510663032532
0.3023093342781067
0.2975727915763855
0.2939493060111999
0.2912689447402954
0.2892181873321533
0.2873862385749817
0.2853696346282959
0.2828758955001831
0.2797512412071228
0.2759475409984588
0.2714759409427643
0.2663762271404266
0.2607015669345855
0.2544972896575928
0.2477708160877227
0.2404718399047851
0.2324916869401931
0.22368024289608
0.2138843685388565
0.2029997110366821
0.1910098493099212
0.1779899448156356
0.1640753149986267
0.1494259238243103
0.1342218071222305
0.1186900064349174
0.1031335592269897
0.0879314839839935
0.0734936594963073
0.0601729303598403
0.0481513068079948
0.037331074476242
0.0272731706500053
0.017225407063961
0.0062595903873443
-0.0065208077430725
-0.021786630153656
-0.0398665070533752
-0.0607228949666023
-0.0840038806200027
-0.1091329455375671
-0.1354028731584549
-0.1620682477951049
-0.1884411126375198
-0.2139727473258972
-0.2382901012897491
-0.2611790001392364
-0.2825367450714111
-0.3023197054862976
-0.3204948902130127
-0.336995780467987
-0.3516878485679626
-0.3643553256988525
-0.3747106194496155
-0.382423996925354
-0.3871709108352661
-0.388680100440979
-0.3867711722850799
-0.3813884258270263
-0.3726303279399872
-0.360759973526001
-0.3461891114711761
-0.3294374942779541
-0.3110764026641845
-0.2916702032089233
-0.2717261612415313
-0.2516582608222961
-0.2317676246166229
-0.2122434228658676
-0.1931858211755752
-0.1746399998664856
-0.1566247791051864
-0.1391487121582031
-0.1222144365310669
-0.1058150306344032
-0.0899317562580108
-0.0745438560843467
-0.0596482008695602
-0.0452719628810882
-0.0314659401774406
-0.0182866230607032
-0.0057828575372695
0.0060101449489593
0.017075128853321
0.0274175405502319
0.0370671972632408
0.0460731238126754
0.0544943362474441
0.0623909160494804
0.069815956056118
0.0768100321292877
0.0833985581994056
0.0895890071988105
0.0953712463378906
0.1007245928049087
0.1056265830993652
0.1100576072931289
0.1140019595623016
0.1174504309892654
0.1204088553786277
0.1229086220264434
0.1250096261501312
0.12679423391819
0.1283580660820007
0.1297966688871383
0.1311885714530944
0.1325835287570953
0.133999302983284
0.1354244798421859
0.1368254870176315
0.1381549388170242
0.1393580138683319
0.1403766572475433
0.1411523967981338
0.1416276395320892
0.1417503952980041
0.1414840966463089
0.140810340642929
0.1397208869457245
0.1382124572992324
0.1362878084182739
0.1339561194181442
0.1312320679426193
0.1281347423791885
0.1246872022747993
0.1209178194403648
0.1168576627969741
0.1125281900167465
0.1079243198037147
0.1030031591653823
0.0976869985461235
0.0918872505426406
0.0855490863323211
0.0786970257759094
0.07145257294178
0.0640194118022918
0.0566505417227745
0.0496061891317367
0.0431137382984161
0.0373418070375919
0.0323886051774024
0.0282812844961881
0.0249833445996046
0.0224064867943525
0.0204261820763349
0.0188992246985435
0.0176804810762405
0.0166386291384696
0.0156694464385509
0.0147009305655956
0.0136869978159666
0.0125979399308562
0.0114174932241439
0.0101436600089073
0.008785605430603
0.0073568783700466
0.005869482178241
0.0043316539376974
0.0027491757646203
0.0011272765696048
-0.0005276016891002
-0.0022058635950088
-0.0038947723805904
-0.0055786501616239
-0.0072373058646917
-0.0088495202362537
-0.0104042384773492
-0.011909257620573
-0.0133896619081497
-0.0148782879114151
-0.0164050199091434
-0.0179913751780986
-0.0196508094668388
-0.0213897451758384
-0.0232080109417438
-0.0251016877591609
-0.0270690470933914
-0.0291189663112163
-0.0312805920839309
-0.0336079075932502
-0.0361724086105823
-0.0390489548444747
-0.0423043183982372
-0.0459867380559444
-0.0501111857593059
-0.0546460933983325
-0.0595113560557365
-0.0645876824855804
-0.0697291418910026
-0.0747758448123931
-0.0795697495341301
-0.0839709714055061
-0.087867371737957
-0.0911763533949852
-0.0938424170017242
-0.095832958817482
-0.0971351489424705
-0.0977572873234748
-0.097734235227108
-0.0971284210681915
-0.0960209891200065
-0.0944993272423744
-0.0926463231444358
-0.0905314683914184
-0.0882048159837722
-0.0856953337788581
-0.0830143392086029
-0.0801616236567497
-0.0771309733390808
-0.0739149078726768
-0.0705093666911125
-0.0669147968292236
-0.0631326884031295
-0.0591669529676437
-0.0550359599292278
-0.0507839396595954
-0.0464772209525108
-0.0421884544193744
-0.0379829294979572
-0.0339125320315361
-0.0300139673054218
-0.0263078846037387
-0.0227976497262716
-0.0194695871323347
-0.0162971597164869
-0.0132486270740628
-0.0102959042415022
-0.0074202353134751
-0.0046146754175424
-0.0018947757780551
0.0006811618804931
0.0030044736340641
0.0049354108050465
0.0063369600102305
0.0071061728522181
0.0071961432695388
0.0066264332272112
0.0054814480245113
0.003898540046066
0.0020480102393776
0.0001097058411687
-0.0017466355348005
-0.0033730985596776
-0.0046469140797853
-0.0054692747071385
-0.0057702357880771
-0.0055225640535354
-0.004748273640871
-0.0035084253177046
-0.0018881969153881
1.4331191778182983e-05
0.0020992876961827
0.0042774491012096
0.0064803473651409
0.0086645279079675
0.0108106508851051
0.0129203526303172
0.0150114567950367
0.0171120427548885
0.0192548185586929
0.0214718021452426
0.0237860232591629
0.0261993668973445
0.028686236590147
0.0312000680714845
0.0336852073669433
0.036086730659008
0.0383581258356571
0.0404670163989067
0.0423967316746711
0.0441412776708602
0.0456983521580696
0.0470672734081745
0.0482496805489063
0.0492480099201202
0.0500645339488983
0.0507062748074531
0.0511889159679412
0.0515304394066333
0.051741324365139
0.0518180839717388
0.0517361536622047
0.051441952586174
0.0508486926555633
0.049841221421957
0.0482952520251274
0.0461078137159347
0.0432257428765296
0.0396607369184494
0.0354896076023578
0.0308446902781724
0.0258996412158012
0.020853217691183
0.0159075204282999
0.0112414387986063
0.0069921570830047
0.0032521761022508
7.43204727768898e-05
-0.0025236182846128
-0.0045549441128969
-0.0060590393841266
-0.0070957578718662
-0.007739613763988
-0.0080729871988296
-0.008177937939763
-0.0081274239346385
-0.0079781059175729
-0.0077667762525379
-0.0075092846527695
-0.0072030844166874
-0.0068374257534742
-0.0064044645987451
-0.0059014605358242
-0.0053280214779078
-0.0046851616352796
-0.0039766570553183
-0.0032128680031746
-0.002416813513264
-0.001629191217944
-0.0009073531255125
-0.0003152242861688
9.22901090234518e-05
0.000284687615931
0.0002699648030102
0.0001035332679748
-0.000118947122246
-0.0002864832058548
-0.0002989638596773
-8.313776925206184e-05
0.0003937231376767
0.0011076033115386
0.0019695265218615
0.0028336951509118
0.0035197380930185
0.0038433922454714
0.00364844314754
0.0028322795405983
0.0013604499399662
-0.0007311347872018
-0.0033428482711315
-0.0063223866745829
-0.0094828009605407
-0.0126271899789571
-0.0155709516257047
-0.0181577205657959
-0.0202705040574073
-0.0218381453305482
-0.0228379592299461
-0.0232945643365383
-0.0232736058533191
-0.02287108451128
-0.0221994575113058
-0.0213709585368633
-0.0204812325537204
-0.0195976477116346
-0.0187528803944587
-0.0179440006613731
-0.0171403065323829
-0.0163001716136932
-0.0153881451115012
-0.0143822124227881
-0.0132708996534347
-0.0120475627481937
-0.0107090594246983
-0.0092585310339927
-0.0077070938423275
-0.0060741109773516
-0.004387809894979
-0.0026842332445085
-0.0010031457059085
0.0006185267120599
0.0021553165279328
0.0035996404476463
0.0049593057483434
0.0062469546683132
0.0074699739925563
0.0086247976869344
0.0096914432942867
0.0106265572831034
0.0113586224615573
0.0117881130427122
0.0117949061095714
0.0112558547407388
0.0100706182420253
0.0081862155348062
0.0056114285252988
0.0024209818802773
-0.0012462139129638
-0.0051972968503832
-0.0092116622254252
-0.0130761787295341
-0.0166099928319454
-0.0196722224354743
-0.022159656509757
-0.0240039229393005
-0.0251734610646963
-0.0256755203008651
-0.025552611798048
-0.024875434115529
-0.0237349141389131
-0.0222336389124393
-0.0204769484698772
-0.0185643061995506
-0.0165800377726554
-0.0145828016102314
-0.0126006994396448
-0.0106381941586732
-0.0086875092238187
-0.0067367302253842
-0.0047753024846315
-0.0027970634400844
-0.0008001308888196
0.0012152409180998
0.0032490193843841
0.005301303230226
0.0073688388802111
0.00944060459733
0.0114963948726654
0.0135103147476911
0.0154575891792774
0.0173203088343143
0.0190861206501722
0.0207410622388124
0.0222673118114471
0.0236494205892086
0.0248806215822696
0.025962471961975
0.0268983431160449
0.0276840701699256
0.0282974988222122
0.0286877900362014
0.0287687890231609
0.0284238867461681
0.0275242961943149
0.025954533368349
0.0236400682479143
0.0205733031034469
0.0168256107717752
0.0125366374850273
0.0078912079334259
0.0030955057591199
-0.0016455887816846
-0.0061463024467229
-0.0102485418319702
-0.0138233844190835
-0.0167712643742561
-0.0190239045768976
-0.0205475036054849
-0.0213455259799957
-0.0214586239308118
-0.0209601782262325
-0.0199470482766628
-0.0185249149799346
-0.0167936906218528
-0.0148430969566106
-0.0127563504502177
-0.0106098670512437
-0.0084669375792145
-0.0063709206879138
-0.0043401280418038
-0.0023669581860303
-0.0004235068336129
0.0015270747244358
0.0035161562263965
0.005558144301176
0.0076477136462926
0.0097653027623891
0.0118855247274041
0.0139842759817838
0.0160406418144702
0.0180309638381004
0.0199221614748239
0.0216733161360025
0.0232435092329978
0.0245991107076406
0.025717306882143
0.026586877182126
0.02720926143229
0.0275994930416345
0.0277829803526401
0.0277887862175703
0.0276449564844369
0.0273762289434671
0.0270007420331239
0.0265240781009197
0.0259259287267923
0.0251410156488418
0.0240521226078271
0.0225072093307971
0.0203518662601709
0.017464205622673
0.0137854795902967
0.0093408999964594
0.0042455242946743
-0.0013073151931166
-0.007072711829096
-0.0127873001620173
-0.0181989390403032
-0.0230885110795497
-0.0272830836474895
-0.0306609980762004
-0.0331553444266319
-0.0347606651484966
-0.0355345830321311
-0.0355865061283111
-0.0350580662488937
-0.0341030396521091
-0.0328698381781578
-0.0314872190356254
-0.0300530400127172
-0.0286265313625335
-0.0272279977798461
-0.0258467551320791
-0.0244517512619495
-0.0230006389319896
-0.0214458312839269
-0.0197388995438814
-0.017840078100562
-0.0157346855849027
-0.0134437307715415
-0.0110180266201496
-0.0085219535976648
-0.0060183824971318
-0.0035599637776613
-0.0011870235903188
0.0010703280568122
0.0031893630512058
0.0051544187590479
0.0069597959518432
0.0086106415838003
0.0101186651736497
0.0114996396005153
0.0127766635268926
0.0139786433428525
0.0151273859664797
0.0162249840795993
0.0172502808272838
0.0181573908776044
0.0188690945506095
0.0192713811993598
0.0192217361181974
0.0185732468962669
0.0172054227441549
0.0150525644421577
0.0121221914887428
0.0084989722818136
0.0043381955474615
-0.0001459149643778
-0.0047004744410514
-0.0090675260871648
-0.0130219487473368
-0.0163954459130764
-0.0190806780010461
-0.0210242867469787
-0.0222184415906667
-0.0226956829428672
-0.0225250236690044
-0.0218037106096744
-0.0206457860767841
-0.0191715210676193
-0.0174960438162088
-0.0157179459929466
-0.0139125259593129
-0.0121286492794752
-0.0103864818811416
-0.0086801974102854
-0.0069896192289888
-0.005294204223901
-0.0035798160824924
-0.0018374994397163
-6.0984399169683456e-05
0.0017528287135064
0.0036019589751958
0.0054784342646598
0.0073691764846444
0.0092561710625886
0.0111152809113264
0.0129179591313004
0.0146357975900173
0.0162445530295372
0.0177276823669672
0.0190764963626861
0.0202835220843553
0.0213362965732812
0.0222201850265264
0.0229262113571167
0.0234547369182109
0.0238144602626562
0.0240213181823492
0.0240958835929632
0.0240534394979476
0.0238864663988351
0.0235478989779949
0.022942965850234
0.0219363868236541
0.0203806515783071
0.0181566346436738
0.0152042554691433
0.0115318559110164
0.0072151124477386
0.0023929383605718
-0.0027455650269985
-0.0079818964004516
-0.0130895068868994
-0.0178528148680925
-0.0220829360187053
-0.0256302561610937
-0.0283935628831386
-0.0303255338221788
-0.0314331129193306
-0.0317703001201152
-0.031425479799509
-0.0305078718811273
-0.0291379168629646
-0.027442567050457
-0.0255490783601999
-0.0235726460814476
-0.0216022953391075
-0.0196922942996025
-0.0178621318191289
-0.0161033663898706
-0.0143887354061007
-0.0126806059852242
-0.0109385093674063
-0.0091259330511093
-0.0072156712412834
-0.0051931627094745
-0.0030572053510695
-0.0008172499947249
0.0015073607210069
0.0038821143098175
0.0062548853456974
0.0085630305111408
0.0107444729655981
0.0127480775117874
0.0145426094532012
0.0161202065646648
0.0174911301583051
0.0186749100685119
0.0196958631277084
0.0205827802419662
0.0213655419647693
0.0220685862004756
0.022709434852004
0.0233022440224885
0.023855211213231
0.0243551116436719
0.0247474666684865
0.024928156286478
0.0247534178197383
0.0240618716925382
0.0227003321051597
0.0205522440373897
0.0175660643726587
0.0137734878808259
0.009290587157011
0.0043037799187004
-0.0009535797871649
-0.006228401325643
-0.0112727778032422
-0.0158627927303314
-0.019815307110548
-0.0230046734213829
-0.0253722034394741
-0.0269242972135543
-0.0277222916483879
-0.0278667733073234
-0.0274788122624158
-0.0266822688281536
-0.0255909077823162
-0.0243011713027954
-0.0228879824280738
-0.0214025042951107
-0.019873721525073
-0.0183125883340835
-0.0167143046855926
-0.0150587204843759
-0.0133163295686244
-0.0114633031189441
-0.0094947107136249
-0.0074252020567655
-0.0052822912111878
-0.0031010319944471
-0.0009200240019708
0.0012233885936439
0.0032975459471344
0.0052789915353059
0.0071533787995576
0.0089149847626686
0.0105636101216077
0.0120997931808233
0.013523731380701
0.0148393884301185
0.0160551685839891
0.0171768739819526
0.0182022266089916
0.0191228035837411
0.0199285335838794
0.0206120014190673
0.0211723428219556
0.021615732461214
0.0219514891505241
0.0221845023334026
0.022302147001028
0.0222590714693069
0.0219706911593675
0.0213207099586725
0.0201810523867607
0.0184411723166704
0.016035296022892
0.0129563705995678
0.009260524995625
0.0050671324133872
0.0005506961606442
-0.0040781004354357
-0.0085976207628846
-0.0127971787005662
-0.0164916068315505
-0.0195342898368835
-0.0218305718153715
-0.0233461912721395
-0.0241068303585052
-0.0241889152675867
-0.0237041544169187
-0.0227802023291587
-0.0215433165431022
-0.020110772922635
-0.0185886062681674
-0.017064094543457
-0.0155955832451581
-0.0142080299556255
-0.0128957442939281
-0.0116298450157046
-0.0103675909340381
-0.009062266908586
-0.007670777849853
-0.0061579439789056
-0.0045031243935227
-0.0027079903520643
-0.0007954502943903
0.001200437080115
0.0032405415549874
0.0052773905918002
0.0072545516304671
0.009115558117628
0.010812702588737
0.0123095838353037
0.0135832214727997
0.0146293966099619
0.015465316362679
0.0161229446530342
0.0166374500840902
0.0170415751636028
0.0173665583133697
0.0176408179104328
0.0178856197744607
0.0181154552847147
0.0183397401124238
0.018555523827672
0.0187362097203731
0.0188254788517951
0.0187342390418052
0.0183411054313182
0.0175040159374475
0.0160824079066514
0.013962329365313
0.0110802771523594
0.0074420673772692
0.00313067343086
-0.0016993265599012
-0.0068387845531105
-0.0120484307408332
-0.0170857273042202
-0.0217323079705238
-0.025818271562457
-0.0292331986129283
-0.0319218449294567
-0.0338731221854686
-0.0351081825792789
-0.0356725864112377
-0.0356337875127792
-0.0350758656859397
-0.0340889990329742
-0.0327605456113815
-0.0311712753027677
-0.0293932054191827
-0.0274857301265001
-0.0254901740700006
-0.0234252475202083
-0.0212910007685422
-0.0190829783678054
-0.0168023277074098
-0.0144544625654816
-0.0120460456237196
-0.0095854420214891
-0.007082937285304
-0.0045500183477997
-0.0019996175542473
0.0005523664876818
0.0030853655189275
0.0055740722455084
0.0079906787723302
0.0103091048076748
0.0125117087736725
0.0145938983187079
0.0165581814944744
0.0184017568826675
0.0201117824763059
0.0216713864356279
0.0230676978826522
0.0242964271456003
0.025363827124238
0.0262854304164648
0.0270806234329938
0.0277675706893205
0.0283600967377424
0.0288640167564153
0.0292735919356346
0.0295653641223907
0.0296870749443769
0.0295499134808778
0.0290301106870174
0.0279798470437526
0.0262523833662271
0.0237395428121089
0.0204053446650505
0.0163027271628379
0.0115705486387014
0.006413759663701
0.0010738263372331
-0.0042015756480395
-0.0091835698112845
-0.0136798713356256
-0.017544150352478
-0.0206772293895483
-0.0230232756584882
-0.0245665702968835
-0.0253336373716592
-0.0253973584622144
-0.0248731318861246
-0.0239025391638278
-0.0226299241185188
-0.0211824122816324
-0.0196602195501327
-0.018133396282792
-0.0166389923542737
-0.0151814389973878
-0.0137408096343278
-0.0122857429087162
-0.0107828481122851
-0.0091997291892766
-0.0075066941790282
-0.0056812549009919
-0.0037150513380765
-0.0016217194497585
0.0005595069378614
0.0027701957151293
0.0049453061074018
0.0070248958654701
0.0089632393792271
0.0107335401698946
0.0123261613771319
0.0137433111667633
0.0149946808815002
0.0160955749452114
0.0170652624219656
0.0179227869957685
0.0186845753341913
0.0193679090589284
0.0199908129870891
0.0205625258386135
0.0210770294070243
0.0215184707194566
0.0218691173940897
0.0221065133810043
0.0221900325268507
0.0220486354082822
0.0215790569782257
0.0206564683467149
0.0191555954515934
0.0169791579246521
0.014086352661252
0.0105102565139532
0.0063606286421418
0.0018146592192351
-0.0029064009431749
-0.0075728595256805
-0.0119784567505121
-0.0159540362656116
-0.0193676613271236
-0.0221238173544406
-0.0241662748157978
-0.025482352823019
-0.0261038392782211
-0.0261010583490133
-0.0255732703953981
-0.0246389340609312
-0.0234232041984796
-0.0220425333827734
-0.0205895788967609
-0.0191212017089128
-0.0176570583134889
-0.0161924306303262
-0.0147142941132187
-0.013209213502705
-0.0116643123328685
-0.0100674116984009
-0.0084092477336525
-0.0066862241365015
-0.0049007581546902
-0.0030594170093536
-0.00117151835002
0.0007505340036004
0.0026910852175205
0.0046328329481184
0.0065600648522377
0.0084629897028207
0.0103368833661079
0.012171939946711
0.0139443688094615
0.0156184444203972
0.0171555653214454
0.0185228940099477
0.0196986328810453
0.0206752102822065
0.0214594509452581
0.0220660846680402
0.0225096065551042
0.022801749408245
0.0229508932679891
0.022957494482398
0.0228048581629991
0.0224476568400859
0.0218018069863319
0.0207425877451896
0.0191201753914356
0.0167927891016006
0.0136661119759082
0.0097249876707792
0.0050477590411901
-0.0002001393586397
-0.0057901619002223
-0.0114625133574008
-0.0169580541551113
-0.0220456086099147
-0.0265385583043098
-0.0303008630871772
-0.0332478731870651
-0.0353431515395641
-0.0365958362817764
-0.0370622016489505
-0.0368417203426361
-0.0360615327954292
-0.0348572805523872
-0.0333573631942272
-0.0316724814474582
-0.0298885330557823
-0.0280602388083934
-0.0262099411338567
-0.0243341531604528
-0.0224123019725084
-0.0204153042286634
-0.0183143559843301
-0.0160865169018507
-0.0137154571712017
-0.0111931124702095
-0.0085252877324819
-0.0057348296977579
-0.0028585311956703
5.865143612027168e-05
0.0029697325080633
0.0058307466097176
0.0086026489734649
0.0112517476081848
0.0137503687292337
0.0160762872546911
0.0182113647460937
0.0201414339244365
0.0218576695770025
0.0233601108193397
0.0246616750955581
0.0257835760712623
0.0267409179359674
0.0275338999927043
0.0281531866639852
0.0285910982638597
0.0288495644927024
0.0289415922015905
0.0288867615163326
0.0287022963166236
0.0283897593617439
0.0279189217835664
0.0272140428423881
0.0261517986655235
0.024580493569374
0.0223596151918172
0.0194034483283758
0.0157055221498012
0.0113356010988354
0.0064247581176459
0.0011515021324157
-0.0042742472141981
-0.0096330232918262
-0.0147173125296831
-0.0193439647555351
-0.0233595706522464
-0.0266473516821861
-0.0291353799402713
-0.0308002438396215
-0.031666524708271
-0.03180443495512
-0.0313203483819961
-0.0303379446268081
-0.0289849359542131
-0.0273948237299919
-0.0257086399942636
-0.024064365774393
-0.0225775185972452
-0.021315798163414
-0.0202727001160383
-0.0193558800965547
-0.0184038374572992
-0.0172277688980102
-0.0156636796891689
-0.0136183192953467
-0.011094668880105
-0.0081918537616729
-0.0050848638638854
-0.0019898591563105
0.0008757514879107
0.0033247740939259
0.0052204057574272
0.006489735096693
0.0071292044594883
0.0071989940479397
0.0068094572052359
0.006106742657721
0.0052597899921238
0.0044464725069701
0.0038406075909733
0.0036024348810315
0.0038705947808921
0.0047523970715701
0.0063139353878796
0.0085744028910994
0.0115026794373989
0.0150131806731224
0.0189643539488315
0.023162841796875
0.0273729152977466
0.031328659504652
0.0347485914826393
0.0373581461608409
0.0389216728508472
0.0392745696008205
0.0383465439081192
0.0361724905669689
0.032887976616621
0.0287115238606929
0.0239197965711355
0.0188181269913911
0.013705906458199
0.0088430102914571
0.0044286088086664
0.0005950778722763
-0.0025883575435727
-0.0051068915054202
-0.0069905137643218
-0.008305836468935
-0.009146524593234
-0.009619828313589
-0.0098318438977003
-0.0098758852109313
-0.009825618006289
-0.009731438010931
-0.0096179377287626
-0.0094833206385374
-0.009305995889008
-0.0090578235685825
-0.008715147152543
-0.0082636084407567
-0.0076978313736617
-0.0070173921994864
-0.0062230583280324
-0.0053172819316387
-0.0043084453791379
-0.0032130302861332
-0.002052925992757
-0.0008529806509613
0.0003593685105443
0.0015558777377009
0.0027121459133923
0.0038126618601381
0.0048495684750378
0.0058139427565038
0.006689584814012
0.0074564889073371
0.0080988723784685
0.0086101563647389
0.0089943995699286
0.0092649115249514
0.009440267458558
0.0095408195629715
0.0095845414325594
0.0095791947096586
0.0095124375075101
0.0093412073329091
0.008984874933958
0.0083307139575481
0.0072512850165367
0.0056268107146024
0.0033704247325658
0.0004527606070041
-0.00308399181813
-0.0071280524134635
-0.0115122655406594
-0.0160352252423763
-0.0204852446913719
-0.0246615894138813
-0.0283899344503879
-0.0315330326557159
-0.0339964069426059
-0.0357288755476474
-0.0367196686565876
-0.0369938015937805
-0.0366094708442688
-0.0356585532426834
-0.0342627465724945
-0.0325594954192638
-0.0306826792657375
-0.0287454091012477
-0.0268271248787641
-0.0249653421342372
-0.0231516994535923
-0.0213352125138044
-0.0194387417286634
-0.0173842310905456
-0.0151159232482314
-0.0126164779067039
-0.0099111748859286
-0.0070589696988463
-0.0041402895003557
-0.0012491603847593
0.001513591967523
0.0040518026798963
0.0062896688468754
0.0081837177276611
0.0097252083942294
0.0109364353120327
0.0118654519319534
0.0125790350139141
0.0131538724526762
0.013667456805706
0.0141891203820705
0.0147723145782947
0.015452180057764
0.0162492338567972
0.0171700194478034
0.0182005502283573
0.0193043574690818
0.0204305816441774
0.0215237122029066
0.0225280690938234
0.0233839694410562
0.0240187756717205
0.0243415106087923
0.0242442227900028
0.0236103553324937
0.0223331842571496
0.02034174464643
0.0176240932196378
0.0142399296164512
0.0103198466822505
0.0060496358200907
0.0016413148259744
-0.0026973336935043
-0.0067826127633452
-0.0104649905115365
-0.0136326244100928
-0.0162087883800268
-0.0181501060724258
-0.019449844956398
-0.0201379507780075
-0.0202728677541017
-0.0199323669075965
-0.0192069299519062
-0.0181919373571872
-0.0169758908450603
-0.0156273934990167
-0.0141918798908591
-0.0127010904252529
-0.011180642992258
-0.0096482019871473
-0.0081102019175887
-0.0065634557977318
-0.0050006890669465
-0.0034154262393712
-0.0018024826422333
-0.0001561464741826
0.0015295464545488
0.0032574026845395
0.00502241961658
0.0068093235604465
0.0085953073576092
0.0103570008650422
0.0120729841291904
0.013716971501708
0.0152530986815691
0.0166423637419939
0.0178539119660854
0.018873281776905
0.0197050683200359
0.0203690640628337
0.0208925921469926
0.0213047862052917
0.0216329768300056
0.0218991078436374
0.022118330001831
0.0223007462918758
0.0224548690021038
0.0225880295038223
0.0226940102875232
0.0227290801703929
0.0225960668176412
0.0221520829945802
0.0212362240999937
0.0197047088295221
0.0174635872244834
0.0144920535385608
0.0108512938022613
0.006677237804979
0.0021599121391773
-0.0024830535985529
-0.0070313485339283
-0.0112830847501754
-0.0150692034512758
-0.0182592794299125
-0.0207668393850326
-0.0225588493049144
-0.023658413439989
-0.0241338778287172
-0.0240833647549152
-0.023621255531907
-0.0228636339306831
-0.0219140406697988
-0.0208557676523923
-0.0197499152272939
-0.0186344273388385
-0.017524404451251
-0.01641646027565
-0.0152952820062637
-0.0141368564218282
-0.012908193282783
-0.0115726208314299
-0.0101039735600352
-0.0084979701787233
-0.0067726438865065
-0.0049629411660134
-0.0031133911106735
-0.0012693179305642
0.0005304595106281
0.0022574684116989
0.0038937586359679
0.0054293833673
0.0068597984500229
0.0081840958446264
0.0094041721895337
0.0105270072817802
0.0115676345303654
0.0125440713018178
0.013465535826981
0.0143265109509229
0.0151096628978848
0.0157917514443397
0.0163505803793668
0.0167702734470367
0.0170388333499431
0.0171369258314371
0.0170234534889459
0.0166258327662944
0.0158427786082029
0.0145626701414585
0.0126919541507959
0.0101846233010292
0.0070645329542458
0.0034299055114388
-0.0005649887025356
-0.0047388901002705
-0.0089067071676254
-0.0128934364765882
-0.0165456235408782
-0.0197412502020597
-0.0223926808685064
-0.0244446620345115
-0.0258725993335247
-0.02668197453022
-0.0269086174666881
-0.0266162697225809
-0.0258888751268386
-0.0248199552297592
-0.0234995447099208
-0.0220034327358007
-0.0203931108117103
-0.0187204349786043
-0.0170261412858963
-0.0153348706662654
-0.0136534068733453
-0.0119737880304455
-0.0102796368300914
-0.0085514718666672
-0.0067696506157517
-0.0049189799465239
-0.0029951564501971
-0.0010076877661049
0.0010224527213722
0.0030689339619129
0.0051073664799332
0.007116783875972
0.0090723717585206
0.0109390905126929
0.0126747116446495
0.0142395738512277
0.0156075861304998
0.0167735368013381
0.0177524983882904
0.018573286011815
0.0192697625607252
0.0198718048632144
0.0204006135463714
0.0208702143281698
0.021289974451065
0.0216664019972085
0.0220053810626268
0.0223088059574365
0.022559966892004
0.0227054189890623
0.0226471927016973
0.0222520567476749
0.0213758423924446
0.0198942348361015
0.0177292544394731
0.0148662868887186
0.0113623384386301
0.0073442221619188
0.0029925727285444
-0.0014853463508188
-0.0058820694684982
-0.0100073721259832
-0.0136995688080787
-0.016837315633893
-0.0193511303514242
-0.0212257746607065
-0.022490644827485
-0.0232055447995662
-0.0234472472220659
-0.0232985354959964
-0.0228409990668296
-0.0221506468951702
-0.0212951209396123
-0.0203309915959835
-0.0192994177341461
-0.0182225666940212
-0.0171048566699028
-0.0159376859664917
-0.0147020146250724
-0.0133722433820366
-0.0119285527616739
-0.0103684244677424
-0.0087055014446377
-0.0069614425301551
-0.0051613054238259
-0.0033332537859678
-0.0015085097402334
0.0002809732686728
0.0020071149338036
0.0036496433895081
0.0051976814866065
0.006648376584053
0.0080027086660265
0.0092642707750201
0.0104431053623557
0.0115548772737383
0.0126116964966058
0.0136146731674671
0.0145528959110379
0.0154059315100312
0.016150526702404
0.0167704001069068
0.0172626748681068
0.0176371894776821
0.0179095603525638
0.0180887132883071
0.018161803483963
0.0180839095264673
0.0177779458463192
0.0171460714191198
0.0160902384668588
0.0145337590947747
0.0124361962080001
0.009802371263504
0.0066889463923871
0.0032059233635663
-0.000493417493999
-0.0042339032515883
-0.0078421710059046
-0.0111632458865642
-0.0140686146914958
-0.0164616759866476
-0.0182827748358249
-0.0195117369294166
-0.0201675500720739
-0.0203031469136476
-0.0199943892657756
-0.0193304643034935
-0.018410712480545
-0.0173402912914752
-0.0162172149866819
-0.0151166478171944
-0.0140825184062123
-0.0131284464150667
-0.012243565171957
-0.0113986022770404
-0.010551200248301
-0.0096534024924039
-0.0086606657132506
-0.0075385742820799
-0.0062682162970304
-0.0048488420434296
-0.0032930546440184
-0.0016227792948484
0.0001249345950782
0.0018948228098452
0.0036241533234715
0.0052577294409275
0.0067571485415101
0.0081031853333115
0.0092934183776378
0.0103379795327782
0.0112542985007166
0.012061926536262
0.0127782933413982
0.0134162157773971
0.0139857465401291
0.0144992396235466
0.0149746872484683
0.0154320690780878
0.0158825479447841
0.0163188222795724
0.0167112778872251
0.017004607245326
0.0171139705926179
0.0169293042272329
0.0163309648633003
0.0152111798524856
0.0134965889155864
0.0111665073782205
0.0082592014223337
0.0048663369379937
0.0011226776987314
-0.0028053810819983
-0.006733113899827
-0.0104769235476851
-0.0138782700523734
-0.0168191324919462
-0.0192243047058582
-0.0210577361285686
-0.0223173294216394
-0.0230298340320587
-0.023245919495821
-0.023032646626234
-0.0224648788571357
-0.0216197147965431
-0.0205722451210021
-0.0193899627774953
-0.0181272365152835
-0.016820054501295
-0.0154825337231159
-0.0141118401661515
-0.0127006201073527
-0.0112460432574152
-0.00975127145648
-0.0082228127866983
-0.0066661010496318
-0.0050833220593631
-0.0034751133061945
-0.0018412652425467
-0.0001799864694476
0.0015094708651304
0.0032205842435359
0.0049352683126926
0.006626583635807
0.0082670049741864
0.0098372790962457
0.0113291479647159
0.0127377184107899
0.0140525726601481
0.0152567345649003
0.0163295343518257
0.0172510631382465
0.0180099103599786
0.0186089426279068
0.0190639644861221
0.0193992909044027
0.0196434818208217
0.0198235157877206
0.0199587941169738
0.0200545489788055
0.0200931970030069
0.0200276114046573
0.0197765044867992
0.0192251894623041
0.0182421598583459
0.0167102273553609
0.0145591897889971
0.0117869582027196
0.0084636751562356
0.004722234327346
0.0007389190141111
-0.0032926527783274
-0.0071871858090162
-0.0107858898118138
-0.0139648141339421
-0.016636673361063
-0.018749376758933
-0.0202805921435356
-0.0212339088320732
-0.0216431058943271
-0.0215754602104425
-0.0211242046207189
-0.0203949324786663
-0.0194916352629661
-0.0185032691806554
-0.0174940396100282
-0.0164996329694986
-0.0155285615473985
-0.014567531645298
-0.0135883502662181
-0.0125544359907507
-0.0114270243793725
-0.0101702157407999
-0.0087553178891539
-0.0071690613403916
-0.0054239244200289
-0.0035601709969341
-0.0016369009390473
0.0002819332294166
0.0021398770622909
0.003893899032846
0.0055171987041831
0.0070016430690884
0.0083543639630079
0.0095900353044271
0.0107266949489712
0.0117831081151962
0.0127735929563641
0.0137061402201652
0.0145870801061391
0.0154233053326606
0.0162174757570028
0.0169639699161052
0.0176491178572177
0.0182524658739566
0.0187480766326189
0.0191060248762369
0.0192926432937383
0.0192665234208107
0.018971299752593
0.018333189189434
0.0172698628157377
0.0157087296247482
0.0136083625257015
0.0109779266640543
0.0078881960362195
0.0044660037383437
0.0008713537827134
-0.0027302540838718
-0.0061851432546973
-0.0093579674139618
-0.0121378311887383
-0.0144459949806332
-0.016239047050476
-0.0175061374902725
-0.0182637684047222
-0.0185520816594362
-0.0184327159076929
-0.0179838873445987
-0.0172911044210195
-0.0164351426064968
-0.0154800126329064
-0.0144692249596118
-0.0134342163801193
-0.0124024553224444
-0.0113946637138724
-0.0104169258847832
-0.0094579216092824
-0.0084934001788496
-0.007492889650166
-0.0064261117950081
-0.0052707204595208
-0.0040198527276515
-0.0026833426672965
-0.0012810276821255
0.0001639141701161
0.0016279271803796
0.0030920668505132
0.0045448448508977
0.0059740748256444
0.0073580099269747
0.0086681181564927
0.0098772719502449
0.0109656732529401
0.0119246384128928
0.0127563579007983
0.0134698115289211
0.0140790259465575
0.0146029712632298
0.0150613291189074
0.0154685387387871
0.0158296674489974
0.0161361135542392
0.0163606218993663
0.016449587419629
0.0163124278187751
0.0158222839236259
0.0148395178839564
0.0132467932999134
0.010977704077959
0.0080336853861808
0.0044898097403347
0.0004864032380282
-0.0037918626330792
-0.0081399567425251
-0.0123530887067317
-0.0162438638508319
-0.0196568947285413
-0.0224774181842803
-0.0246312636882066
-0.0260846596211195
-0.0268497560173273
-0.0269856881350278
-0.0265878159552812
-0.0257706455886364
-0.0246514771133661
-0.023337960243225
-0.0219192337244749
-0.020459359511733
-0.0189942512661218
-0.0175346042960882
-0.016073852777481
-0.0145946890115737
-0.0130715863779187
-0.0114741707220673
-0.0097727952525019
-0.007946646772325
-0.0059939427301287
-0.0039359237998723
-0.0018117167055606
0.0003310311585664
0.0024462761357426
0.0044968212023377
0.0064588054083287
0.0083229783922433
0.0100883180275559
0.0117540517821908
0.013318452052772
0.0147796161472797
0.0161344315856695
0.017380641773343
0.0185228027403354
0.0195735432207584
0.0205449275672435
0.0214393436908721
0.0222485773265361
0.0229575894773006
0.0235489383339881
0.0240072663873434
0.0243224650621414
0.0244880784302949
0.0244914088398218
0.0242983903735876
0.0238440223038196
0.023036727681756
0.0217748843133449
0.0199710316956043
0.0175787191838026
0.0146089335903525
0.0111282542347908
0.0072484705597162
0.0031160472426563
-0.0011021397076547
-0.0052365129813551
-0.0091292448341846
-0.0126439072191715
-0.0156724341213703
-0.0181396193802356
-0.0200053229928016
-0.0212648231536149
-0.0219475906342268
-0.0221132300794124
-0.0218405220657587
-0.0212116930633783
-0.0203045718371868
-0.0191962402313947
-0.0179643891751766
-0.0166780948638916
-0.0153859257698059
-0.0141108185052871
-0.0128522804006934
-0.0115922512486577
-0.0103029711171984
-0.0089554702863097
-0.0075263665057718
-0.0060027437284588
-0.0043846284970641
-0.0026837452314794
-0.0009200065396726
0.0008837115019559
0.0027051460929214
0.0045182877220213
0.0062882415950298
0.0079750763252377
0.0095413047820329
0.0109571609646081
0.0122037520632147
0.0132731460034847
0.0141672557219862
0.0148994736373424
0.0154972579330205
0.016000797972083
0.0164588205516338
0.0169236939400434
0.0174439083784818
0.0180551335215568
0.0187711846083402
0.0195754375308752
0.0204184837639331
0.0212225262075662
0.0218847915530204
0.0222785342484712
0.0222588647156953
0.0216790791600942
0.0204152986407279
0.0183918233960866
0.0155998142436146
