bvp
-0.036629281938076
-0.0389664620161056
-0.0408116467297077
-0.0421616733074188
-0.0430330596864223
-0.0434630066156387
-0.0435190647840499
-0.043301448225975
-0.0429138429462909
-0.0424025319516658
-0.0417014434933662
-0.040623515844345
-0.0389060340821743
-0.0362898148596286
-0.0326003246009349
-0.027801314368844
-0.0220099613070487
-0.0154812727123498
-0.0085736103355884
-0.0017025843262672
0.0047094244509935
0.0102796908468008
0.0147035531699657
0.017783461138606
0.0194439683109521
0.019728947430849
0.0187854040414094
0.0168414637446403
0.0141793824732303
0.0110997725278139
0.0078818574547767
0.0047537349164485
0.0018798001110553
-0.0006392821669578
-0.0027608815580606
-0.0044908225536346
-0.0058700963854789
-0.0069602373987436
-0.0078285839408636
-0.0085379285737872
-0.0091468431055545
-0.0097182029858231
-0.0103277033194899
-0.0110643189400434
-0.0120200254023075
-0.013277193531394
-0.0148994084447622
-0.0169190820306539
-0.0193215664476156
-0.0220381766557693
-0.0249546766281127
-0.0279286354780197
-0.0308076366782188
-0.0334457494318485
-0.0357164666056633
-0.0375195145606994
-0.0387815274298191
-0.0394535586237907
-0.039510790258646
-0.0389553122222423
-0.037815723568201
-0.0361445434391498
-0.0340178273618221
-0.0315310545265674
-0.0287872459739446
-0.0258838888257741
-0.0229048952460289
-0.019916296005249
-0.0169625468552112
-0.0140653299167752
-0.0112264361232519
-0.0084333010017871
-0.0056662205606698
-0.0029043704271316
-0.0001292079687118
0.0026735551655292
0.005512211471796
0.0083843097090721
0.0112707819789648
0.0141366645693779
0.0169386975467205
0.0196343474090099
0.0221890099346637
0.0245793983340263
0.026792949065566
0.0288250837475061
0.0306764170527458
0.0323509946465492
0.0338541008532047
0.0351888351142406
0.0363543294370174
0.0373485684394836
0.0381743311882019
0.0388409681618213
0.0393583327531814
0.0397297367453575
0.0399491637945175
0.0399999022483825
0.0398517102003097
0.0394575223326683
0.0387530922889709
0.0376627445220947
0.036113079637289
0.0340520665049552
0.0314663089811801
0.0283907260745763
0.0249073803424835
0.0211348980665206
0.0172158516943454
0.0133031141012907
0.0095406873151659
0.0060450807213783
0.0028985142707824
0.0001540128141641
-0.0021563507616519
-0.0040157362818717
-0.0054200161248445
-0.0063788220286369
-0.0069183968007564
-0.007081476971507
-0.0069227591156959
-0.0065020564943552
-0.005877474322915
-0.0051003452390432
-0.0042106676846742
-0.003234677016735
-0.0021904744207859
-0.001097060739994
2.4294480681419373e-05
0.0011563543230295
0.0022904835641384
0.0034262221306562
0.0045704478397965
0.005734197795391
0.0069238860160112
0.0081348177045583
0.0093535427004098
0.0105648394674062
0.0117569286376237
0.0129236243665218
0.014066063798964
0.0151910539716482
0.0163024049252271
0.0173925161361694
0.0184414386749267
0.0194224305450916
0.0203106179833412
0.0210907012224197
0.0217606090009212
0.0223302841186523
0.0228143949061632
0.0232198573648929
0.0235342737287282
0.0237201247364282
0.0237141791731119
0.023432657122612
0.0227853022515773
0.021693056449294
0.0201005432754755
0.0179854892194271
0.0153680648654699
0.0123148001730442
0.0089326575398445
0.0053552975878119
0.0017275530844926
-0.0018074717372655
-0.0051189111545681
-0.0080970535054802
-0.0106592196971178
-0.0127526968717575
-0.0143575184047222
-0.0154885398223996
-0.0161917433142662
-0.0165355615317821
-0.0166034288704395
-0.0164871197193861
-0.0162770152091979
-0.0160519871860742
-0.0158729311078786
-0.0157793778926134
-0.0157880578190088
-0.0158929172903299
-0.0160672962665557
-0.0162690971046686
-0.0164483189582824
-0.0165566075593233
-0.0165553595870733
-0.0164178125560283
-0.016127286478877
-0.0156783014535903
-0.0150823378935456
-0.0143704749643802
-0.0135859856382012
-0.0127710616216063
-0.0119570391252636
-0.0111617082729935
-0.0103912567719817
-0.009645358659327
-0.0089229717850685
-0.0082242563366889
-0.0075484858825802
-0.0068927118554711
-0.0062541496008634
-0.0056318435817956
-0.0050232708454132
-0.004425223916769
-0.0038491021841764
-0.0033398550003767
-0.0029816925525665
-0.0028880294412374
-0.0031810086220502
-0.0039667282253503
-0.005312968045473
-0.0072347586974501
-0.0096906628459692
-0.0125892274081707
-0.0158010907471179
-0.0191723406314849
-0.0225383359938859
-0.0257363803684711
-0.0286149065941572
-0.0310438275337219
-0.0329295173287391
-0.0342256277799606
-0.0349312089383602
-0.0350792035460472
-0.0347239226102829
-0.033932227641344
-0.0327774062752723
-0.0313345491886138
-0.0296759456396102
-0.0278655271977186
-0.0259550046175718
-0.023983659222722
-0.0219784621149301
-0.0199508536607027
-0.0178936906158924
-0.015786126255989
-0.0136066507548093
-0.0113447997719049
-0.0090043963864445
-0.0065997028723359
-0.0041489801369607
-0.0016696462407708
0.0008227350190281
0.0033129677176475
0.00578393926844
0.0082145798951387
0.0105798505246639
0.0128526603803038
0.0150060839951038
0.0170166082680225
0.0188692323863506
0.0205577798187732
0.0220759958028793
0.0234105251729488
0.0245444811880588
0.0254648551344871
0.0261672213673591
0.0266590360552072
0.0269613321870565
0.0271052736788988
0.027122214436531
0.0270291585475206
0.0268145389854908
0.0264314077794551
0.0258022435009479
0.0248348973691463
0.0234467834234237
0.0215876772999763
0.0192493461072444
0.0164641160517931
0.0133020523935556
0.0098672565072774
0.0062895053997635
0.0027126520872116
-0.0007171407341957
-0.0038626510649919
-0.0066060908138751
-0.0088577819988131
-0.010561772622168
-0.0116976099088788
-0.0122783947736024
-0.0123452255502343
-0.0119592314586043
-0.0111966421827673
-0.0101486770436167
-0.0089172264561057
-0.0076009538024663
-0.0062808506190776
-0.0050134435296058
-0.003828752785921
-0.0027308082208037
-0.0017023049294948
-0.0007109344005584
0.0002839583903551
0.0013222964480519
0.0024338215589523
0.003632454201579
0.0049177054315805
0.0062817968428134
0.0077128792181611
0.0091912662610411
0.0106890220195055
0.0121766766533255
0.0136294430121779
0.0150286052376031
0.0163610056042671
0.0176199786365032
0.0188056919723749
0.0199223011732101
0.0209749117493629
0.0219690948724746
0.0229110568761825
0.0238060597330331
0.0246571190655231
0.02546570263803
0.0262254439294338
0.0269031412899494
0.0274233445525169
0.0276722442358732
0.0275168232619762
0.0268304590135812
0.0255186446011066
0.0235396306961774
0.0209174901247024
0.0177437588572502
0.0141640426591038
0.0103554092347621
0.0065055536106228
0.0027978068683296
-0.0005989770870655
-0.0035386779345571
-0.0059114173054695
-0.0076611055992543
-0.0087917828932404
-0.0093581974506378
-0.0094513371586799
-0.0091835046187043
-0.0086732963100075
-0.0080335531383752
-0.0073623526841402
-0.0067356433719396
-0.0062030656263232
-0.0057882163673639
-0.0054913498461246
-0.0052930586971342
-0.0051581724546849
-0.005039463751018
-0.0048870723694562
-0.0046650320291519
-0.0043625151738524
-0.0039915069937705
-0.0035763680934906
-0.003144689835608
-0.0027225213125348
-0.0023310491815209
-0.0019833361729979
-0.0016830479726195
-0.0014264052733778
-0.0012053456157445
-0.0010106228291988
-0.0008341800421476
-0.0006671659648418
-0.0004957672208547
-0.0003053806722164
-9.257160127162932e-05
0.0001294277608394
0.0003369711339473
0.0005055982619524
0.0006155725568532
0.0006524045020341
0.0006019361317157
0.0004393123090267
0.0001178476959466
-0.0004338808357715
-0.0013051815330982
-0.0025898907333612
-0.0043683294206857
-0.0066842418164014
-0.0095237726345658
-0.0128113338723778
-0.0164248459041118
-0.0202163159847259
-0.0240281429141759
-0.0277070589363574
-0.0311159882694482
-0.0341405123472213
-0.0366911217570304
-0.0387049727141857
-0.0401491969823837
-0.0410243608057498
-0.0413641631603241
-0.0412289835512638
-0.0406950041651725
-0.0398425422608852
-0.0387461110949516
-0.0374710708856582
-0.0360773503780365
-0.0346203446388244
-0.0331440530717372
-0.0316738002002239
-0.0302135273814201
-0.0287451781332492
-0.0272307060658931
-0.0256195813417434
-0.023859379813075
-0.0219059027731418
-0.0197312496602535
-0.0173275377601385
-0.0147063136100769
-0.0118952328339219
-0.0089322961866855
-0.0058640306815505
-0.0027509313076734
0.0003318944945931
0.0033066542819142
0.0061074178665876
0.0086881006136536
0.0110254865139722
0.0131189543753862
0.0149865876883268
0.0166593138128519
0.0181733090430498
0.0195612907409667
0.0208478849381208
0.022050391882658
0.0231789723038673
0.0242335814982652
0.0251963213086128
0.0260194968432188
0.0266204327344894
0.0268904399126768
0.0267128758132457
0.0259855389595031
0.0246438719332218
0.0226790327578783
0.0201471876353025
0.0171687733381986
0.013915792107582
0.010588158853352
0.0073862727731466
0.0044878553599119
0.0020353607833385
0.0001353323459625
-0.001141931861639
-0.0017717890441417
-0.0017823204398155
-0.0012470930814743
-0.0002683214843273
0.0010405629873275
0.0025681909173727
0.0042136628180742
0.0058924462646245
0.0075408723205327
0.0091172782704234
0.0106000378727912
0.0119865946471691
0.0132922492921352
0.0145449740812182
0.015779910609126
0.0170337297022342
0.0183343663811683
0.0196920987218618
0.0210990197956562
0.0225336160510778
0.0239659640938043
0.0253621526062488
0.0266864374279975
0.0279013887047767
0.0289701372385025
0.0298621486872434
0.0305579528212547
0.0310512501746416
0.0313495323061943
0.0314710587263107
0.0314401015639305
0.0312832370400428
0.0310232695192098
0.0306733082979917
0.0302373506128788
0.0297139510512352
0.0290960259735584
0.0283661298453807
0.0274909622967243
0.026416890323162
0.0250672362744808
0.0233467314392328
0.0211572535336017
0.0184211656451225
0.0151046048849821
0.0112329041585326
0.0068925321102142
0.0022184280678629
-0.0026285760104656
-0.0074842032045125
-0.0121953915804624
-0.0166275724768638
-0.0206679012626409
-0.0242271646857261
-0.0272424593567848
-0.0296799298375844
-0.0315352901816368
-0.0328318066895008
-0.033616118133068
-0.0339513234794139
-0.0339097753167152
-0.033567626029253
-0.0329979285597801
-0.0322646349668502
-0.0314232483506202
-0.0305219069123268
-0.0295956153422594
-0.0286588221788406
-0.0277037601917982
-0.0267060473561286
-0.0256340540945529
-0.0244582947343587
-0.0231578964740037
-0.0217223614454269
-0.0201518330723047
-0.0184574723243713
-0.0166595131158828
-0.0147821931168437
-0.0128481024876236
-0.0108798528090119
-0.0089084291830658
-0.0069745471701025
-0.0051206373609602
-0.0033830939792096
-0.0017883265390992
-0.0003508171066641
0.0009274277836084
0.002056767232716
0.0030594542622566
0.0039656311273574
0.0048061087727546
0.0056070080026984
0.0063867652788758
0.0071538370102643
0.0079032070934772
0.0086058182641863
0.0091922469437122
0.0095466375350952
0.0095215020701289
0.0089655751362442
0.0077534429728984
0.0058105289936065
0.0031300047412514
-0.0002195006236433
-0.0040986100211739
-0.0083156703040003
-0.012652295641601
-0.0168873686343431
-0.0208169072866439
-0.0242695696651935
-0.0271157771348953
-0.0292728208005428
-0.0307093895971775
-0.0314448326826095
-0.0315396785736084
-0.0310832001268863
-0.0301820281893014
-0.0289477873593568
-0.0274851247668266
-0.0258840750902891
-0.0242156144231557
-0.0225274488329887
-0.0208411496132612
-0.0191536396741867
-0.017444334924221
-0.0156839154660701
-0.0138384457677602
-0.0118736289441585
-0.0097667472437024
-0.0075158774852752
-0.0051366779953241
-0.0026562884449958
-0.0001116748899221
0.0024535888805985
0.0049967244267463
0.0074827559292316
0.0098878378048539
0.0121978372335433
0.0144033683463931
0.0164950769394636
0.0184626281261444
0.020299294963479
0.0220103990286588
0.023615762591362
0.0251400116831064
0.0266012325882911
0.0280079692602157
0.0293618347495794
0.0306605324149131
0.0318981036543846
0.0330606289207935
0.0341192707419395
0.0350249335169792
0.0357075482606887
0.0360799506306648
0.0360459014773368
0.035512700676918
0.0344087779521942
0.0327034778892993
0.0304195992648601
0.0276308171451091
0.024449773132801
0.0210162065923213
0.0174849908798933
0.0140130259096622
0.0107483305037021
0.0078214006498456
0.0053375344723463
0.0033714927267283
0.0019633374176919
0.0011144033633172
0.0007873526774346
0.000912404153496
0.001398297259584
0.0021462016738951
0.0030592177063226
0.0040431595407426
0.0050085112452507
0.0058796228840947
0.0066035562194883
0.0071532558649778
0.0075276982970535
0.007750863675028
0.007867457345128
0.007934296503663
0.0080091627314686
0.0081397164613008
0.0083550177514553
0.0086614191532135
0.0090449601411819
0.0094805490225553
0.00993930734694
0.0103869121521711
0.0107798725366592
0.0110689830034971
0.0112095000222325
0.0111703742295503
0.0109377577900886
0.0105174658820033
0.0099390987306833
0.0092530529946088
0.0085163302719593
0.0077784992754459
0.0070759896188974
0.0064303688704967
0.0058464035391807
0.0053082685917615
0.0047696344554424
0.0041415579617023
0.0032937917858362
0.0020749159157276
0.0003424808382987
-0.0020059086382389
-0.0050097443163394
-0.0086363330483436
-0.0127834398299455
-0.0172930750995874
-0.0219736881554126
-0.0266228020191192
-0.0310460515320301
-0.0350726544857025
-0.0385636538267135
-0.0414116457104682
-0.0435422360897064
-0.0449241772294044
-0.0455774664878845
-0.0455679297447204
-0.0449920147657394
-0.0439613573253154
-0.0425899550318717
-0.0409828722476959
-0.0392287001013755
-0.0373966693878173
-0.0355346351861953
-0.0336666628718376
-0.0317940339446067
-0.0299024693667888
-0.0279710292816162
-0.0259761996567249
-0.0238952878862619
-0.0217152442783117
-0.0194396413862705
-0.0170853063464164
-0.0146738542243838
-0.0122268609702587
-0.0097655886784195
-0.0073125753551721
-0.0048927590250968
-0.0025326195172965
-0.0002577838022261
0.0019105516839772
0.003958037123084
0.0058750724419951
0.0076548969373106
0.0092957401648163
0.0107986098155379
0.0121587924659252
0.0133634516969323
0.0143982134759426
0.0152532719075679
0.0159257482737302
0.0164208132773637
0.0167491920292377
0.0169173255562782
0.0169137939810752
0.0166982486844062
0.0161977279931306
0.0153170702978968
0.013964201323688
0.0120807532221078
0.0096646603196859
0.0067732613533735
0.0035084555856883
-1.3471581041812897e-06
-0.0036122896708548
-0.007171771954745
-0.0105277579277753
-0.013540731742978
-0.0160928312689065
-0.0180940404534339
-0.0194881483912467
-0.0202562548220157
-0.0204158294945955
-0.0200161077082157
-0.0191304236650466
-0.0178462602198123
-0.0162544623017311
-0.0144427120685577
-0.0124958958476781
-0.0104952380061149
-0.0085109062492847
-0.0065930485725402
-0.0047665294259786
-0.0030308682471513
-0.00136349350214
0.0002741236239671
0.0019260272383689
0.0036306586116552
0.0054132100194692
0.0072828894481062
0.0092350840568542
0.0112556470558047
0.0133255068212747
0.0154225761070847
0.0175187699496746
0.019579704850912
0.0215705931186676
0.0234611928462982
0.0252280868589878
0.0268576443195343
0.0283484421670436
0.0297104641795158
0.0309616290032863
0.032123252749443
0.0332141146063804
0.0342426933348178
0.0352010279893875
0.03606628626585
0.036806583404541
0.0373777225613594
0.0377101674675941
0.0377028957009315
0.0372359529137611
0.0361972078680992
0.0345095247030258
0.0321495309472084
0.0291566736996173
0.0256311371922492
0.021721925586462
0.0176085922867059
0.0134800560772418
0.0095166964456439
0.0058776983059942
0.0026913918554782
4.88156802020967e-05
-0.0020014536567032
-0.0034592656884342
-0.0043739909306168
-0.0048341937363147
-0.0049482993781566
-0.0048247906379401
-0.0045593054965138
-0.0042298482730984
-0.0038956147618591
-0.0035970471799373
-0.0033583610784262
-0.0031891257967799
-0.0030823643319308
-0.0030159810557961
-0.0029586586169898
-0.0028729438781738
-0.0027186507359147
-0.0024633328430354
-0.0020941440016031
-0.0016230707988142
-0.0010835053399205
-0.0005195960402488
2.659950405359268e-05
0.0005243122577667
0.0009560044854879
0.0013142712414264
0.0015994179993867
0.0018173176795244
0.0019754152745008
0.0020803324878215
0.0021392926573753
0.0021619945764541
0.002157213166356
0.0021254625171422
0.0020570941269397
0.001937223598361
0.0017515402287244
0.0014911107718944
0.0011530183255672
0.0007321517914533
0.0002068113535642
-0.0004719085991382
-0.0013791713863611
-0.0026042480021715
-0.0042326040565967
-0.0063280332833528
-0.0089158397167921
-0.0119679011404514
-0.0153997438028454
-0.0190857127308845
-0.0228809993714094
-0.0266372524201869
-0.0302117429673671
-0.0334764793515205
-0.036327876150608
-0.038691509515047
-0.0405193120241165
-0.0417855009436607
-0.042486548423767
-0.0426412262022495
-0.0422879569232463
-0.0414809361100196
-0.0402832925319671
-0.0387584008276462
-0.036967284977436
-0.0349731668829917
-0.0328439176082611
-0.0306470654904842
-0.0284403506666421
-0.0262627638876438
-0.024129819124937
-0.0220353379845619
-0.0199585407972335
-0.0178724527359008
-0.015750603750348
-0.0135720763355493
-0.0113264406099915
-0.0090175792574882
-0.006662696134299
-0.0042853881604969
-0.0019101595971733
0.0004349364899098
0.002713750116527
0.0048833056353032
0.0068995808251202
0.0087233008816838
0.0103241689503192
0.0116855092346668
0.0128083061426877
0.0137103777378797
0.0144208949059247
0.0149741945788264
0.0154064027592539
0.0157548952847719
0.0160587504506111
0.0163583606481552
0.0166862588375806
0.0170455612242221
0.0173900723457336
0.0176210775971412
0.0176031291484832
0.0171922724694013
0.0162665732204914
0.0147508513182401
0.0126303592696785
0.0099523412063717
0.0068189278244972
0.0033742957748472
-0.0002106269821524
-0.0037542767822742
-0.0070810839533805
-0.0100353891029953
-0.0124930161982774
-0.0143721653148531
-0.0156381279230117
-0.0162978637963533
-0.0163895338773727
-0.0159740094095468
-0.0151298455893993
-0.013948481529951
-0.0125250425189733
-0.0109451320022344
-0.0092752333730459
-0.0075609311461448
-0.0058300085365772
-0.0040959697216749
-0.0023584906011819
-0.0006029326468706
0.001192795112729
0.003044219687581
0.004951637238264
0.0069024935364723
0.008877944201231
0.0108578763902187
0.0128241926431655
0.0147629622370004
0.0166652593761682
0.0185261033475399
0.0203419979661703
0.022108593955636
0.0238195545971393
0.0254665538668632
0.0270413272082805
0.0285400636494159
0.0299636963754892
0.0313109830021858
0.0325746349990367
0.0337453186511993
0.0348150320351123
0.0357764288783073
0.0366207882761955
0.0373327285051345
0.037881352007389
0.0382137298583984
0.0382551252841949
0.0379167608916759
0.0371112748980522
0.0357727706432342
0.0338760502636432
0.0314493104815483
0.0285730324685573
0.0253647770732641
0.0219617541879415
0.018509142100811
0.0151511617004871
0.0120221450924873
0.0092376545071601
0.006886479910463
0.0050249556079506
0.0036732819862663
0.0028141471557319
0.0023953942582011
0.0023366096429526
0.0025383639149367
0.0028952760621905
0.0033117216080427
0.0037099914625287
0.0040277577936649
0.0042160796001553
0.0042420141398906
0.0040909443050622
0.0037678526714444
0.003297459334135
0.0027197618037462
0.0020810607820749
0.0014263875782489
0.0007951669394969
0.0002169143408536
-0.0002917312085628
-0.0007262043654918
-0.0010906681418418
-0.0013941880315542
-0.0016508977860212
-0.0018859095871448
-0.0021379869431257
-0.0024511869996786
-0.0028613694012165
-0.0033880602568387
-0.0040333680808544
-0.0047827269881963
-0.0056061260402202
-0.0064631849527359
-0.0073111094534397
-0.0081108305603265
-0.0088327545672655
-0.0094682965427637
-0.0100428741425275
-0.0106190163642168
-0.011292390525341
-0.0121854674071073
-0.0134316589683294
-0.0151496082544326
-0.0174167789518833
-0.0202498324215412
-0.023596728220582
-0.0273403115570545
-0.0313117019832134
-0.0353141836822032
-0.0391517393290996
-0.0426513664424419
-0.0456751361489295
-0.0481240451335907
-0.0499360933899879
-0.0510823354125022
-0.0515668839216232
-0.0514301434159278
-0.0507462434470653
-0.0496107339859008
-0.0481246560811996
-0.0463829934597015
-0.0444693341851234
-0.0424533858895301
-0.040389496833086
-0.0383141115307807
-0.0362428948283195
-0.0341721773147583
-0.0320835337042808
-0.0299486331641674
-0.0277345292270183
-0.0254083946347236
-0.0229455269873142
-0.0203417371958494
-0.0176198873668909
-0.0148246344178915
-0.0120093012228608
-0.0092224832624197
-0.0065026096999645
-0.0038804379291832
-0.0013801399618387
0.0009850575588643
0.0032163704745471
0.0053266724571585
0.0073326858691871
0.0092483675107359
0.0110850036144256
0.0128564378246665
0.0145801668986678
0.0162679906934499
0.0179149098694324
0.0194973014295101
0.02097949385643
0.0223215315490961
0.0234815254807472
0.0244118198752403
0.0250539258122444
0.0253378562629222
0.025188822299242
0.0245389491319656
0.0233397167176008
0.0215743090957403
0.0192699804902076
0.016505479812622
0.013404524885118
0.0101159121841192
0.006792401894927
0.003575419075787
0.0005853483453392
-0.0020824279636144
-0.0043572075664997
-0.0061914902180433
-0.0075616091489791
-0.0084700863808393
-0.0089443866163492
-0.0090301632881164
-0.0087832491844892
-0.0082646645605564
-0.0075357463210821
-0.0066491737961769
-0.0056443475186824
-0.0045543387532234
-0.0034122802317142
-0.0022468883544206
-0.0010752640664577
9.83942300081253e-05
0.0012794025242328
0.0024784728884696
0.0037096142768859
0.0049895215779542
0.0063348077237606
0.0077569615095853
0.0092587377876043
0.0108340103179216
0.0124717280268669
0.0141610614955425
0.0158904083073139
0.0176393613219261
0.0193742271512746
0.0210543498396873
0.0226417463272809
0.024106778204441
0.0254320092499256
0.0266139898449182
0.0276600737124681
0.0285827592015266
0.0293952394276857
0.0301097221672534
0.0307372957468032
0.0312855616211891
0.031755082309246
0.03213582187891
0.032396912574768
0.0324718281626701
0.0322555713355541
0.0316218473017215
0.0304527133703231
0.0286718532443046
0.0262751784175634
0.0233513973653316
0.0200839657336473
0.0167299397289752
0.0135783590376377
0.010899806395173
0.0089044105261564
0.0077167274430394
0.007365807890892
0.007789263036102
0.0088460091501474
0.0103306658565998
0.0119959935545921
0.0135884378105402
0.0148841626942157
0.0157139953225851
0.015977069735527
0.0156443770974874
0.0147524997591972
0.0133897382766008
0.0116777792572975
0.0097507322207093
0.0077349208295345
0.0057359458878636
0.0038366010412573
0.0021005235612392
0.000571820884943
-0.0007304158061742
-0.001813918352127
-0.0027070241048932
-0.0034482134506106
-0.0040768319740891
-0.0046267220750451
-0.0051220236346125
-0.0055756568908691
-0.0059899920597672
-0.0063597708940505
-0.0066773341968655
-0.0069360202178359
-0.0071302847936749
-0.0072547392919659
-0.0073026809841394
-0.0072685442864894
-0.0071567110717296
-0.0069879312068223
-0.006797419860959
-0.0066305622458457
-0.006542507559061
-0.0066011995077133
-0.0068887621164321
-0.0074951387941837
-0.0085032060742378
-0.009971497580409
-0.0119207967072725
-0.0143265938386321
-0.0171176418662071
-0.020180769264698
-0.0233725998550653
-0.0265389755368232
-0.029535973444581
-0.0322435088455677
-0.0345707461237907
-0.0364553295075893
-0.0378590337932109
-0.0387652218341827
-0.0391787141561508
-0.0391244739294052
-0.0386441834270954
-0.0377922914922237
-0.0366326123476028
-0.0352320671081543
-0.0336410924792289
-0.0318563431501388
-0.0297883562743663
-0.0272731408476829
-0.0241367295384407
-0.020275305956602
-0.0157088078558444
-0.0105949640274047
-0.0052114818245172
8.205045014619827e-05
0.0048935869708657
0.0088522983714938
0.0116584738716483
0.0131216552108526
0.0131808035075664
0.0119034862145781
0.0094676576554775
0.0061354357749223
0.0022237608209252
-0.0019329106435179
-0.0060258363373577
-0.0098037784919142
-0.0130821913480758
-0.0157306231558322
-0.0176423043012619
-0.0187045391649007
-0.0187970958650112
-0.0178214218467474
-0.0157399196177721
-0.0126071255654096
-0.0085824383422732
-0.0039233630523085
0.0010345513001084
0.0059115863405168
0.0103294663131237
0.0139514571055769
0.0165082328021526
0.0178184993565082
0.0178068149834871
0.0165115036070346
0.0140774743631482
0.0107318796217441
0.0067481892183423
0.0024102493189275
-0.0020164449233561
-0.0063046310096979
-0.0102774677798151
-0.0138132069259881
-0.0168396290391683
-0.0193196572363376
-0.0212363190948963
-0.0225866883993148
-0.023387175053358
-0.0236791111528873
-0.023523736745119
-0.022990059107542
-0.0221440866589546
-0.0210408978164196
-0.0197194255888462
-0.0182020999491214
-0.0164982471615076
-0.0146073140203952
-0.012521419674158
-0.0102310273796319
-0.0077334865927696
-0.0050368551164865
-0.0021560061722993
0.0008896049112081
0.0040705762803554
0.0073444787412881
0.0106617491692304
0.0139737147837877
0.0172371007502079
0.0204156357795
0.0234806053340435
0.0264111384749412
0.0291921589523553
0.0318082980811595
0.0342369861900806
0.0364442244172096
0.0383839979767799
0.0400044023990631
0.0412592552602291
0.0421159863471984
0.0425571091473102
0.0425823666155338
0.0422134697437286
0.041497103869915
0.0405019968748092
0.0393052920699119
0.0379691869020462
0.0365187898278236
0.0349322818219661
0.0331458076834678
0.0310698803514242
0.0286138337105512
0.0257117915898561
0.0223423354327678
0.0185395367443561
0.0143914557993412
0.0100232250988483
0.0055753220804035
0.0011894423514604
-0.0029983641579747
-0.0068644443526864
-0.0103062391281127
-0.0132488580420613
-0.0156480334699153
-0.0174903590232133
-0.0187903456389904
-0.0195866767317056
-0.0199403129518032
-0.0199300423264503
-0.0196396093815565
-0.0191407538950443
-0.0184858664870262
-0.0177141800522804
-0.0168588832020759
-0.0159469172358512
-0.0149958496913313
-0.0140122426673769
-0.012992039322853
-0.0119233541190624
-0.0107901534065604
-0.0095759443938732
-0.0082690007984638
-0.0068664876744151
-0.0053750155493617
-0.0038100173696875
-0.0021927477791905
-0.000543144531548
0.0011226963251829
0.0027847588062286
0.0044129388406872
0.0059730727225542
0.0074386368505656
0.0087971556931734
0.0100505128502845
0.0112134246155619
0.0123096071183681
0.0133651290088891
0.0144013566896319
0.015429469756782
0.0164483487606048
0.0174466129392385
0.0184060595929622
0.019300028681755
0.0200825612992048
0.0206749755889177
0.0209661107510328
0.0208340939134359
0.0201762560755014
0.0189301799982786
0.0170850530266761
0.0146869011223316
0.011833457276225
0.0086604095995426
0.0053271767683327
0.0020024217665195
-0.0011521284468472
-0.0039957715198397
-0.0064172726124525
-0.0083384262397885
-0.0097183343023061
-0.0105610433965921
-0.010918216779828
-0.0108798770233988
-0.0105586554855108
-0.0100737893953919
-0.009535034187138
-0.0090281935408711
-0.0086066704243421
-0.0082897106185555
-0.0080648865550756
-0.0078939059749245
-0.0077226171270012
-0.0074934279546141
-0.0071520092897117
-0.0066431076265871
-0.0059045418165624
-0.0048702075146138
-0.0034791845828294
-0.0016848510131239
0.000535043887794
0.0031652953475713
0.0061400411650538
0.009338061325252
0.0125919943675398
0.0157069712877273
0.0184833034873008
0.020741019397974
0.0223416350781917
0.0232031997293233
0.0233082473278045
0.0227033607661724
0.0214862860739231
0.0197812374681234
0.0177150815725326
0.0154052227735519
0.0129558108747005
0.010453961789608
0.0079598985612392
0.005491791293025
0.0030166897922754
0.0004570204764604
-0.0022895857691764
-0.0053246840834617
-0.0087237954139709
-0.0125168785452842
-0.016677688807249
-0.021121859550476
-0.0257161743938922
-0.0303012710064649
-0.0347184352576732
-0.038828007876873
-0.0425170138478279
-0.0456996038556098
-0.0483151338994503
-0.050327431410551
-0.0517242029309272
-0.0525150410830974
-0.0527301356196403
-0.0524208284914493
-0.0516583919525146
-0.0505261868238449
-0.0491058081388473
-0.047464407980442
-0.045651689171791
-0.0437058545649051
-0.0416581965982914
-0.0395316146314144
-0.0373364239931106
-0.0350678637623786
-0.0327102467417717
-0.0302464198321104
-0.0276656597852706
-0.024966686964035
-0.022156186401844
-0.0192459635436534
-0.0162527989596128
-0.0132007878273725
-0.0101197622716426
-0.0070366286672651
-0.0039708726108074
-0.0009436905384063
0.0020119315013289
0.0048539233393967
0.0075417221523821
0.0100451838225126
0.0123479356989264
0.014446023851633
0.0163457356393337
0.0180624816566705
0.0196189116686582
0.0210403110831975
0.0223484858870506
0.0235563553869724
0.0246633812785148
0.0256504081189632
0.0264716185629367
0.0270478390157222
0.0272713303565979
0.0270236823707819
0.0262001790106296
0.0247344654053449
0.0226178709417581
0.0199079681187868
0.0167256835848093
0.0132456012070178
0.0096803167834877
0.0062574539333581
0.0031956806778907
0.0006851814687252
-0.0011293496936559
-0.0021622404456138
-0.0023952815681695
-0.0018821973353624
-0.0007445607334375
0.0008456222712993
0.0026913825422525
0.0045950748026371
0.0063765626400709
0.007886691018939
0.00901909917593
0.0097178649157285
0.0099768303334712
0.0098330602049827
0.0093583986163139
0.0086488276720047
0.0078141763806343
0.0069718230515718
0.006237344816327
0.0057053938508033
0.0054323896765708
0.0054353158921003
0.0057022385299205
0.0062032155692577
0.006897272542119
0.0077353976666927
0.0086633954197168
0.0096302106976509
0.0106010530143976
0.0115665253251791
0.0125412009656429
0.0135575653985142
0.0146642820909619
0.0159259773790836
0.0174142383038997
0.0191869661211967
0.0212673526257276
0.0236355029046535
0.0262309443205595
0.0289580263197422
0.031693123281002
0.0342914015054702
0.0365908779203891
0.0384194776415824
0.039607286453247
0.0400004349648952
0.0394779667258262
0.03797248005867
0.0354886725544929
0.0321121327579021
0.0280010364949703
0.0233612153679132
0.0184183083474636
0.0133981024846434
0.0085134888067841
0.0039534568786621
-0.0001259739510715
-0.003606877522543
-0.0064125782810151
-0.0085125369951128
-0.0099263098090887
-0.0107209207490086
-0.011001257225871
-0.0108955036848783
-0.0105360178276896
-0.0100393183529376
-0.0094962436705827
-0.0089776683598756
-0.0085418177768588
-0.0082300454378128
-0.0080586578696966
-0.0080190431326627
-0.0080857351422309
-0.0082245832309126
-0.0083991223946213
-0.0085759535431861
-0.0087261050939559
-0.0088248001411557
-0.0088539747521281
-0.0088035501539707
-0.0086661530658602
-0.0084293829277157
-0.0080776689574122
-0.0076046818867325
-0.007020550314337
-0.006346920505166
-0.0056088776327669
-0.0048291021957993
-0.0040236515924334
-0.0032002925872802
-0.0023605059832334
-0.0015047788619995
-0.0006377752870321
0.0002307426184415
0.0010882755741477
0.0019182097166776
0.0026898980140686
0.0033459141850471
0.0037946458905935
0.0039130318909883
0.0035636387765407
0.0026231463998556
0.0010111909359693
-0.001289565116167
-0.0042265616357326
-0.0076840287074446
-0.0114986412227153
-0.0154805500060319
-0.0194369554519653
-0.0231904592365026
-0.0265873707830905
-0.0294992737472057
-0.0318221226334571
-0.033476073294878
-0.0344113111495971
-0.034619852900505
-0.034142330288887
-0.0330627299845218
-0.0314955376088619
-0.0295702088624238
-0.0274155773222446
-0.0251464322209358
-0.0228527896106243
-0.0205924697220325
-0.0183875262737274
-0.0162248667329549
-0.0140646398067474
-0.0118563780561089
-0.0095534995198249
-0.0071212910115718
-0.0045452774502336
-0.0018410005141049
0.0009483397006988
0.0037710887845605
0.0065853823907673
0.0093627171590924
0.0120835173875093
0.0147323347628116
0.0172914937138557
0.0197345074266195
0.0220263749361038
0.0241352077573537
0.0260535720735788
0.0278209075331687
0.0295352675020694
0.0313537381589412
0.0334868095815181
0.0361806489527225
0.0396795235574245
0.0441708676517009
0.0497152991592884
0.0561698116362094
0.0631381720304489
0.0699914991855621
0.0759763196110725
0.0803798884153366
0.0826752856373786
0.0825836136937141
0.0800634026527404
0.0752676650881767
0.0684888511896133
0.0601019412279129
0.0505041889846324
0.0400500148534774
0.0290138721466064
0.0176022201776504
0.0059805400669574
-0.0057211108505725
-0.0174187831580638
-0.0290742665529251
-0.0406609624624252
-0.0520964562892913
-0.0631781965494155
-0.0735638663172721
-0.0827937200665474
-0.0903297886252403
-0.095620147883892
-0.0982111692428588
-0.0979135334491729
-0.0950266495347023
-0.0905995517969131
-0.0866020768880844
-0.0857736617326736
-0.090994969010353
-0.1043393611907959
-0.1262066513299942
-0.1548593640327453
-0.1864634454250335
-0.2156332433223724
-0.2363963723182678
-0.2433714419603347
-0.2329135090112686
-0.2039676308631897
-0.1583879590034485
-0.100677877664566
-0.0372943878173828
0.024353040382266
0.0770782679319381
0.1150123178958892
0.1343102008104324
0.133351519703865
0.1126525849103927
0.0748773664236068
0.0249875001609325
-0.0299799032509326
-0.0819083899259567
-0.123086079955101
-0.1475821882486343
-0.1521525532007217
-0.1365650296211242
-0.1033604368567466
-0.0571697577834129
-0.0037804320454597
0.0508405901491642
0.1013887822628021
0.1438177227973938
0.1756501495838165
0.1960164606571197
0.2054649293422699
0.2056148946285247
0.1987390220165252
0.1873508095741272
0.1738507747650146
0.1602613627910614
0.148063525557518
0.1381363272666931
0.1307846754789352
0.1258322447538375
0.1227629631757736
0.1208841502666473
0.1194759532809257
0.1179052740335464
0.1156957149505615
0.1125545427203178
0.1083690971136093
0.103186048567295
0.0971775203943252
0.090594470500946
0.0837130695581436
0.0767858251929283
0.0700090304017067
0.0635110884904861
0.0573533549904823
0.0515321791172027
0.0459859333932399
0.0406140871345996
0.0353037863969802
0.029954757541418
0.0244959481060504
0.0188928544521331
0.0131485983729362
0.0072975866496562
0.0013892166316509
-0.0045342780649662
-0.0104576498270034
-0.016401071101427
-0.0224112868309021
-0.0285397823899984
-0.0348203182220459
-0.0412537232041358
-0.0477986820042133
-0.0543691590428352
-0.0608429051935672
-0.0670780465006828
-0.0729303956031799
-0.0782690122723579
-0.08298821747303
-0.0870130285620689
-0.0902984738349914
-0.0928278565406799
-0.0946125835180282
-0.0956890881061554
-0.0961102247238159
-0.0959361940622329
-0.0952316001057624
-0.094067707657814
-0.0925215035676956
-0.0906681716442108
-0.0885719433426857
-0.0862808525562286
-0.0838256701827049
-0.0812202244997024
-0.0784627348184585
-0.075539618730545
-0.0724310427904129
-0.0691166669130325
-0.0655819848179817
-0.0618240647017955
-0.0578521527349948
-0.053683802485466
-0.0493449345231056
-0.0448763817548751
-0.0403378903865814
-0.0358035042881965
-0.031351838260889
-0.0270557347685098
-0.0229725651443004
-0.0191366486251354
-0.0155562628060579
-0.0122157083824276
-0.0090800859034061
-0.0061007724143564
-0.0032235151156783
-0.0004004484508186
0.0023974808864295
0.0051704151555895
0.007878896780312
0.0104335471987724
0.0126978978514671
0.0145119614899158
0.0157272517681121
0.0162404440343379
0.016017448157072
0.0151014709845185
0.013604019768536
0.0116865970194339
0.0095405131578445
0.0073653571307659
0.0053471401333808
0.0036409981548786
0.0023635551333427
0.00159502774477
0.0013802144676446
0.0017213597893714
0.0025743599981069
0.0038588512688875
0.0054765399545431
0.0073274075984954
0.0093185044825077
0.0113667491823434
0.0134009756147861
0.0153668280690908
0.0172314215451478
0.018982769921422
0.0206274148076772
0.0221887417137622
0.0237023942172527
0.0252095852047204
0.0267468001693487
0.0283315386623144
0.0299553796648979
0.0315895453095436
0.0331952385604381
0.0347330495715141
0.0361705273389816
0.037487257272005
0.0386754758656024
0.0397360995411872
0.040674090385437
0.0414953008294105
0.0422036089003086
0.0427999980747699
0.0432854741811752
0.0436649098992347
0.0439448356628418
0.0441240742802619
0.0441881157457828
0.0441141091287136
0.0438803322613239
0.0434739030897617
0.0428924337029457
0.0421339273452758
0.041178248822689
0.0399738252162933
0.0384392887353897
0.0364790856838226
0.0340056344866752
0.0309606008231639
0.0273323021829128
0.0231679119169712
0.0185738280415534
0.0136993825435638
0.0087139746174216
0.0037898665759712
-0.0009108618833124
-0.0052494816482067
-0.0091206589713692
-0.0124546298757195
-0.0152128273621201
-0.0173834413290023
-0.0189802013337612
-0.0200417526066303
-0.020627599209547
-0.0208101700991392
-0.0206664353609085
-0.0202720016241073
-0.0197000429034233
-0.0190236251801252
-0.0183135438710451
-0.0176285132765769
-0.0170036852359771
-0.0164442770183086
-0.0159281902015209
-0.0154164340347051
-0.0148635981604456
-0.0142233641818165
-0.0134542947635054
-0.0125294234603643
-0.0114418053999543
-0.0102021759375929
-0.0088338898494839
-0.007366279605776
-0.0058309836313128
-0.0042670322582125
-0.0027233429718762
-0.0012499263975769
0.0001112129539251
0.0013296152465045
0.0023896628990769
0.0032945340499281
0.0040666637942194
0.0047420915216207
0.0053614280186593
0.0059610065072774
0.0065649542957544
0.0071793319657444
0.0077904360368847
0.0083655882626771
0.0088485265150666
0.0091497618705034
0.009146868251264
0.0087040346115827
0.0077037112787365
0.0060757063329219
0.0038138795644044
0.0009794970974326
-0.0023060897365212
-0.0058759972453117
-0.0095370495691895
-0.0130925318226218
-0.0163643304258584
-0.0192088577896356
-0.0215244479477405
-0.0232518762350082
-0.0243743658065795
-0.024920342490077
-0.0249609500169754
-0.0245961789041757
-0.0239359308034181
-0.0230845585465431
-0.0221317186951637
-0.0211484562605619
-0.020186398178339
-0.0192774981260299
-0.018432468175888
-0.0176408663392066
-0.0168765969574451
-0.0161052551120519
-0.0152866095304489
-0.0143735259771347
-0.0133177824318408
-0.0120851378887891
-0.0106668807566165
-0.0090800980105996
-0.0073629403486847
-0.0055691231973469
-0.0037578251212835
-0.0019811261445283
-0.0002773555461317
0.0013287907931953
0.0028246429283171
0.0042105531319975
0.0055018523707985
0.0067255105823278
0.0079135596752166
0.0090993549674749
0.0103105809539556
0.0115534551441669
0.0127960499376058
