bvp
-0.0081548746675252
-0.0108881564810872
-0.0130652273073792
-0.0147020909935235
-0.015837762504816
-0.0165243223309516
-0.0168188046663999
-0.0167764853686094
-0.0164475962519645
-0.0158773716539144
-0.0151060037314891
-0.0141673646867275
-0.0130888437852263
-0.0118909925222396
-0.0105844438076019
-0.0091715455055236
-0.0076587321236729
-0.006070390343666
-0.0044547729194164
-0.0028794445097446
-0.0014176610857248
-0.0001329984515905
0.0009317127987742
0.0017608776688575
0.0023681186139583
0.0027934182435274
0.003096948377788
0.0033513186499476
0.0036338903009891
0.0040210848674178
0.0045832684263587
0.005374280270189
0.0064175901934504
0.0077023194171488
0.0091907121241092
0.0108267217874526
0.0125438887625932
0.0142714055255055
0.0159351248294115
0.017457665875554
0.0187583565711975
0.0197504162788391
0.0203396696597337
0.0204282831400632
0.0199235770851373
0.0187536105513572
0.0168872699141502
0.0143485032021999
0.011217463761568
0.0076233390718698
0.003734708763659
-0.0002535888925194
-0.0041370745748281
-0.0077190711162984
-0.0108264135196805
-0.013320286758244
-0.0151023920625448
-0.0161184277385473
-0.0163586623966693
-0.0158573072403669
-0.0146921146661043
-0.0129790157079696
-0.0108581278473138
-0.0084805563092231
-0.0060020219534635
-0.003571352455765
-0.0013105799444019
0.0006993440911173
0.0024223276413977
0.0038654059171676
0.0050722369924187
0.0061103804036974
0.0070544290356338
0.0079717766493558
0.0089148785918951
0.0099174184724688
0.0109926350414752
0.0121347345411777
0.0133243761956691
0.0145337898284196
0.0157248675823211
0.0168460849672555
0.0178397111594676
0.0186561364680528
0.0192631799727678
0.0196487437933683
0.0198219008743762
0.0198101084679365
0.0196509473025798
0.019383693113923
0.0190410111099481
0.0186375509947538
0.0181595087051391
0.0175614915788173
0.0167702119797468
0.0156912505626678
0.0142200831323862
0.012261058203876
0.0097511252388358
0.0066801346838474
0.0031026238575577
-0.000861445441842
-0.0050391750410199
-0.0092282854020595
-0.0132238790392875
-0.0168412700295448
-0.0199335776269435
-0.0224037729203701
-0.0242080055177211
-0.0253493711352348
-0.025867111980915
-0.0258301831781864
-0.02533695474267
-0.0245109573006629
-0.023485817015171
-0.0223846901208162
-0.0213039182126522
-0.0203053466975688
-0.0194153431802988
-0.0186289269477128
-0.0179177653044462
-0.0172375999391078
-0.0165351908653974
-0.0157596115022897
-0.0148724438622593
-0.013846905902028
-0.012662305496633
-0.0113082127645611
-0.0097957169637084
-0.008161031641066
-0.0064595285803079
-0.0047566872090101
-0.0031166276894509
-0.0015913993120193
-0.0002161925658583
0.0009909933432936
0.002028907649219
0.0029121357947587
0.003667096607387
0.0043252175673842
0.0049170153215527
0.0054688127711415
0.0060027297586202
0.0065361568704247
0.0070736231282353
0.0075948517769575
0.008048303425312
0.0083512747660279
0.0083957239985466
0.0080608129501342
0.0072317067533731
0.0058219786733388
0.003793504089117
0.0011683572083711
-0.0019686818122863
-0.0054771583527326
-0.009177191182971
-0.0128700230270624
-0.0163580328226089
-0.0194668974727392
-0.0220669955015182
-0.0240819528698921
-0.0254843607544899
-0.0262882709503173
-0.0265412032604217
-0.0263144075870513
-0.0256917849183082
-0.0247597265988588
-0.0235989857465028
-0.0222780592739582
-0.0208501052111387
-0.019354423508048
-0.0178188700228929
-0.0162591598927974
-0.0146757401525974
-0.0130561413243412
-0.011386688798666
-0.0096638705581426
-0.007896065711975
-0.0060975868254899
-0.0042818626388907
-0.0024583023041486
-0.0006327861919999
0.0011914037168025
0.0030145226046442
0.0048407660797238
0.0066737243905663
0.0085092056542634
0.0103334253653883
0.0121283559128642
0.0138781024143099
0.0155694298446178
0.0171864982694387
0.0187081899493932
0.0201118774712085
0.0213793814182281
0.0225016400218009
0.0234804116189479
0.0243267584592103
0.0250571891665458
0.0256880819797515
0.0262313336133956
0.0266918968409299
0.0270618684589862
0.0273107215762138
0.0273801237344741
0.0271893478929996
0.026647362858057
0.0256670899689197
0.0241834502667188
0.0221713986247777
0.0196566060185432
0.0167174860835075
0.0134784169495105
0.0100940968841314
0.0067290388979017
0.0035393922589719
0.0006607538089156
-0.0018008293118327
-0.0037758396938443
-0.0052331336773931
-0.0061747739091515
-0.0066287042573094
-0.0066485307179391
-0.0063181184232234
-0.0057477271184325
-0.0050587598234415
-0.0043660532683134
-0.0037634964101016
-0.0033138426952064
-0.0030439007095992
-0.0029449423309415
-0.0029779758770018
-0.0030847315210849
-0.0032014509197324
-0.0032699345611035
-0.0032432631123811
-0.0030870621558278
-0.0027784882113337
-0.0023080031387507
-0.0016868531238287
-0.0009505662601441
-0.0001501488150097
0.0006610957789234
0.0014363781083375
0.0021400242112576
0.0027495832182466
0.0032555044163018
0.0036586904898285
0.0039688418619334
0.0042044688016176
0.0043890392407774
0.0045427158474922
0.0046788351610302
0.0048079323023557
0.0049405954778194
0.0050826901569962
0.0052277045324444
0.0053547131828963
0.0054308115504682
0.0054100304841995
0.0052279159426689
0.0047985618002712
0.0040205549448728
0.0027936110273003
0.0010416870936751
-0.0012653190642595
-0.0040987855754792
-0.0073698759078979
-0.0109340324997901
-0.0145987393334507
-0.0181439593434333
-0.0213578976690769
-0.0240691471844911
-0.0261601358652114
-0.027567733079195
-0.0282799135893583
-0.0283293314278125
-0.0277834273874759
-0.0267349332571029
-0.0252953395247459
-0.023587541654706
-0.0217346809804439
-0.0198474265635013
-0.0180136356502771
-0.0162913762032985
-0.0147047936916351
-0.0132476752623915
-0.0118954638019204
-0.0106160789728164
-0.0093752732500433
-0.008140018209815
-0.0068803541362285
-0.0055688344873487
-0.0041807293891906
-0.0026975981891155
-0.0011134454980492
0.0005605397745966
0.0022980272769927
0.0040658419020473
0.0058334791101515
0.0075797913596034
0.0092947641387581
0.0109740206971764
0.0126074189320206
0.014173861593008
0.0156471319496631
0.0170024149119853
0.0182200074195861
0.0192889682948589
0.0202080383896827
0.0209828913211822
0.0216203965246677
0.0221175234764814
0.0224476121366024
0.0225519370287656
0.022340752184391
0.0217052437365055
0.0205402504652738
0.0187684092670679
0.0163550172001123
0.0133169591426849
0.0097309108823537
0.005734228529036
0.0015126212965697
-0.0027211001142859
-0.0067500970326364
-0.0103753469884395
-0.013435180298984
-0.015818353742361
-0.0174666326493024
-0.0183705743402242
-0.0185653679072856
-0.0181249789893627
-0.0171500258147716
-0.0157575998455286
-0.0140791907906532
-0.0122541226446628
-0.0104125766083598
-0.0086593590676784
-0.0070641236379742
-0.0056563895195722
-0.0044271508231759
-0.0033363066613674
-0.0023224875330924
-0.0013158731162548
-0.0002520941197872
0.0009187869727611
0.002228326164186
0.0036880411207675
0.0052911941893398
0.0070155058056116
0.0088217454031109
0.0106532229110598
0.0124439615756273
0.0141313420608639
0.0156657751649618
0.017016515135765
0.01817212626338
0.0191353261470794
0.0199180841445922
0.0205404628068208
0.0210297610610723
0.021416300907731
0.0217283181846141
0.0219914391636848
0.0222304239869117
0.0224647652357816
0.0226995311677455
0.0229212045669555
0.0230997893959283
0.0231876950711011
0.0231117475777864
0.0227692686021327
0.0220372080802917
0.0207892246544361
0.0189129188656806
0.016326954588294
0.0130002796649932
0.0089691523462533
0.0043443068861961
-0.0006947428919374
-0.0059176702052354
-0.011073438450694
-0.015927005559206
-0.0202887095510959
-0.0240271259099245
-0.027069104835391
-0.0293931774795055
-0.0310184136033058
-0.0319918766617774
-0.0323783233761787
-0.0322536043822765
-0.0317015908658504
-0.030811408534646
-0.0296720042824745
-0.0283655766397714
-0.0269606355577707
-0.0255032666027545
-0.0240129437297582
-0.0224896240979433
-0.0209252350032329
-0.0193096287548542
-0.0176300313323736
-0.0158693082630634
-0.0140078971162438
-0.0120297372341156
-0.0099297715350985
-0.0077187772840261
-0.0054224827326834
-0.0030772313475608
-0.0007259103003889
0.0015853967051953
0.0038119838573038
0.0059153451584279
0.0078621711581945
0.0096179414540529
0.0111462539061903
0.0124175995588302
0.0134196486324071
0.0141632258892059
0.0146824298426508
0.0150279738008975
0.0152546279132366
0.0154087143018841
0.0155234821140766
0.0156218837946653
0.0157181601971387
0.0158117432147264
0.0158767346292734
0.0158548802137374
0.0156535618007183
0.0151497451588511
0.0142055843025445
0.0126948012039065
0.0105315102264285
0.0076950420625507
0.0042449571192264
0.0003189861308783
-0.0038856107275933
-0.0081383101642131
-0.0122033562511205
-0.015865521505475
-0.018948744982481
-0.0213269516825675
-0.0229281391948461
-0.0237332992255687
-0.0237749796360731
-0.0231388602405786
-0.021961472928524
-0.0204149708151817
-0.0186829771846532
-0.0169369708746671
-0.0153166893869638
-0.013916322030127
-0.0127781284973025
-0.0118915941566228
-0.0111964121460914
-0.0105911754071712
-0.0099482666701078
-0.0091315135359764
-0.0080120330676436
-0.0064806602895259
-0.0044625755399465
-0.0019359262660145
0.0010586623102426
0.0044262981973588
0.008036651648581
0.0117439916357398
0.0154028963297605
0.0188791528344154
0.0220590308308601
0.0248572658747434
0.0272214710712432
0.0291308462619781
0.0305904448032379
0.0316269621253013
0.032289057970047
0.0326457992196083
0.0327728427946567
0.0327301062643528
0.0325498431921005
0.0322391577064991
0.0317808948457241
0.0311265364289283
0.0301901753991842
0.028853015974164
0.0269812978804111
0.0244534090161323
0.0211882218718528
0.0171677619218826
0.0124496361240744
0.0071658277884125
0.0015096934512257
-0.0042814561165869
-0.0099509712308645
-0.01525922678411
-0.0200147815048694
-0.0240845251828432
-0.0273911021649837
-0.0299099497497081
-0.0316649265587329
-0.0327167250216007
-0.0331472493708133
-0.0330482237040996
-0.03251463919878
-0.0316385403275489
-0.0305035803467035
-0.029182193800807
-0.0277327448129653
-0.0261951275169849
-0.0245901998132467
-0.0229270011186599
-0.0212104860693216
-0.019443416967988
-0.0176254622638225
-0.0157526955008506
-0.0138185340911149
-0.011816213838756
-0.0097423205152153
-0.0076007759198546
-0.0054050632752478
-0.0031783219892531
-0.0009523010812699
0.0012361963745206
0.0033519938588142
0.0053690858185291
0.007272832095623
0.0090528074651956
0.010694870725274
0.0121821826323866
0.013502687215805
0.014656227082014
0.0156566854566335
0.0165291205048561
0.0173054002225399
0.0180178619921207
0.0186903290450572
0.0193306319415569
0.0199246387928724
0.0204270910471677
0.0207522995769977
0.0207743905484676
0.0203384347259998
0.019280157983303
0.0174573138356208
0.0147866168990731
0.0112701393663883
0.0070027434267103
0.0021633189171552
-0.003004846163094
-0.0082232188433408
-0.0132137890905141
-0.0177313946187496
-0.0215839482843875
-0.0246422346681356
-0.0268441960215568
-0.028190616518259
-0.0287297032773494
-0.0285422541201114
-0.0277377068996429
-0.0264511741697788
-0.0248299669474363
-0.0230147168040275
-0.0211246646940708
-0.0192499123513698
-0.017448553815484
-0.0157461091876029
-0.01413728389889
-0.0125910565257072
-0.0110596809536218
-0.009489550255239
-0.0078288987278938
-0.0060313837602734
-0.0040614139288663
-0.0019050249829888
0.0004204781726002
0.0028669289313256
0.0053654927760362
0.007841370999813
0.0102278171107172
0.0124753424897789
0.0145550072193145
0.016457388177514
0.0181877333670854
0.0197580177336931
0.0211806036531925
0.0224668458104133
0.0236281007528305
0.0246765203773975
0.0256259925663471
0.026490107178688
0.0272751543670892
0.0279761385172605
0.0285810157656669
0.0290765073150396
0.0294480193406343
0.0296727195382118
0.0297083854675292
0.0294833108782768
0.0288952533155679
0.0278229992836713
0.0261468309909105
0.0237719230353832
0.0206527281552553
0.016817757859826
0.0123833138495683
0.0075404928065836
0.0025193127803504
-0.0024482146836817
-0.0071515645831823
-0.0114136217162013
-0.0150974784046411
-0.0181107260286808
-0.0204076543450355
-0.0219888221472501
-0.0228962488472461
-0.0232053585350513
-0.0230159200727939
-0.022440992295742
-0.0215943939983844
-0.0205788351595401
-0.0194754973053932
-0.0183395519852638
-0.0172049142420291
-0.016090890392661
-0.0150035675615072
-0.013933977112174
-0.0128575433045625
-0.0117389243096113
-0.0105420239269733
-0.0092391092330217
-0.007815315388143
-0.0062691029161214
-0.0046107484959065
-0.0028622904792428
-0.0010581326205283
0.0007609301246702
0.0025591342709958
0.0043085268698632
0.0059796776622533
0.0075360452756285
0.0089405812323093
0.0101656690239906
0.0111989509314298
0.0120449624955654
0.012723222374916
0.013264175504446
0.0137043483555316
0.0140804145485162
0.0144218271598219
0.0147431287914514
0.0150343030691146
0.0152500094845891
0.0153074478730559
0.0150927752256393
0.0144678819924592
0.0132862441241741
0.0114255109801888
0.0088232643902301
0.0054995454847812
0.0015607643872499
-0.0028129667043685
-0.0073933997191488
-0.0119357565417885
-0.0162067431956529
-0.0200063325464725
-0.0231837704777717
-0.0256440695375204
-0.027344174683094
-0.0282853320240974
-0.0285100303590297
-0.0281027890741825
-0.0271843634545803
-0.0258961245417594
-0.0243812017142772
-0.0227670930325984
-0.0211529470980167
-0.0196035765111446
-0.0181478466838598
-0.0167799852788448
-0.0154663166031241
-0.0141575438901782
-0.0128012355417013
-0.0113502591848373
-0.0097677679732441
-0.0080292932689189
-0.0061246310360729
-0.0040632025338709
-0.001877982635051
0.0003788546309806
0.0026464601978659
0.0048654079437255
0.0069849123246967
0.0089680757373571
0.0107948565855622
0.0124613065272569
0.013974929228425
0.0153496665880084
0.0166025590151548
0.0177496578544378
0.0188029482960701
0.0197717305272817
0.0206631533801555
0.0214769169688224
0.0222007483243942
0.02281404286623
0.0232963431626558
0.0236346255987882
0.0238275155425071
0.0238831136375665
0.0238069184124469
0.0235836002975702
0.0231614336371421
0.02244783192873
0.021321078762412
0.019655929878354
0.0173557735979557
0.0143826529383659
0.0107726277783513
0.0066292965784668
0.0021053785458207
-0.0026147682219743
-0.0073315827175974
-0.0118486294522881
-0.0159901287406682
-0.0196146517992019
-0.0226237773895263
-0.0249648839235305
-0.0266281701624393
-0.0276401545852422
-0.0280558094382286
-0.0279506091028451
-0.0274130403995513
-0.0265356358140707
-0.025406427681446
-0.0241066999733448
-0.0227124579250812
-0.021290635690093
-0.0198897719383239
-0.0185331087559461
-0.0172186028212308
-0.0159234404563903
-0.0146098090335726
-0.0132332686334848
-0.0117543656378984
-0.0101480148732662
-0.0084064863622188
-0.0065378746949136
-0.0045616617426276
-0.0025018616579473
-0.0003838802222162
0.0017593721859157
0.0038813869468867
0.0059279389679431
0.00784950889647
0.0096094943583011
0.0111879389733076
0.0125824073329567
0.0138040194287896
0.0148710217326879
0.0158048197627067
0.0166280046105384
0.0173615589737892
0.0180220007896423
0.0186222400516271
0.0191759914159774
0.0196969117969274
0.0201891157776117
0.0206406824290752
0.0210277587175369
0.0213223006576299
0.0214950609952211
0.0215116571635007
0.0213230736553668
0.020856849849224
0.0200191121548414
0.0187098104506731
0.0168439038097858
0.0143724419176578
0.0112994648516178
0.0076914355158805
0.0036791060119867
-0.0005549062043428
-0.0048069511540234
-0.0088852364569902
-0.012628823518753
-0.0159151777625083
-0.0186628177762031
-0.020830500870943
-0.0224133599549531
-0.0234369114041328
-0.0239506214857101
-0.0240231081843376
-0.0237369574606418
-0.0231803432106971
-0.022437073290348
-0.0215757582336664
-0.0206414200365543
-0.0196581538766622
-0.0186391342431306
-0.0175910796970129
-0.0165142845362424
-0.0154039422050118
-0.014250342734158
-0.0130389081314206
-0.0117533504962921
-0.0103784566745162
-0.0088997855782508
-0.007305537816137
-0.0055934116244316
-0.0037760436534881
-0.0018800881225615
6.017647683620453e-05
0.002011970616877
0.0039484440349042
0.0058443965390324
0.007672019302845
0.0094035845249891
0.0110172666609287
0.0125010227784514
0.0138532817363739
0.0150818414986133
0.016202226281166
0.0172335412353277
0.0181912798434495
0.0190833266824483
0.0199123695492744
0.0206783339381217
0.0213777255266904
0.0220047179609537
0.0225519742816686
0.023002753034234
0.0233167707920074
0.0234205964952707
0.023209935054183
0.0225644614547491
0.0213690362870693
0.0195370428264141
0.0170327965170145
0.0138838086277246
0.0101792886853218
0.006061518099159
0.0017130332998931
-0.0026619913987815
-0.0068598454818129
-0.010698290541768
-0.0140350274741649
-0.0167819280177354
-0.0189084690064191
-0.0204316191375255
-0.0213995371013879
-0.0218791328370571
-0.0219509433954954
-0.0217053890228271
-0.0212345831096172
-0.0206210240721702
-0.0199281312525272
-0.0191971007734537
-0.0184496790170669
-0.0176929701119661
-0.0169217251241207
-0.0161161385476589
-0.0152438730001449
-0.014273514971137
-0.013187731616199
-0.0119843306019902
-0.0106713436543941
-0.0092635182663798
-0.0077785840258002
-0.0062342463061213
-0.0046482253819704
-0.0030383479315787
-0.0014222688041627
0.000182066578418
0.0017579186242073
0.0032915701158344
0.0047728698700666
0.0061974301934242
0.0075650522485375
0.0088705411180853
0.0100971013307571
0.0112193562090396
0.0122112389653921
0.0130535596981644
0.0137408766895532
0.0142843183130025
0.0147066824138164
0.0150349978357553
0.0152961974963545
0.0155156208202242
0.0157154332846403
0.0159100051969289
0.0160996560007333
0.0162645280361175
0.0163534712046384
0.0162699725478887
0.0158736743032932
0.0150068020448088
0.0135313104838132
0.0113600911572575
0.0084766279906034
0.004942700266838
0.0008937153033912
-0.0034768811892718
-0.00794118642807
-0.0122664012014865
-0.0162443462759256
-0.0197123140096664
-0.0225602891296148
-0.0247257724404335
-0.02618776448071
-0.0269682202488183
-0.0271315146237611
-0.0267737098038196
-0.0260078329592943
-0.0249510407447814
-0.0237123277038335
-0.0223805848509073
-0.0210171844810247
-0.0196556709706783
-0.0183062870055437
-0.0169628374278545
-0.0156098287552595
-0.0142265660688281
-0.012786554172635
-0.0112549168989062
-0.0095931654796004
-0.0077754277735948
-0.0058021685108542
-0.003700029104948
-0.0015132436528801
0.0007066186517477
0.0029103765264153
0.0050579374656081
0.00712033174932
0.0090778432786464
0.0109173972159624
0.0126320822164416
0.0142215872183442
0.0156911835074424
0.017050726339221
0.0183159280568361
0.0195066723972558
0.0206361133605241
0.0216998532414436
0.0226792097091674
0.0235542394220829
0.0243116803467273
0.0249454285949468
0.0254571139812469
0.0258569251745939
0.0261603109538555
0.0263817645609378
0.0265294332057237
0.0266007911413908
0.0265761278569698
0.0264117959886789
0.0260399542748928
0.0253712236881256
0.0242956541478633
0.0226930920034647
0.020460557192564
0.0175452083349227
0.0139667391777038
0.0098221767693758
0.0052750264294445
0.0005340441130101
-0.0041729579679667
-0.0086261574178934
-0.0126373963430523
-0.0160651430487632
-0.0188208408653736
-0.0208687223494052
-0.0222173705697059
-0.0229106545448303
-0.0230276715010404
-0.0226808860898017
-0.0220005456358194
-0.0211138911545276
-0.0201308578252792
-0.0191368609666824
-0.018188277259469
-0.0173102840781211
-0.0164989568293094
-0.0157252717763185
-0.014940233901143
-0.0140850003808736
-0.0131038026884198
-0.0119512286037206
-0.010594967752695
-0.0090233869850635
-0.0072546023875474
-0.0053343852050602
-0.003324759658426
-0.0012938468717038
0.0006919791921973
0.0025765090249478
0.0043203076347708
0.005903105251491
0.0073231011629104
0.0085931345820426
0.0097341276705265
0.0107693336904048
0.0117212980985641
0.0126121770590543
0.0134670622646808
0.0143115147948265
0.0151577852666378
0.015993770211935
0.0167886149138212
0.0175077486783266
0.0181216299533844
0.0186020769178867
0.0189100224524736
0.0189831126481294
0.0187314450740814
0.0180451218038797
0.0168128497898578
0.0149463880807161
0.0124033605679869
0.0092038931325078
0.0054379818029701
0.0012570479884743
-0.0031513518188148
-0.0075906259007751
-0.0118709718808531
-0.0158198196440935
-0.0192944128066301
-0.022192670032382
-0.0244569946080446
-0.0260703843086957
-0.0270487070083618
-0.0274345502257347
-0.0272929780185222
-0.0267068687826395
-0.0257708393037319
-0.0245817098766565
-0.0232262350618839
-0.0217731557786464
-0.020273445174098
-0.0187633447349071
-0.0172652658075094
-0.0157868824899196
-0.0143195055425167
-0.0128393331542611
-0.0113150989636778
-0.0097171291708946
-0.0080223735421895
-0.0062174438498914
-0.00430160574615
-0.0022881305776536
-0.0002028681337833
0.0019207443110644
0.0040494240820407
0.0061527676880359
0.0081966836005449
0.0101387780159711
0.011934695765376
0.0135486023500561
0.0149593297392129
0.0161621160805225
0.0171678848564624
0.0179993901401758
0.0186865162104368
0.0192635506391525
0.0197657011449337
0.0202244110405445
0.0206645298749208
0.0211037881672382
0.0215549115091562
0.0220259428024292
0.022511675953865
0.0229819845408201
0.023376140743494
0.0235998015850782
0.0235229954123497
0.0229887142777442
0.0218372661620378
0.0199397318065166
0.0172292739152908
0.0137184858322143
0.0094992462545633
0.0047327345237135
-0.0003660917282104
-0.0055502648465335
-0.0105661079287529
-0.015181390568614
-0.019214803352952
-0.0225543640553951
-0.0251554455608129
-0.0270251780748367
-0.0282050594687461
-0.0287573710083961
-0.0287536233663558
-0.0282643772661685
-0.0273556318134069
-0.0260946061462163
-0.0245610028505325
-0.0228554625064134
-0.0210977308452129
-0.0194117724895477
-0.0179020520299673
-0.0166356861591339
-0.0156405474990606
-0.01491005346179
-0.0144044831395149
-0.0140536669641733
-0.0137672051787376
-0.0134491901844739
-0.013011772185564
-0.0123852109536528
-0.011523587629199
-0.0104049295186996
-0.0090279728174209
-0.0074092578142881
-0.0055805454030632
-0.003585691563785
-0.0014766352251172
0.0006907870993018
0.0028595607727766
0.0049738278612494
0.0069834939204156
0.0088510755449533
0.0105584450066089
0.0121107464656233
0.0135362688452005
0.0148826790973544
0.0162093602120876
0.0175769962370395
0.0190379694104194
0.0206286758184433
0.0223600324243307
0.0242048557847738
0.0260878261178731
0.0278804004192352
0.0294024012982845
0.0304400343447923
0.0307823158800601
0.0302636735141277
0.0287985652685165
0.0263991318643093
0.0231756493449211
0.0193239897489547
0.0151012716814875
0.0107909981161355
0.0066644139587879
0.0029484201222658
-0.0001927760895341
-0.0026618847623467
-0.0044229747727513
-0.0054947827011346
-0.0059486362151801
-0.005903071258217
-0.0055060223676264
-0.0049101896584033
-0.0042519541457295
-0.0036372276954352
-0.003134092548862
-0.002770981285721
-0.0025393106043338
-0.0024012965150177
-0.0023014876060187
-0.0021787714213132
-0.0019770737271755
-0.0016513059381395
-0.0011670473031699
-0.0005015186034142
0.0003485705237835
0.0013597873039543
0.0024839213583618
0.0036569675430655
0.0048099705018103
0.0058799851685762
0.0068171513266861
0.0075862132944166
0.0081681590527296
0.0085634067654609
0.0087922811508178
0.0088908597826957
0.0089041739702224
0.0088816601783037
0.0088744731619954
0.0089273378252983
0.0090664848685264
0.0092957308515906
0.0096029108390212
0.0099658640101552
0.0103506436571478
0.010703613050282
0.0109420260414481
0.0109492000192403
0.0105795860290527
0.009674159809947
0.0080845989286899
0.005702456459403
0.0024865139275789
-0.0015171989798545
-0.0061688451096415
-0.0112504074349999
-0.0165027193725109
-0.0216658785939216
-0.0265077017247676
-0.0308402106165885
-0.0345263481140136
-0.0374794229865074
-0.0396602228283882
-0.041071705520153
-0.0417506173253059
-0.0417587161064147
-0.0411756113171577
-0.0400940515100955
-0.0386150479316711
-0.0368390902876853
-0.034856230020523
-0.0327424556016922
-0.0305627807974815
-0.0283722020685672
-0.0262107662856578
-0.0240991655737161
-0.0220386385917663
-0.020012479275465
-0.0179886277765035
-0.0159255992621183
-0.01378102786839
-0.0115210115909576
-0.0091286422684788
-0.0066071506589651
-0.0039766058325767
-0.0012683495879173
0.0014807211700826
0.0042306412942707
0.0069354465231299
0.0095422537997365
0.0119976373389363
0.0142558049410581
0.0162836406379938
0.0180635564029216
0.0195950102061033
0.0208936370909214
0.0219881106168031
0.0229158177971839
0.0237173698842525
0.0244304649531841
0.025085225701332
0.0257033240050077
0.0263001061975955
0.0268821753561496
0.0274337101727724
0.0278984121978282
0.0281715206801891
0.0281072482466697
0.0275376252830028
0.0262990966439247
0.0242636147886514
0.0213676262646913
0.0176313016563653
0.0131640620529651
0.0081558534875512
0.0028541267383843
-0.002468402031809
-0.0075454232282936
-0.0121426163241267
-0.0160770136862993
-0.019230967387557
-0.02155701816082
-0.0230700261890888
-0.0238323081284761
-0.0239389631897211
-0.0235038418322801
-0.0226471312344074
-0.0214861333370208
-0.0201266892254352
-0.0186555180698633
-0.0171361733227968
-0.0156075172126293
-0.0140844210982322
-0.01256063580513
-0.0110119488090276
-0.0094034681096673
-0.0077033881098032
-0.0058939047157764
-0.0039734710007905
-0.0019554058089852
0.0001352904364466
0.0022676018998026
0.0044105211272835
0.0065381536260247
0.0086313001811504
0.010674494318664
0.0126527827233076
0.0145503906533122
0.0163511410355567
0.0180415734648704
0.0196152869611978
0.0210705958306789
0.0223992839455604
0.0235816724598407
0.024595558643341
0.0254271738231182
0.0260774530470371
0.0265627056360244
0.0269076004624366
0.0271365158259868
0.0272696353495121
0.0273216105997562
0.0272997990250587
0.0271999202668666
0.0269960220903158
0.026629390195012
0.0260066632181406
0.0250076502561569
0.0234988816082477
0.0213566739112138
0.0184982791543006
0.014907487668097
0.0106472810730338
0.0058613922446966
0.0007625920698046
-0.0043935533612966
-0.0093424785882234
-0.0138433640822768
-0.0177053976804018
-0.0208035875111818
-0.0230820700526237
-0.024546205997467
-0.0252487957477569
-0.0252800267189741
-0.0247644670307636
-0.023853950202465
-0.022709421813488
-0.0214794799685478
-0.0202829577028751
-0.019196655601263
-0.0182505100965499
-0.0174329858273267
-0.0167038347572088
-0.0160073284059762
-0.0152830891311168
-0.0144751351326704
-0.0135378334671258
-0.0124362558126449
-0.0111430957913398
-0.009643024764955
-0.0079476861283183
-0.0061041647568345
-0.0041843922808766
-0.0022658263333141
-0.0004172306507825
0.0013085701502859
0.0028768805786967
0.0042694266885519
0.0054825660772621
0.0065270233899354
0.0074257873930037
0.0082091744989156
0.0089091584086418
0.0095546189695596
0.0101699652150273
0.0107739074155688
0.0113721899688243
0.0119517976418137
0.0124862873926758
0.0129450093954801
0.0132955070585012
0.0134976394474506
0.0134940762072801
0.0132035808637738
0.0125218871980905
0.0113332830369472
0.0095322541892528
0.007049242965877
0.003873816691339
6.918143481016159e-05
-0.0042272582650184
-0.008820628747344
-0.0134888580068945
-0.0180128347128629
-0.0221968181431293
-0.0258811153471469
-0.0289490073919296
-0.0313278436660766
-0.0329871922731399
-0.0339340791106224
-0.0342052951455116
-0.0338617004454135
-0.032985221594572
-0.0316741913557052
-0.0300360172986984
-0.0281774383038282
-0.0261922944337129
-0.0241528321057558
-0.0221100393682718
-0.0200972836464643
-0.0181303210556507
-0.0162061601877212
-0.0143054695799946
-0.012398780323565
-0.0104535929858684
-0.0084400698542594
-0.0063355918973684
-0.0041289399378001
-0.001822605729103
0.000567705836147
0.0030142008326947
0.0054790247231721
0.0079207979142665
0.0103001501411199
0.0125772915780544
0.0147106163203716
0.0166634563356637
0.0184114314615726
0.0199452303349971
0.0212698653340339
0.0224012359976768
0.0233617406338453
0.0241759903728961
0.0248670801520347
0.0254553165286779
0.0259591843932867
0.0263955630362033
0.0267788581550121
0.0271204058080911
0.0274257473647594
0.0276894848793745
0.0278921388089656
0.0279977228492498
0.0279480759054422
0.0276577435433864
0.0270159840583801
0.0258974228054285
0.0241800788789987
0.0217692777514457
0.0186235904693603
0.0147759560495615
0.0103409783914685
0.0055029862560331
0.0004914449527859
-0.0044474927708506
-0.0090834386646747
-0.0132331177592277
-0.0167763512581586
-0.0196540392935276
-0.0218562521040439
-0.0234069842845201
-0.0243520066142082
-0.0247528441250324
-0.0246832482516765
-0.024223506450653
-0.0234538502991199
-0.0224520489573478
-0.0212925598025321
-0.020041536539793
-0.018749238923192
-0.0174435172230005
-0.0161301176995039
-0.0148022007197141
-0.0134493596851825
-0.0120595451444387
-0.0106197278946638
-0.0091199036687612
-0.0075567858293652
-0.0059329681098461
-0.0042544221505522
-0.0025312029756605
-0.0007791332900524
0.0009812214411795
0.0027268149424344
0.0044345241039991
0.006085758563131
0.0076721222139894
0.0091939438134431
0.0106489537283778
0.0120230335742235
0.0132930111140012
0.0144360158592462
0.015436328947544
0.0162887498736381
0.0169993583112955
0.0175825003534555
0.0180549323558807
0.0184303112328052
0.0187179073691368
0.0189253985881805
0.0190614517778158
0.0191369540989398
0.0191659834235906
0.0191617812961339
0.0191224589943885
0.0190141592174768
0.0187637973576784
0.0182633958756923
0.0173830743879079
0.0159915462136268
0.0139824096113443
0.011301215738058
0.0079644713550806
0.0040637189522385
-0.0002438090741634
-0.004753615707159
-0.0092388838529586
-0.0134764229878783
-0.0172686614096164
-0.0204634573310613
-0.022970225661993
-0.0247641317546367
-0.0258776359260082
-0.0263859182596206
-0.0263901948928833
-0.0260023027658462
-0.0253335796296596
-0.0244867838919162
-0.0235482119023799
-0.0225818399339914
-0.0216285791248083
-0.0207074061036109
-0.019815057516098
-0.0189269594848155
-0.0180012192577123
-0.0169877354055643
-0.0158425122499465
-0.0145380264148116
-0.0130638135597109
-0.0114238541573286
-0.0096364207565784
-0.0077318837866187
-0.0057459641247987
-0.003715434577316
-0.0016788931097835
0.0003241645172238
0.0022578281350433
0.0040933056734502
0.005812058225274
0.007409397047013
0.0088947722688317
0.0102852806448936
0.0115934107452631
0.0128185786306858
0.0139483017846941
0.01496391184628
0.0158461965620517
0.0165805928409099
0.0171634834259748
0.0176070872694253
0.0179352797567844
0.0181686971336603
0.0183061398565769
0.0183103755116462
0.0181024707853794
0.0175689905881881
0.0165865495800972
0.0150526203215122
0.0129049876704812
0.0101321376860141
0.0067829685285687
0.0029703862965106
-0.0011378163471817
-0.0053388644009828
-0.0094200056046247
-0.0131827136501669
-0.0164615642279386
-0.0191365554928779
-0.0211384464055299
-0.0224466659128665
-0.0230824705213308
-0.023099523037672
-0.0225732289254665
-0.0215955674648284
-0.0202770736068487
-0.0187435541301965
-0.0171211119741201
-0.0155179146677255
-0.0140103539451956
-0.0126360952854156
-0.0113947913050651
-0.0102551104500889
-0.0091649340465664
-0.00806182064116
-0.0068830540403723
-0.0055748634040355
-0.0040998719632625
-0.0024411445483565
-0.0006006378680467
0.0014039017260074
0.0035379379987716
0.0057485126890242
0.0079673575237393
0.0101198712363839
0.0121378069743514
0.0139697454869747
0.015586114488542
0.0169797707349061
0.0181622821837663
0.0191584005951881
0.0200012680143117
0.0207255501300096
0.0213600769639015
0.0219278130680322
0.0224517695605754
0.0229546409100294
0.0234485808759927
0.0239263195544481
0.0243621841073036
0.0247212834656238
0.0249680578708648
0.0250641144812107
0.0249564796686172
0.0245670303702354
0.0237917937338352
0.0225125905126333
0.0206195041537284
0.0180381815880537
0.0147510394454002
0.010809320025146
0.006338155362755
0.001525598578155
-0.0034077980089932
-0.0082425884902477
-0.0127840060740709
-0.0168749745935201
-0.0204009190201759
-0.0232895947992801
-0.0255075376480817
-0.0270544849336147
-0.0279598366469144
-0.0282809305936098
-0.0280982982367277
-0.0275075025856494
-0.0266102273017168
-0.0255033057183027
-0.0242658481001853
-0.0229545682668685
-0.0216106195002794
-0.0202638246119022
-0.0189283173531293
-0.0175982918590307
-0.0162496045231819
-0.0148475281894207
-0.013357694260776
-0.0117559190839529
-0.0100334007292985
-0.0081955753266811
-0.0062578525394201
-0.0042418483644723
-0.0021725613623857
-7.534213364124298e-05
0.0020287996158003
0.0041238144040107
0.0061899605207145
0.0081955278292298
0.0100992005318403
0.0118608772754669
0.0134533513337373
0.0148678394034504
0.0161110330373048
0.0171983763575553
0.018148873001337
0.0189820751547813
0.0197172798216342
0.0203741192817688
0.0209711771458387
0.0215238574892282
0.022044152021408
0.0225378330796957
0.022997424006462
0.023395923897624
0.0236815139651298
0.0237728413194417
0.0235591307282447
0.0229085255414247
0.0216870252043008
0.0197863224893808
0.0171509739011526
0.0137957772240042
0.0098088746890425
0.0053419005125761
0.0005937879905104
-0.0042081717401742
-0.0088298171758651
-0.0130563899874687
-0.0167211182415485
-0.0197206158190965
-0.0220112055540084
-0.0235986243933439
-0.024528332054615
-0.0248748026788234
-0.0247307866811752
-0.0241989251226186
-0.0233839266002178
-0.0223834794014692
-0.0212804153561592
-0.0201373044401407
-0.0189918242394924
-0.0178541522473096
-0.0167099125683307
-0.0155294006690382
-0.0142802959308028
-0.0129384323954582
-0.0114915911108255
-0.0099373506382107
-0.0082808695733547
-0.0065344013273715
-0.0047156866639852
-0.0028452228289097
-0.0009452900849282
0.0009595705196261
0.0028431545943021
0.0046789813786745
0.0064419019035995
0.0081110876053571
0.0096740052103996
0.0111275557428598
0.0124732051044702
0.0137108601629734
0.0148379113525152
0.0158524997532367
0.0167566873133182
0.0175561178475618
0.0182572491466999
0.0188661757856607
0.0193890109658241
0.0198294110596179
0.0201797634363174
0.0204088725149631
0.0204527024179697
0.0202133152633905
0.019569544121623
0.018397357314825
0.0165926851332187
0.0140935536473989
0.0108993630856275
0.0070805270224809
0.0027753333561122
-0.0018227510154247
-0.0064871818758547
-0.0109884664416313
-0.0151218585669994
-0.0187250189483165
-0.0216869227588176
-0.0239488594233989
-0.0254978369921445
-0.0263572596013546
-0.0265788882970809
-0.026237491518259
-0.0254287160933017
-0.0242639239877462
-0.0228573121130466
-0.0213124006986618
-0.0197139959782362
-0.018124533817172
-0.0165835227817296
-0.015107886865735
-0.0136920977383852
-0.0123105635866522
-0.010922921821475
-0.0094819255173206
-0.0079434243962168
-0.006273646838963
-0.004451151471585
-0.0024704225361347
-0.0003495418932288
0.0018684265669435
0.0041235769167542
0.0063491938635706
0.0084805069491267
0.0104628456756472
0.0122584961354732
0.0138497874140739
0.0152356727048754
0.0164245218038558
0.0174302142113447
0.0182727798819541
0.0189781002700328
0.0195759385824203
0.0200993251055479
0.0205795299261808
0.0210336744785308
0.0214585810899734
0.0218385960906744
0.0221556089818477
0.0223893523216247
0.0225090533494949
0.0224630050361156
0.0221718046814203
0.0215299371629953
0.0204172190278768
0.018717972561717
0.0163455232977867
0.0132672376930713
0.009522252716124
0.0052263615652918
0.0005598058924078
-0.0042615863494575
-0.009018562734127
-0.0135113466531038
-0.0175742153078317
-0.021086037158966
-0.0239743832498788
-0.0262105539441108
-0.0278005376458168
-0.0287768766283988
-0.0291915126144886
-0.0291095003485679
-0.0286039821803569
-0.0277518238872289
-0.0266277324408292
-0.0252975095063447
-0.0238151829689741
-0.022225547581911
-0.0205671004951
-0.0188707653433084
-0.0171571616083383
-0.0154365552589297
-0.0137098636478185
-0.0119698541238904
-0.0102052520960569
-0.0084065869450569
-0.0065673859789967
-0.0046801599673926
-0.0027363246772438
-0.0007332335226237
0.0013205596478655
0.0034077921882271
0.0055050179362297
0.0075774611905217
0.0095757786184549
0.011444391682744
0.01313466578722
0.014614631421864
0.0158734377473592
0.0169205963611602
0.0177815500646829
0.0184913929551839
0.0190875772386789
0.0196029245853424
0.0200603269040584
0.0204701256006956
0.0208326112478971
0.0211472120136022
0.0214198753237724
0.0216568261384964
0.0218492485582828
0.0219606421887874
0.0219200402498245
0.0216233413666486
0.0209455620497465
0.0197602398693561
0.0179605334997177
0.0154806785285472
0.0123153980821371
0.008529357612133
0.0042533241212368
-0.0003285342827439
-0.0049972990527749
-0.0095232389867305
-0.0136955585330724
-0.0173524878919124
-0.0203964821994304
-0.0227880924940109
-0.0245297774672508
-0.0256521701812744
-0.0262043252587318
-0.0262449234724044
-0.0258365757763385
-0.025046108290553
-0.0239462740719318
-0.0226151533424854
-0.0211339760571718
-0.0195826794952154
-0.0180321671068668
-0.0165335796773433
-0.0151123506948351
-0.0137741472572088
-0.0125132333487272
-0.0113134840503335
-0.0101472083479166
-0.0089783947914838
-0.0077682374976575
-0.0064789890311658
-0.0050789648666977
-0.0035513616167008
-0.0019001213368028
-0.0001473933225497
0.001672068843618
0.0035157115198671
0.005340346135199
0.0071107363328337
0.0088013634085655
0.0103883100673556
0.0118429809808731
0.013137886300683
0.0142578491941094
0.0152051728218793
0.0159960146993398
0.016652762889862
0.01719905808568
0.0176594965159893
0.0180574394762516
0.0184050649404525
0.0186882503330707
0.0188531968742609
0.0188042055815458
0.0184194482862949
0.0175767913460731
0.0161755122244358
0.0141528835520148
0.0114995706826448
0.008270782418549
0.0045869043096899
0.0006204596720635
-0.0034260437823832
-0.0073430002667009
-0.0109334252774715
-0.014031633734703
-0.0165206920355558
-0.0183410942554473
-0.0194871071726083
-0.0199952013790607
-0.0199307482689619
-0.0193813405930995
