bvp
0.0020912955515086
0.0003936039283871
-0.0010825535282492
-0.0021971939131617
-0.0028111701831221
-0.0027874819934368
-0.0020075403153896
-0.0003979066386818
0.0020411168225109
0.005215716548264
0.0089369174093008
0.0129409367218613
0.0169281139969825
0.0206109769642353
0.0237584952265024
0.0262217558920383
0.0279345773160457
0.0288997422903776
0.0291747003793716
0.0288575999438762
0.0280690882354974
0.0269329063594341
0.0255618412047624
0.0240501668304204
0.0224695578217506
0.020867221057415
0.01926701515913
0.0176719035953283
0.0160632189363241
0.0143973920494318
0.0126068592071533
0.0106064928695559
0.0083034317940473
0.0056125773116946
0.0024767331779003
-0.001115889288485
-0.0051240073516964
-0.0094579011201858
-0.0139920758083462
-0.0185803659260272
-0.0230687335133552
-0.0273028276860713
-0.0311343371868133
-0.0344322025775909
-0.0370978787541389
-0.0390767678618431
-0.0403608120977878
-0.0409878082573413
-0.0410408452153205
-0.0406400710344314
-0.0399237796664238
-0.0390254482626915
-0.0380545705556869
-0.0370862558484077
-0.0361581332981586
-0.0352716110646724
-0.0343978330492973
-0.0334878638386726
-0.032484982162714
-0.0313368365168571
-0.0300043225288391
-0.0284640453755855
-0.0267057530581951
-0.0247318651527166
-0.0225612707436084
-0.0202297177165746
-0.0177839919924736
-0.0152754876762628
-0.0127549963071942
-0.01026779320091
-0.0078493626788258
-0.005521492101252
-0.0032913470640778
-0.0011553633958101
0.0008961884304881
0.002875960431993
0.0047968951985239
0.0066723078489303
0.0085157761350274
0.0103322193026542
0.0121027799323201
0.0137777160853147
0.0152840223163366
0.0165418405085802
0.0174798257648944
0.018044976517558
0.0182091556489467
0.0179734416306018
0.0173681788146495
0.016448501497507
0.0152868377044796
0.0139643400907516
0.0125649301335215
0.011173965409398
0.0098792370408773
0.0087687913328409
0.0079221576452255
0.0074006095528602
0.0072436332702636
0.0074684377759695
0.0080665908753871
0.0090012652799487
0.0102102346718311
0.0116131165996193
0.0131206214427948
0.0146448733285069
0.0161102339625358
0.017462845891714
0.0186755657196044
0.0197491496801376
0.0207110755145549
0.0216059349477291
0.0224765688180923
0.0233495309948921
0.0242333244532346
0.0251234807074069
0.0260076709091663
0.0268689505755901
0.0276868790388107
0.0284373313188552
0.0290932618081569
0.0296265967190265
0.0300098210573196
0.0302191488444805
0.0302396565675735
0.0300687290728092
0.0297170467674732
0.0292058251798152
0.028558736667037
0.0277953520417213
0.0269306991249322
0.0259745977818965
0.0249255374073982
0.0237616151571273
0.0224340185523033
0.0208674594759941
0.0189698506146669
0.0166511163115501
0.0138466302305459
0.0105363428592681
0.006754420697689
0.0025913473218679
-0.0018101325258612
-0.0062699848785996
-0.0105988718569278
-0.0146251320838928
-0.0182068981230258
-0.0212347153574228
-0.0236341003328561
-0.0253683663904666
-0.0264392960816621
-0.0268853232264518
-0.0267775505781173
-0.0262127071619033
-0.0253035053610801
-0.0241682212799787
-0.0229199081659317
-0.021655136719346
-0.0204430483281612
-0.0193206276744604
-0.0182987712323665
-0.0173718575388193
-0.0165232736617326
-0.0157292447984218
-0.0149632142856717
-0.0141990119591355
-0.0134138837456703
-0.0125917308032512
-0.0117241945117712
-0.0108105754479765
-0.0098578343167901
-0.00888067856431
-0.0079015241935849
-0.0069472566246986
-0.0060415966436266
-0.0051995599642395
-0.004431421868503
-0.0037511801347136
-0.0031773969531059
-0.0027259904891252
-0.0024036057293415
-0.002204930409789
-0.0021144654601812
-0.0021127071231603
-0.0021817088127136
-0.0023066848516464
-0.0024768896400928
-0.0026898346841335
-0.0029588621109724
-0.0033187065273523
-0.0038218963891267
-0.0045265369117259
-0.0054856082424521
-0.0067408280447125
-0.0083124339580535
-0.0101841073483228
-0.0122931022197008
-0.0145309567451477
-0.0167536418884992
-0.0187995303422212
-0.020511133596301
-0.0217540804296731
-0.0224317219108343
-0.0224973894655704
-0.0219598300755023
-0.0208757333457469
-0.0193356610834598
-0.0174544285982847
-0.0153645984828472
-0.0132048455998301
-0.0111029064282774
-0.0091596599668264
-0.0074393800459802
-0.0059673190116882
-0.0047338898293673
-0.0037030233070254
-0.0028212494216859
-0.00202690763399
-0.0012606736272573
-0.0004753028042614
0.0003592018038034
0.0012565269134938
0.0022185505367815
0.0032366481609642
0.0042874417267739
0.0053309733048081
0.0063180485740303
0.0072023728862404
0.0079491659998893
0.0085384901612997
0.0089671975001692
0.0092500559985637
0.0094167804345488
0.0095047540962696
0.0095501793548464
0.009581628255546
0.0096190609037876
0.0096766212955117
0.0097634522244334
0.0098775336518883
0.0099946176633238
0.0100599694997072
0.0099895438179373
0.0096823591738939
0.0090396450832486
0.0079843597486615
0.0064778802916407
0.0045319758355617
0.0022115837782621
-0.0003735471982508
-0.0030829503666609
-0.0057606613263487
-0.0082514379173517
-0.0104164090007543
-0.0121453907340765
-0.0133665427565574
-0.0140536502003669
-0.0142259709537029
-0.0139396209269762
-0.0132760545238852
-0.012329607270658
-0.0111933648586273
-0.0099472505971789
-0.0086529366672039
-0.00735395681113
-0.0060775391757488
-0.0048369625583291
-0.0036340737715363
-0.0024618161842226
-0.0013057515025138
-0.0001451317220926
0.0010420996695756
0.0022688808385282
0.0035294529516249
0.0047982018440961
0.0060377279296517
0.0072109955362975
0.0082910722121596
0.0092641897499561
0.0101276505738496
0.0108873527497053
0.0115562360733747
0.0121527863666415
0.0126985292881727
0.0132121481001377
0.0137039888650178
0.0141782835125923
0.0146371917799115
0.0150773888453841
0.015486360527575
0.0158460102975368
0.016138020902872
0.0163461007177829
0.0164562724530696
0.0164556242525577
0.016328003257513
0.016046617180109
0.015568540431559
0.0148373283445835
0.0137940272688865
0.0123922759667038
0.0106142032891511
0.0084834769368171
0.0060676499269902
0.0034666145220398
0.0007970273727551
-0.0018182878848165
-0.0042588664218783
-0.0064160209149122
-0.0082011893391609
-0.0095531214028596
-0.010443297214806
-0.0108767105266451
-0.0108886929228901
-0.0105401575565338
-0.0099108582362532
-0.0090901544317603
-0.008165375329554
-0.0072095245122909
-0.0062756482511758
-0.0054006446152925
-0.0046092118136584
-0.0039122980087995
-0.0033053364604711
-0.002771338680759
-0.0022880036849528
-0.001834220602177
-0.001392830745317
-0.0009513900149613
-0.0005037225782871
-5.1490264013409615e-05
0.0003974823630414
0.0008334587910212
0.0012482599122449
0.0016388176009058
0.0020082204136997
0.0023590172640979
0.002685124753043
0.0029712598770856
0.0031978781335055
0.0033448268659412
0.0033925177995115
0.0033256304450333
0.0031401389278471
0.0028480114415287
0.0024768034927546
0.002065805485472
0.0016617104411125
0.0013143764808773
0.0010709126945585
0.0009687095880508
0.0010243733413517
0.0012171985581517
0.001480629434809
0.0017120556440204
0.0017945473082363
0.0016212589107453
0.0011158348061144
0.000243742018938
-0.000984369078651
-0.0025142517406493
-0.0042553702369332
-0.0060948538593947
-0.0079151410609483
-0.0096087325364351
-0.0110853342339396
-0.012274207547307
-0.0131287686526775
-0.013633694499731
-0.0138063300400972
-0.0136887412518262
-0.013335189782083
-0.0128012429922819
-0.0121375499293208
-0.0113868722692132
-0.0105821099132299
-0.0097449691966176
-0.008885595947504
-0.0080037750303745
-0.00709157763049
-0.0061360821127891
-0.0051208343356847
-0.0040276562795042
-0.0028441222384572
-0.0015755447093397
-0.000249970704317
0.0010891805868595
0.00239550601691
0.003629153361544
0.0047625787556171
0.0057847839780151
0.0067038992419838
0.0075455782935023
0.0083451997488737
0.0091357994824647
0.0099360588937997
0.0107414443045854
0.0115233920514583
0.012238223105669
0.0128369573503732
0.0132699953392148
0.0134922489523887
0.0134715503081679
0.0131947584450244
0.0126680135726928
0.0119115803390741
0.0109503753483295
0.0098037337884306
0.0084796240553259
0.0069757434539496
0.0052868803031742
0.0034153833985328
0.0013792318059131
-0.0007837889716029
-0.0030127863865345
-0.0052247489802539
-0.0073234695009887
-0.009209431707859
-0.0107871079817414
-0.0119741288945078
-0.0127121089026331
-0.0129739409312605
-0.0127651738002896
-0.0121215526014566
-0.0111045753583312
-0.0097950370982289
-0.0082846386358141
-0.0066663227044045
-0.0050246575847268
-0.0034266402944922
-0.0019141845405101
-0.0005052599590271
0.000794616760686
0.0019827452488243
0.0030595196876674
0.0040325061418116
0.0049152327701449
0.0057176356203854
0.0064341044053435
0.0070389220491051
0.0074932565912604
0.0077594676986336
0.0078148795291781
0.0076592871919274
0.0073150438256561
0.006824480369687
0.0062485435046255
0.0056603029370307
0.0051296004094183
0.0047091557644307
0.0044291289523243
0.0042961137369275
0.0042941235005855
0.0043898019939661
0.0045426874421536
0.004715007264167
0.0048741386272013
0.0049893143586814
0.0050282110460102
0.0049536656588315
0.0047202855348587
0.004276287741959
0.0035724374465644
0.0025709562469273
0.0012497999705374
-0.000391948968172
-0.0023244083859026
-0.0044810147956013
-0.0067618619650602
-0.0090432185679674
-0.0111899757757782
-0.0130700068548321
-0.0145701598376035
-0.0156103810295462
-0.0161500144749879
-0.0161865819245576
-0.0157515760511159
-0.0149038797244429
-0.0137208653613924
-0.0122910914942622
-0.0107099479064345
-0.0090750278905034
-0.0074797151610255
-0.0060053775086998
-0.0047126258723437
-0.0036341678351163
-0.0027732534799724
-0.0021065538749098
-0.0015872509684413
-0.0011515296064317
-0.000731149688363
-0.0002652429975569
0.0002922872081398
0.000967570580542
0.0017647757194936
0.0026664377655833
0.003634113818407
0.0046135927550494
0.0055464040488004
0.0063819084316492
0.0070857899263501
0.007644641213119
0.0080660656094551
0.0083746220916509
0.0086057074368
0.0087984232231974
0.0089881578460335
0.0092014372348785
0.0094556976109743
0.0097635444253683
0.0101373344659805
0.0105882305651903
0.0111179891973733
0.011709202080965
0.0123198945075273
0.0128838866949081
0.0133169908076524
0.0135284289717674
0.0134347788989543
0.0129731213673949
0.0121111143380403
0.0108524607494473
0.0092375259846448
0.0073395976796746
0.0052565443329513
0.0031000094022601
0.0009848496410995
-0.0009845575550571
-0.0027311500161886
-0.0042140167206525
-0.0054229302331805
-0.00636728387326
-0.0070696310140192
-0.0075623425655066
-0.0078821638599038
-0.0080646742135286
-0.0081417309120297
-0.0081402016803622
-0.0080790650099515
-0.0079664271324872
-0.0078014349564909
-0.007578401826322
-0.0072867469862103
-0.0069109741598367
-0.0064369104802608
-0.0058591179549694
-0.0051819267682731
-0.0044157151132822
-0.0035740155726671
-0.0026726264040917
-0.0017294534482061
-0.000765070086345
0.0001958752982318
0.001124317292124
0.0019896843004971
0.0027644031215459
0.0034270060714334
0.0039650676771998
0.0043782708235085
0.0046757580712437
0.0048673190176486
0.0049587879329919
0.0049565797671675
0.0048730028793215
0.0047244699671864
0.0045256926678121
0.0042858500964939
0.0040060440078377
0.0036750338040292
0.0032650604844093
0.002732038963586
0.0020215567201375
0.0010802191682159
-0.0001292722299695
-0.0016147014684975
-0.0033496702089905
-0.0052789277397096
-0.0073265726678073
-0.0094009479507803
-0.0113983917981386
-0.0132108004763722
-0.0147370807826519
-0.0158946607261896
-0.0166279710829257
-0.0169116593897342
-0.0167490150779485
-0.0161709189414978
-0.0152365490794181
-0.0140292020514607
-0.0126439947634935
-0.0111733153462409
-0.0096979085355997
-0.0082850065082311
-0.0069879670627415
-0.0058437762781977
-0.0048700305633246
-0.0040631955489516
-0.0033994554542005
-0.0028392248786985
-0.002335347700864
-0.001843306235969
-0.0013289742637425
-0.0007714126259088
-0.0001618498936295
0.0004995320923626
0.0012083505280315
0.0019641257822513
0.0027790814638137
0.0036814094055444
0.0047143525443971
0.0059324577450752
0.0073898853734135
0.0091192387044429
0.0111103001981973
0.0133039904758334
0.0156056825071573
0.0179075542837381
0.0201114248484373
0.0221479889005422
0.0239879041910171
0.0256407223641872
0.0271394290030002
0.0285144802182912
0.0297650080174207
0.0308357048779726
0.0316118635237216
0.0319392457604408
0.0316592194139957
0.030642531812191
0.0288135837763547
0.0261663198471069
0.0227697752416133
0.0187590569257736
0.0143157858401536
0.0096455728635191
0.0049555739387869
0.0004331246018409
-0.0037716422230005
-0.0075549492612481
-0.0108611304312944
-0.0136821307241916
-0.0160528309643268
-0.0180374905467033
-0.0197118129581213
-0.0211471505463123
-0.0223985239863395
-0.0234980918467044
-0.0244555585086345
-0.0252640433609485
-0.0259076282382011
-0.0263674650341272
-0.0266281738877296
-0.026684608310461
-0.0265410467982292
-0.0262007638812065
-0.0256580151617527
-0.0249007865786552
-0.023917956277728
-0.0227023158222436
-0.0212494134902954
-0.0195563100278377
-0.0176222510635852
-0.0154509497806429
-0.0130537282675504
-0.0104530751705169
-0.0076830280013382
-0.0047828336246311
-0.0017880033701658
0.0012733177281916
0.0043769581243395
0.0074980468489229
0.0106055475771427
0.013650806620717
0.016555830836296
0.0192116741091012
0.0214870274066925
0.0232426114380359
0.0243486519902944
0.0247019287198781
0.0242396760731935
0.022949356585741
0.0208727344870567
0.0181035567075014
0.0147797456011176
0.0110715432092547
0.0071687744930386
0.0032677929848432
-0.0004464788362383
-0.0038228863850235
-0.0067597068846225
-0.0092055443674325
-0.0111512532457709
-0.0126221589744091
-0.0136715117841959
-0.0143718253821134
-0.0148036163300275
-0.015043843537569
-0.0151560138911008
-0.0151831544935703
-0.0151460543274879
-0.0150477718561887
-0.0148798506706953
-0.0146250836551189
-0.0142611730843782
-0.0137718580663204
-0.0131574040278792
-0.0124331433326005
-0.0116205923259258
-0.0107422731816768
-0.0098216524347662
-0.0088820625096559
-0.0079423561692237
-0.0070133917033672
-0.0060991547070443
-0.0052014319226145
-0.0043233651667833
-0.0034687884617596
-0.0026390643324702
-0.0018310640007257
-0.0010392232798039
-0.0002613066462799
0.000496944412589
0.0012220069766044
0.001897714450024
0.0025117034092545
0.0030559650622308
0.0035191813949495
0.0038780206814408
0.0040945522487163
0.0041206004098057
0.0039073512889444
0.0034162802621722
0.0026275403797626
0.0015488208737224
0.0002246941439807
-0.0012646238319575
-0.0028185755945742
-0.0043333428911864
-0.0057109827175736
-0.0068629328161478
-0.0077142254449427
-0.008209653198719
-0.0083191078156232
-0.0080412635579705
-0.0074042174965143
-0.0064605353400111
-0.0052794050425291
-0.003940250724554
-0.0025254916399717
-0.0011092759668827
0.0002531055361032
0.001528600230813
0.0027030566707253
0.00377609860152
0.0047586886212229
0.0056738806888461
0.0065569817088544
0.007451569661498
0.008401334285736
0.0094430185854434
0.0106050269678235
0.0119088757783174
0.0133701395243406
0.0149981323629617
0.016792444512248
0.0187388397753238
0.0208086017519235
0.0229552313685417
0.0251048598438501
0.0271525047719478
0.0289738494902849
0.0304461233317852
0.0314662903547287
0.0319615341722965
0.0318953022360801
0.0312716513872146
0.0301351957023143
0.0285640191286802
0.0266559664160013
0.0245104376226663
0.0222115702927112
0.0198197159916162
0.0173711609095335
0.0148793952539563
0.0123352501541376
0.0097124762833118
0.0069822673685848
0.0041292109526693
0.001161684282124
-0.0018842262215912
-0.004946787841618
-0.0079446211457252
-0.0107849482446908
-0.0133743239566683
-0.0156295076012611
-0.0174852758646011
-0.0188987236469984
-0.0198493935167789
-0.0203366354107856
-0.0203795339912176
-0.0200189091265201
-0.0193144269287586
-0.0183358415961265
-0.0171535536646842
-0.0158321671187877
-0.014427300542593
-0.0129837486892938
-0.0115332547575235
-0.0100922510027885
-0.0086627462878823
-0.0072369570843875
-0.0058014267124235
-0.0043406109325587
-0.0028427294455468
-0.0013042553327977
0.000268813688308
0.0018584677018225
0.0034321332350373
0.00494523672387
0.0063488306477665
0.0075987903401255
0.0086624100804328
0.0095204813405871
0.010167391039431
0.0106110163033008
0.0108715966343879
0.0109791345894336
0.0109685016795992
0.0108722941949963
0.0107171237468719
0.0105261141434311
0.0103180995211005
0.0100987246260046
0.0098523506894707
0.0095406649634242
0.0091074900701642
0.008489036001265
0.0076269889250397
0.0064801117405295
0.0050313621759414
0.0032900404185056
0.00129060074687
-0.0009091943502426
-0.0032318057492375
-0.0055880136787891
-0.0078862523660063
-0.0100387539714574
-0.0119681619107723
-0.0136182764545083
-0.0149621367454528
-0.0160006508231163
-0.0167555157095193
-0.0172619819641113
-0.0175630450248718
-0.0177055299282073
-0.0177368111908435
-0.0177012663334608
-0.0176374297589063
-0.0175747480243444
-0.0175297558307647
-0.0175053104758262
-0.0174926649779081
-0.0174726415425539
-0.0174178499728441
-0.0172992348670959
-0.0170937180519104
-0.0167883224785327
-0.0163792222738266
-0.0158683713525533
-0.0152618214488029
-0.0145685961470007
-0.0137986578047275
-0.0129625350236892
-0.012073153629899
-0.0111472057178616
-0.0102034863084554
-0.009259239770472
-0.0083282012492418
-0.0074207345023751
-0.0065459352917969
-0.0057162372395396
-0.00494962092489
-0.0042658052407205
-0.003681746777147
-0.0032122302800416
-0.0028729413170367
-0.0026810108684003
-0.0026543592102825
-0.0028118451591581
-0.0031709452159702
-0.0037405807524919
-0.0045134122483432
-0.0054618478752672
-0.0065356204286217
-0.0076626664958894
-0.0087593160569667
-0.0097452420741319
-0.0105533227324485
-0.011134291999042
-0.0114592686295509
-0.0115174837410449
-0.0113097364082932
-0.0108443768694996
-0.0101384809240698
-0.0092189582064747
-0.0081186592578887
-0.0068708872422575
-0.0055076722055673
-0.0040602618828415
-0.002557523548603
-0.00102249532938
0.0005271267145872
0.0020727533847093
0.0035910364240407
0.0050575286149978
0.0064528351649641
0.0077668903395533
0.0090009262785315
0.0101660834625363
0.0112798325717449
0.0123624308034777
0.0134323863312602
0.0145015893504023
0.015572965145111
0.016640692949295
0.0176924113184213
0.0187135636806488
0.0196898784488439
0.0206039696931839
0.0214316770434379
0.0221453476697206
0.0227220300585031
0.023151034489274
0.0234367568045854
0.0235952194780111
0.0236476864665746
0.0236154664307832
0.0235153064131736
0.023352775722742
0.0231160633265972
0.0227758698165416
0.0222922675311565
0.0216236747801303
0.0207322314381599
0.0195857025682926
0.0181618314236402
0.0164565835148096
0.0144908213987946
0.012311260215938
0.0099866827949881
0.0076022269204258
0.0052524581551551
0.0030334130860865
0.0010347189381718
-0.0006685629487037
-0.002023815177381
-0.0030048117041587
-0.0036102309823036
-0.0038603702560067
-0.0037961266934871
-0.0034791287034749
-0.0029877349734306
-0.0024060360155999
-0.0018093148246407
-0.0012526521459221
-0.000765947625041
-0.000354987103492
-6.316695362329483e-06
0.0003086635842919
0.0006299968808889
0.0010002311319112
0.001452948898077
0.0020075552165508
0.002672690199688
0.0034520623739808
0.0043428838253021
0.0053272610530257
0.0063685188069939
0.0074176974594593
0.0084249433130025
0.0093483449891209
0.0101562226191163
0.0108264479786157
0.0113466577604413
0.0117139667272567
0.0119347851723432
0.0120248049497604
0.0120053645223379
0.0118980603292584
0.0117239002138376
0.011506212875247
0.0112676657736301
0.0110176615417003
0.0107422396540641
0.0104050328955054
0.0099536264315247
0.0093277664855122
0.0084700174629688
0.0073353936895728
0.0058976309373974
0.0041529787704348
0.0021218797191977
-0.0001520793884992
-0.0026064002886414
-0.0051651690155267
-0.0077428491786122
-0.0102476133033633
-0.0125894695520401
-0.0146936476230621
-0.0165113173425197
-0.0180215332657098
-0.0192261040210723
-0.0201422777026891
-0.0207969192415475
-0.0212231799960136
-0.0214583948254585
-0.021541453897953
-0.0215096864849329
-0.0213951338082551
-0.0212204307317733
-0.0209979284554719
-0.0207317322492599
-0.0204179063439369
-0.0200458392500877
-0.0196053422987461
-0.019094219431281
-0.0185195878148078
-0.0178945157676935
-0.0172349624335765
-0.0165573768317699
-0.0158759988844394
-0.0152011616155505
-0.0145381456241011
-0.0138869239017367
-0.0132447034120559
-0.0126089639961719
-0.0119787603616714
-0.0113548040390014
-0.0107372933998703
-0.0101244747638702
-0.0095162531360983
-0.0089174816384911
-0.0083359638229012
-0.0077802008017897
-0.0072608212940394
-0.0067928913049399
-0.0063971262425184
-0.0061010052450001
-0.0059391586109995
-0.0059507498517632
-0.0061733722686767
-0.0066350046545267
-0.0073458580300211
-0.0082904994487762
-0.0094211958348751
-0.0106598744168877
-0.0119129680097103
-0.0130879413336515
-0.0141019308939576
-0.0148862460628151
-0.0153893819078803
-0.0155780129134655
-0.0154379811137914
-0.0149748222902417
-0.0142113901674747
-0.0131834130734205
-0.0119347814470529
-0.0105137601494789
-0.008970052935183
-0.007349363528192
-0.0056865084916353
-0.004004955291748
-0.0023241825401782
-0.0006663063541054
0.0009451480582356
0.0024921372532844
0.0039673093706369
0.0053746495395898
0.0067272055894136
0.0080438526347279
0.0093461479991674
0.0106538841500878
0.0119798183441162
0.0133266532793641
0.0146866403520107
0.0160442702472209
0.0173819176852703
0.0186824798583984
0.0199258122593164
0.021086087450385
0.0221360530704259
0.023054227232933
0.0238288547843694
0.0244574472308158
0.0249447040259838
0.0253013540059328
0.0255428813397884
0.0256862491369247
0.0257440451532602
0.0257152169942855
0.0255767181515693
0.0252839718014001
0.0247790813446044
0.0239986889064311
0.0228793229907751
0.021365450695157
0.0194226391613483
0.0170510355383157
0.0142933242022991
0.0112337172031402
0.0079887043684721
0.0046942294575273
0.0014931876212358
-0.0014761295169591
-0.0040907869115471
-0.0062523819506168
-0.0078941443935036
-0.0089838644489645
-0.0095209563151001
-0.0095333391800522
-0.0090785901993513
-0.0082417475059628
-0.0071226703003048
-0.0058186734095215
-0.0044118836522102
-0.0029631583020091
-0.0015100669115781
-6.84782862663269e-05
0.0013632988557219
0.002798771020025
0.0042556766420602
0.0057493704371154
0.0072896871715784
0.0088813239708542
0.0105265025049448
0.0122249564155936
0.0139701496809721
0.0157483927905559
0.0175418443977832
0.0193306691944599
0.0210935845971107
0.0228068064898252
0.0244415942579507
0.0259644351899623
0.0273406654596328
0.0285358671098947
0.0295144580304622
0.030240811407566
0.0306832250207662
0.0308172088116407
0.0306282341480255
0.0301120169460773
0.0292676091194152
0.0280875079333782
0.0265537500381469
0.0246412083506584
0.0223231837153434
0.0195776615291833
0.0163953676819801
0.0127871986478567
0.0087876059114933
0.0044554714113473
-0.0001249518245458
-0.0048466082662343
-0.0095870289951562
-0.0142142390832304
-0.0185913257300853
-0.0225883740931749
-0.0261012949049472
-0.029065266251564
-0.0314553454518318
-0.0332786031067371
-0.0345653966069221
-0.035363383591175
-0.0357344783842563
-0.03575299680233
-0.0354992263019084
-0.0350470133125782
-0.0344554334878921
-0.0337695926427841
-0.0330229550600051
-0.0322359949350357
-0.0314135923981666
-0.0305476691573858
-0.0296269413083791
-0.0286468379199504
-0.0276141483336687
-0.0265459846705198
-0.0254646446555852
-0.0243925806134939
-0.0233502686023712
-0.0223558712750673
-0.0214236453175544
-0.0205593407154083
-0.01975679397583
-0.0190010573714971
-0.0182737577706575
-0.017552800476551
-0.0168099850416183
-0.0160170421004295
-0.0151581121608614
-0.0142356976866722
-0.0132678607478737
-0.0122846569865942
-0.0113266287371516
-0.0104442462325096
-0.0096967499703168
-0.0091481590643525
-0.0088613284751772
-0.0088912080973386
-0.009276621043682
-0.0100323092192411
-0.0111426431685686
-0.0125568285584449
-0.0141878798604011
-0.0159195102751255
-0.0176225136965513
-0.0191728994250297
-0.0204618386924266
-0.0213987752795219
-0.0219137519598007
-0.0219604037702083
-0.0215192716568708
-0.0205996520817279
-0.0192379616200923
-0.0174933113157749
-0.0154406717047095
-0.0131628671661019
-0.0107433702796697
-0.0082576433196663
-0.0057639880105853
-0.0033020172268152
-0.0008998364210128
0.0014198645949363
0.0036399271339178
0.0057502593845129
0.0077474741265177
0.0096340589225292
0.0114167546853423
0.0131031479686498
0.0146991079673171
0.0162093266844749
0.0176385566592216
0.0189904570579528
0.020264983177185
0.0214580260217189
0.0225643143057823
0.0235780421644449
0.0244879964739084
0.0252747051417827
0.0259162001311779
0.026397006586194
0.0267120618373155
0.0268645100295543
0.0268600992858409
0.0267022959887981
0.0263912435621023
0.0259234420955181
0.025289224460721
0.0244702529162168
0.0234399158507585
0.0221696775406599
0.0206402335315942
0.0188478417694568
0.0168019104748964
0.0145238824188709
0.0120536824688315
0.0094567900523543
0.0068249851465225
0.0042714867740869
0.001923469826579
-8.673965930938721e-05
-0.0016313567757606
-0.0025977063924074
-0.0028995834290981
-0.0024877376854419
-0.0013570971786975
0.0004506688565015
0.0028487052768468
0.005708185955882
0.0088637834414839
0.0121268741786479
0.0153066739439964
0.01823116466403
0.0207623057067394
0.0228061601519584
0.0243188645690679
0.0253067463636398
0.0258193481713533
0.0259385108947753
0.0257651451975107
0.0254029110074043
0.0249441303312778
0.0244636330753564
0.0240188650786876
0.0236494652926921
0.0233717374503612
0.0231746584177017
0.0230262950062751
0.0228871777653694
0.0227215737104415
0.0225026067346334
0.0222116950899362
0.0218359604477882
0.0213675592094659
0.0208050403743982
0.0201541800051927
0.0194262377917766
0.0186337474733591
0.0177866034209728
0.0168927013874053
0.0159600898623466
0.0149926142767071
0.0139813749119639
0.0128981042653322
0.0116915460675954
0.0102907735854387
0.0086179282516241
0.0066043995320796
0.0042051672935485
0.0014099963009357
-0.0017500389367341
-0.0052025653421878
-0.0088418554514646
-0.0125431017950177
-0.0161765422672033
-0.0196167938411235
-0.0227519702166318
-0.0254964027553796
-0.0277991853654384
-0.0296429228037595
-0.0310383234173059
-0.0320189781486988
-0.0326350443065166
-0.032945442944765
-0.0330097340047359
-0.0328814163804054
-0.0326053015887737
-0.0322187021374702
-0.0317522771656513
-0.0312292799353599
-0.0306631624698638
-0.0300528146326541
-0.0293825361877679
-0.0286327134817838
-0.0277915839105844
-0.0268580354750156
-0.0258386861532926
-0.0247444827109575
-0.023587979376316
-0.0223822817206382
-0.0211416780948638
-0.0198831725865602
-0.0186278522014617
-0.0173994600772857
-0.0162209495902061
-0.0151126505807042
-0.0140905641019344
-0.0131620001047849
-0.0123234912753105
-0.0115667954087257
-0.0108862752094864
-0.010278764180839
-0.0097397789359092
-0.0092616379261016
-0.0088331717997789
-0.0084424568340182
-0.0080843772739171
-0.0077698114328086
-0.0075311698019504
-0.0074208555743098
-0.0075033023022115
-0.0078436927869915
-0.0084930770099163
-0.0094714555889368
-0.0107603594660758
-0.0123099107295274
-0.0140476319938898
-0.0158819295465946
-0.0177061520516872
-0.0194051600992679
-0.0208632852882146
-0.0219742711633443
-0.0226529706269502
-0.0228453390300273
-0.0225319564342498
-0.0217259172350168
-0.0204678475856781
-0.018818974494934
-0.0168535038828849
-0.0146510414779186
-0.012292992323637
-0.0098626744002103
-0.0074406946077942
-0.0050950637087225
-0.0028734104707837
-0.0007997537031769
0.0011256719008088
0.0029232194647192
0.0046266783028841
0.0062746554613113
0.0079034930095076
0.0095428293570876
0.0112131899222731
0.0129248648881912
0.014677814207971
0.0164616387337446
0.0182543974369764
0.0200202986598014
0.021709855645895
0.023266403004527
0.0246367305517196
0.0257811546325683
0.0266811475157737
0.0273435954004526
0.0277994237840175
0.0280953552573919
0.0282827913761138
0.0284087508916854
0.0285090394318103
0.0286034494638443
0.0286950878798961
0.0287711210548877
0.0287983976304531
0.0287169404327869
0.0284416433423757
0.0278738215565681
0.0269169993698596
0.0254936479032039
0.0235599484294652
0.0211147386580705
0.0182017721235752
0.0149063318967819
0.0113473236560821
0.0076666744425892
0.0040165637619793
0.000545316375792
-0.002613890916109
-0.0053495001047849
-0.0075783831998705
-0.0092556234449148
-0.0103794960305094
-0.0109859416261315
-0.0111372973769903
-0.0109119638800621
-0.0103963324800133
-0.0096752308309078
-0.0088210105895996
-0.007887271232903
-0.0069073466584086
-0.0058941496536135
-0.004841792397201
-0.0037294290959835
-0.0025272760540246
-0.001204116269946
0.0002636797726154
0.0018818937242031
0.003632656764239
0.0054778968915343
0.0073687541298568
0.0092545412480831
0.011088840663433
0.0128331668674945
0.0144578702747821
0.0159406960010528
0.0172644667327404
0.0184156373143196
0.0193844139575958
0.02016525529325
0.0207592397928237
0.0211789235472679
0.0214473661035299
0.021587049588561
0.0216092579066753
0.0215122662484645
0.0212868154048919
0.0209248289465904
0.0204236842691898
0.0197810996323823
0.0189864709973335
0.018016293644905
0.0168360769748687
0.0154061671346426
0.0136867444962263
0.0116423545405268
0.0092505412176251
0.0065131932497024
0.0034609017893671
0.0001469934359192
-0.0033581731840968
-0.0069670882076025
-0.0105753410607576
-0.0140657341107726
-0.0173166915774345
-0.0202151238918304
-0.022668931633234
-0.0246141664683818
-0.0260177664458751
-0.0268782339990139
-0.0272247679531574
-0.0271143428981304
-0.0266247764229774
-0.0258434079587459
-0.0248576141893863
-0.0237520728260278
-0.0226068589836359
-0.0214907862246036
-0.0204538572579622
-0.0195251554250717
-0.0187173429876565
-0.0180318355560302
-0.0174593012779951
-0.0169773735105991
-0.0165499448776245
-0.0161305610090494
-0.0156695507466793
-0.0151231624186038
-0.0144623341038823
-0.0136789102107286
-0.0127913188189268
-0.0118515072390437
-0.0109467403963208
-0.01018822286278
-0.0096880970522761
-0.0095334090292453
-0.0097655793651938
-0.010372269898653
-0.0112923868000507
-0.0124268485233187
-0.013648054562509
-0.0148059716448187
-0.0157324057072401
-0.0162478256970644
-0.016172232106328
-0.0153413014486432
-0.013636871241033
-0.0110316928476095
-0.0076252720318734
-0.0036499937996268
0.0005545286694541
0.0045919194817543
0.0080696418881416
0.0106541225686669
0.012114442884922
0.0123515781015157
0.0114093534648418
0.0094661097973585
0.0068099694326519
0.0038042995147407
0.000848222291097
-0.0016671703197062
-0.00340570602566
-0.0041303248144686
-0.0037345439195632
-0.0022531612776219
0.0001502665691077
0.0032144119031727
0.006619628984481
0.0100284740328788
0.0131213683634996
0.0156239960342645
0.0173300877213478
0.0181201547384262
0.0179695300757884
0.0169422514736652
0.0151749495416879
0.0128557216376066
0.0101971756666898
0.0074051818810403
0.0046549416147172
0.0020817501936107
-0.0002185134217143
-0.0021852292120456
-0.0037887655198574
-0.0050279987044632
-0.0059264125302433
-0.0065244054421782
-0.0068712728098034
-0.0070183416828513
-0.0070104077458381
-0.0068771541118621
-0.0066306255757808
-0.0062693459913134
-0.0057865278795361
-0.0051803654059767
-0.0044612754136323
-0.0036527225747704
-0.0027881944552063
-0.0019083870574831
-0.001059622503817
-0.0002924157306551
0.0003397837281227
0.0007821936160326
0.0009839376434683
0.0009095324203372
0.0005536759272217
-4.850048571825028e-05
-0.0008235005661845
-0.0016741687431931
-0.002500819042325
-0.0032225223258137
-0.0037906374782323
-0.0041902642697095
-0.00443328730762
-0.004547961987555
-0.0045720320194959
-0.0045520402491092
-0.0045385118573904
-0.0045696217566728
-0.0046529844403266
-0.0047610197216272
-0.0048426073044538
-0.0048390217125415
-0.0046923551708459
-0.0043446496129035
-0.0037366710603237
-0.0028153378516435
-0.0015434529632329
9.905733168125153e-05
0.0021205395460128
0.0045223850756883
0.0073012430220842
0.0104502560570836
0.0139620322734117
0.0178328976035118
0.0220615062862634
0.0266390219330787
0.0315348431468009
0.0366814099252224
0.0419648587703704
0.0472272634506225
0.0522757694125175
0.0568936839699745
0.0608580820262432
0.0639664679765701
0.0660638287663459
0.0670615658164024
0.0669459104537963
0.0657738521695137
0.0636590123176574
0.0607544332742691
0.0572338886559009
0.0532699711620807
0.0490115284919738
0.0445663034915924
0.0399953350424766
0.0353181473910808
0.030519938096404
0.0255602188408374
0.0203900206834077
0.0149746518582105
0.0093109514564275
0.0034326985478401
-0.0025934018194675
-0.0086748171597719
-0.0147021282464265
-0.0205591022968292
-0.02612941339612
-0.0313015580177307
-0.0359768383204937
-0.0400780253112316
-0.0435547977685928
-0.0463863871991634
-0.0485843196511268
-0.0501948222517967
-0.051295094192028
-0.0519810393452644
-0.0523509234189987
-0.0524902939796447
-0.052461240440607
-0.0522975586354732
-0.052007682621479
-0.0515836849808692
-0.0510093010962009
-0.0502627864480018
-0.0493197664618492
-0.048159547150135
-0.0467695072293281
-0.045145034790039
-0.0432909727096557
-0.0412272065877914
-0.038992378860712
-0.0366399250924587
-0.0342287570238113
-0.031815230846405
-0.0294485352933406
-0.0271670538932085
-0.0249960999935865
-0.0229479987174272
-0.0210229866206645
-0.0192102249711751
-0.0174900200217962
-0.015837125480175
-0.0142229944467544
-0.0126180965453386
-0.0109992204234004
-0.0093611758202314
-0.0077261915430426
-0.0061462000012397
-0.0046974127180874
-0.0034696413204073
-0.0025523302610963
-0.0020190281793475
-0.0019148061983287
-0.0022493763826787
-0.002995281945914
-0.004089253488928
-0.0054356297478079
-0.00691394880414
-0.0083897272124886
-0.0097251338884234
-0.010791826993227
-0.0114863533526659
-0.0117410458624362
-0.0115254558622837
-0.0108408788219094
-0.0097133871167898
-0.0081889946013689
-0.0063309278339147
-0.0042158998548984
-0.0019280109554529
0.0004474520683288
0.0028294678777456
0.0051475744694471
0.0073478538542985
0.0093980124220252
0.0112921288236975
0.0130471969023346
0.0146874412894248
0.0162312351167202
0.0176913700997829
0.0190798006951808
0.0204078517854213
0.0216849744319915
0.0229199901223182
0.0241217128932476
0.0252969302237033
0.0264481008052825
0.0275715813040733
0.0286563653498888
0.0296850521117448
0.0306384209543466
0.0315014235675334
0.0322646163403987
0.0329193249344825
0.0334534607827663
0.0338525809347629
0.0341040231287479
0.0342017337679863
0.0341487117111682
0.033954668790102
0.0336318537592887
0.0331908091902732
0.0326334536075592
0.0319458693265914
0.0310969278216362
0.0300422850996255
0.0287308245897293
0.027112802490592
0.0251457951962947
0.0227979160845279
0.0200547389686107
0.0169295482337474
0.0134704932570457
0.0097620273008942
0.0059202970005571
0.0020824605599045
-0.0016080765053629
-0.0050163716077804
-0.0080278739333152
-0.010557247325778
-0.0125531945377588
-0.0139989145100116
-0.0149087756872177
-0.0153225138783454
-0.0153011521324515
-0.0149247935041785
-0.0142852161079645
-0.0134732536971569
-0.0125684365630149
-0.01163275167346
-0.0107069881632924
-0.0098101496696472
-0.0089422976598143
-0.0080893216654658
-0.0072282287292182
-0.0063342940993607
-0.0053894589655101
-0.0043870978988707
-0.0033300286158919
-0.0022235517390072
-0.0010718426201492
0.0001159264502348
0.0013180018868297
0.002501483540982
0.003630384337157
0.0046741687692701
0.0056142886169254
0.006446230225265
0.0071757622063159
0.0078130653128027
0.0083692008629441
0.008854535408318
0.0092776678502559
0.0096458671614527
0.0099677722901105
0.0102554745972156
0.0105208232998847
0.0107669848948717
0.0109838657081127
0.0111508667469024
0.0112402364611625
0.0112151075154542
0.0110264858230948
0.0106156580150127
0.0099212117493152
0.0088878739625215
0.0074756406247615
0.0056663993746042
0.0034665390849113
0.0009084697812795
-0.0019459519535303
-0.0050042299553751
-0.0081509426236152
-0.011261885985732
-0.0142171643674373
-0.0169112887233495
-0.0192598365247249
-0.0212019495666027
-0.0227003190666437
-0.02374017983675
-0.0243288241326808
-0.0244957078248262
-0.0242907330393791
-0.0237786434590816
-0.023029264062643
-0.0221068952232599
-0.0210627801716327
-0.0199323631823062
-0.018738767132163
-0.0174998436123132
-0.0162328276783227
-0.0149544011801481
-0.013677954673767
-0.0124118588864803
-0.0111608589068055
-0.0099285058677196
-0.0087192589417099
-0.0075407507829368
-0.0064049093052744
-0.0053266719914972
-0.0043209958821535
-0.003399334847927
-0.0025671226903796
-0.0018231570720672
-0.0011622691527009
-0.0005818558856844
-8.62395390868187e-05
0.0003178361803293
0.000631040893495
0.0008657462894916
0.0010406896471977
0.0011741742491722
0.0012822924181818
0.0013791546225547
0.0014763046056032
0.0015812469646334
0.0016949269920587
0.0018093874678015
0.0019068177789449
0.0019603352993726
0.0019341530278325
0.0017812736332416
0.0014436738565564
0.000859897583723
-2.1898187696933743e-05
-0.0012322766706347
-0.002774070482701
-0.004618857987225
-0.006705944892019
-0.0089463796466588
-0.0112320287153124
-0.0134467426687479
-0.0154761103913187
-0.0172156579792499
-0.0185788590461015
-0.0195029564201831
-0.0199535638093948
-0.0199306085705757
-0.0194699335843324
-0.0186362471431493
-0.0175114944577217
-0.0161822028458118
-0.0147280804812908
-0.0132152140140533
-0.0116932606324553
-0.0101935639977455
-0.0087286522611975
-0.0072955605573952
-0.0058827959001064
-0.0044772392138838
-0.003067310899496
-0.0016439519822597
-0.0002038208767771
0.0012452164664864
0.0026810392737388
0.004070674534887
0.0053781801834702
0.0065726414322853
0.0076359463855624
0.0085694612935185
0.0093956217169761
0.0101523231714963
0.0108823478221893
0.0116241602227091
0.0124074276536703
0.0132504673674702
0.0141597772017121
0.0151334907859563
0.0161634236574172
