bvp
0.000423262361437
0.0015218120533972
0.0026246386114507
0.0037319231778383
0.0048410329036414
0.0059456899762153
0.0070384019054472
0.0081134876236319
0.0091628078371286
0.0101664094254374
0.0110895624384284
0.0118895415216684
0.0125267785042524
0.0129752103239297
0.0132276909425854
0.0132962651550769
0.0132087394595146
0.013000976294279
0.0127080827951431
0.0123582882806658
0.011967135593295
0.011529098264873
0.011010130867362
0.0103460261598229
0.009444760158658
0.0081925280392169
0.0064723435789346
0.0041958559304475
0.0013324851170182
-0.0020769136026501
-0.005921353586018
-0.010033456608653
-0.014213865622878
-0.018258724361658
-0.0219817273318767
-0.0252281762659549
-0.0278828628361225
-0.0298729408532381
-0.0311658922582864
-0.0317665189504623
-0.0317172668874263
-0.0310982950031757
-0.0300203412771224
-0.0286106877028942
-0.0269974097609519
-0.0252944454550743
-0.0235899146646261
-0.0219401232898235
-0.020368630066514
-0.0188688151538372
-0.0174087285995483
-0.0159397106617689
-0.0144106578081846
-0.0127832321450114
-0.0110385976731777
-0.0091734044253826
-0.0071968156844377
-0.0051358756609261
-0.0030380780808627
-0.0009629993000999
0.0010314276441931
0.0028998013585805
0.0046127047389745
0.0061553688719868
0.0075263953767716
0.0087370174005627
0.0098098814487457
0.01077610719949
0.011669130064547
0.0125183323398232
0.0133482869714498
0.0141801880672574
0.0150253428146243
0.0158717483282089
0.0166737344115972
0.017349537461996
0.0177869610488414
0.0178566928952932
0.0174315404146909
0.0164086334407329
0.0147296655923128
0.0123940464109182
0.0094645023345947
0.0060638021677732
0.0023594871163368
-0.0014591621002182
-0.0052014198154211
-0.0086878230795264
-0.0117627996951341
-0.0143114393576979
-0.0162696335464715
-0.0176192596554756
-0.0183757357299327
-0.0185794159770011
-0.0182912908494472
-0.0175877641886472
-0.0165546089410781
-0.0152806472033262
-0.0138490032404661
-0.0123280826956033
-0.0107669429853558
-0.0091953473165631
-0.0076251681894063
-0.006050675176084
-0.0044525191187858
-0.0028106942772865
-0.0011175423860549
0.0006197616457939
0.0023839152418076
0.0041527850553393
0.005904131103307
0.0076196105219423
0.0092872837558388
0.0109016820788383
0.012460671365261
0.0139614352956414
0.0153979416936635
0.0167600605636835
0.018036313354969
0.0192195698618888
0.0203074887394905
0.0212943628430366
0.0221654325723648
0.022901427000761
0.0234849341213703
0.0239030253142118
0.0241507552564144
0.024234339594841
0.0241698250174522
0.0239796973764896
0.0236882977187633
0.023314069956541
0.0228589922189712
0.0222982317209243
0.0215771477669477
0.0206181388348341
0.0193294398486614
0.0176134575158357
0.015382470563054
0.0125830648466944
0.0092175649479031
0.0053518996573984
0.001111545599997
-0.0033314474858343
-0.0077808289788663
-0.0120413331314921
-0.0159392319619655
-0.019336812198162
-0.0221391767263412
-0.0242947712540626
-0.0257923901081085
-0.0266527533531188
-0.0269216485321521
-0.0266735218465328
-0.0260130446404218
-0.0250620394945144
-0.0239397510886192
-0.0227486565709114
-0.0215671677142381
-0.0204439833760261
-0.0193950142711401
-0.018407367169857
-0.0174486767500638
-0.0164763182401657
-0.0154432859271764
-0.0143038090318441
-0.0130214858800172
-0.0115750525146722
-0.0099601969122886
-0.0081922346726059
-0.0063074389472603
-0.0043577961623668
-0.0024010790511965
-0.0004905821988359
0.0013324640458449
0.0030425423756241
0.0046300617977976
0.006098004989326
0.0074566444382071
0.008719534613192
0.0099000129848718
0.0110076423734426
0.0120491506531834
0.0130329243838787
0.0139664728194475
0.0148453954607248
0.0156474839895963
0.0163400489836931
0.0168947149068117
0.0173001606017351
0.0175652168691158
0.0177089143544435
0.0177416484802961
0.0176485627889633
0.0173830576241016
0.0168708804994821
0.0160258151590824
0.0147747453302145
0.013082250021398
0.0109665058553218
0.008500026538968
0.0057949414476752
0.0029836352914571
0.0002027968876063
-0.00241892458871
-0.0047699436545372
-0.0067613804712891
-0.008331243880093
-0.0094488197937607
-0.0101168351247906
-0.0103685073554515
-0.0102617405354976
-0.0098736565560102
-0.0092934183776378
-0.0086098676547408
-0.0078958878293633
-0.0071987956762313
-0.0065434165298938
-0.0059395539574325
-0.0053834682330489
-0.0048563596792519
-0.0043264306150376
-0.0037542120553553
-0.0030987644568085
-0.0023255804553627
-0.0014152009971439
-0.0003684218972921
0.0007939711213111
0.0020361449569463
0.0033139502629637
0.0045823855325579
0.0058033233508467
0.0069474624469876
0.0079888282343745
0.0089007141068577
0.0096586048603057
0.0102462535724043
0.0106580536812543
0.0108968690037727
0.0109734237194061
0.0109073063358664
0.0107243778184056
0.0104515831917524
0.0101134367287158
0.0097304796800017
0.0093166008591651
0.0088726710528135
0.0083772204816341
0.0077759195119142
0.0069760307669639
0.0058569200336933
0.004297312349081
0.0022059697657823
-0.0004565827548503
-0.0036673638969659
-0.0073381224647164
-0.0113225448876619
-0.0154365412890911
-0.0194859355688095
-0.0232917554676532
-0.0267060287296772
-0.0296172834932804
-0.0319504812359809
-0.0336649939417839
-0.0347544252872467
-0.0352511219680309
-0.0352277718484401
-0.0347873121500015
-0.0340440571308136
-0.0331049710512161
-0.0320581272244453
-0.0309685133397579
-0.0298751667141914
-0.0287884399294853
-0.0276925880461931
-0.0265548527240753
-0.0253355652093887
-0.023995004594326
-0.0224971529096364
-0.0208118148148059
-0.0189194772392511
-0.0168213881552219
-0.0145459882915019
-0.0121439723297953
-0.0096770580857992
-0.0072071780450642
-0.0047880695201456
-0.0024603400379419
-0.0002498356625437
0.0018312400206923
0.0037804464809596
0.0056013911962509
0.0073029305785894
0.008899787440896
0.0104137882590293
0.0118730226531624
0.0133027667179703
0.0147132938727736
0.0160966459661722
0.0174321830272674
0.0186937823891639
0.0198532976210117
0.0208758115768432
0.0217101722955703
0.0222848895937204
0.0225111991167068
0.0222905743867158
0.0215299967676401
0.0201643574982881
0.0181760601699352
0.0156062189489603
0.0125587675720453
0.0091911535710096
0.0056871240958571
0.0022284295409917
-0.0010198634117841
-0.0039191506803035
-0.0063693420961499
-0.0083149522542953
-0.009739251807332
-0.010652357712388
-0.0110835097730159
-0.0110798645764589
-0.0107058975845575
-0.0100379474461078
-0.0091524291783571
-0.0081118643283844
-0.00695769675076
-0.0057165455073118
-0.0044129192829132
-0.0030736643821001
-0.0017222836613655
-0.0003719422966241
0.0009778942912817
0.0023400411009788
0.0037340894341468
0.0051792729645967
0.0066883061081171
0.00826414860785
0.0098995454609394
0.0115780932828783
0.0132759772241115
0.0149657735601067
0.0166239961981773
0.0182338096201419
0.0197758544236421
0.0212195646017789
0.0225277692079544
0.023668335750699
0.0246210619807243
0.0253801103681325
0.0259558763355016
0.0263736546039581
0.0266693793237209
0.0268854890018701
0.0270647890865802
0.0272427983582019
0.0274431109428405
0.027673415839672
0.0279164724051952
0.028117086738348
0.0281727779656648
0.0279389303177595
0.0272525008767843
0.0259652361273765
0.0239744335412979
0.0212445966899395
0.0178176909685134
0.0138118993490934
0.0094087291508913
0.0048298039473593
0.0003067718353122
-0.0039497883990406
-0.0077729485929012
-0.0110463742166757
-0.0136986710131168
-0.0156976636499166
-0.0170529745519161
-0.0178193654865026
-0.0180897023528814
-0.0179785098880529
-0.0176041740924119
-0.0170745197683572
-0.0164767783135175
-0.0158729739487171
-0.0152997775003314
-0.0147695364430546
-0.0142729301005601
-0.013784997165203
-0.0132706901058554
-0.0126859936863183
-0.0119799366220831
-0.0111065758392214
-0.0100425295531749
-0.00879508536309
-0.0073966057971119
-0.005893581546843
-0.0043372604995965
-0.0027773475740104
-0.0012578994501382
0.0001863948855316
0.001532016787678
0.0027647807728499
0.0038786141667515
0.0048769209533929
0.0057717878371477
0.0065803593024611
0.0073244143277406
0.0080299582332372
0.0087178293615579
0.0093918349593877
0.0100333243608474
0.0105966245755553
0.0110024828463792
0.011136669665575
0.0108593683689832
0.0100274877622723
0.0085273589938879
0.0063066240400075
0.0033922111615538
-0.0001108385622501
-0.0040347641333937
-0.0081686386838555
-0.0122781554237008
-0.0161322671920061
-0.0195370614528656
-0.0223598536103963
-0.0245309565216302
-0.0260314978659153
-0.026881705969572
-0.0271339695900678
-0.0268656592816114
-0.0261696744710207
-0.0251480620354414
-0.0239071119576692
-0.0225458908826112
-0.02114138007164
-0.0197419766336679
-0.018369810655713
-0.0170222409069538
-0.0156755987554788
-0.0142994057387113
-0.0128712560981512
-0.011380654759705
-0.0098268613219261
-0.0082176066935062
-0.0065667703747749
-0.0048902262933552
-0.0032028784044086
-0.0015175533480942
0.0001539578661322
0.0017987100873142
0.0034024361521005
0.0049514914862811
0.0064367447048425
0.007857521995902
0.0092178303748369
0.0105156674981117
0.0117382351309061
0.0128671135753393
0.0138858743011951
0.0147843277081847
0.0155589748173952
0.0162129532545804
0.0167568512260913
0.0172061119228601
0.0175709277391433
0.0178404077887535
0.0179693140089511
0.0178747717291116
0.017444435507059
0.0165564734488725
0.0151071036234498
0.0130337979644536
0.0103280274197459
0.0070409169420599
0.0032820233609527
-0.0007910439162515
-0.0049900952726602
-0.0091182077303528
-0.0129920952022075
-0.0164584405720233
-0.0194016341120004
-0.0217461008578538
-0.0234568323940038
-0.0245365966111421
-0.0250147599726915
-0.0249320454895496
-0.024334892630577
-0.023281555622816
-0.0218462646007537
-0.0201115179806947
-0.0181546136736869
-0.0160387493669986
-0.0138098578900098
-0.0114975553005933
-0.0091201895847916
-0.00669074524194
-0.0042197164148092
-0.0017159786075353
0.0008102795109152
0.0033433213829994
0.0058635850436985
0.0083559835329651
0.010811137035489
0.0132129155099391
0.0155274793505668
0.017706423997879
0.0196983348578214
0.0214591193944215
0.0229571424424648
0.0241730511188507
0.0250974223017692
0.0257306769490242
0.0260858740657567
0.0261919740587472
0.0260956734418869
0.0258590653538703
0.0255521927028894
0.0252431016415357
0.0249856859445571
0.0248067677021026
0.0246991738677024
0.0246207825839519
0.0244932081550359
0.0242018532007932
0.0236044600605964
0.0225509963929653
0.0209105294197797
0.0185969155281782
0.0155878793448209
0.0119344554841518
0.0077579012140631
0.0032344786450266
-0.0014252746477723
-0.0059964447282254
-0.0102622490376234
-0.0140423383563756
-0.0172148086130619
-0.0197189021855592
-0.0215439982712268
-0.0227181483060121
-0.0232990514487028
-0.023364782333374
-0.0230052173137664
-0.0223150383681058
-0.0213875323534011
-0.0203094333410263
-0.0191564317792654
-0.0179873555898666
-0.0168358590453863
-0.0157038196921348
-0.0145654855296015
-0.0133837452158331
-0.0121261719614267
-0.0107706421986222
-0.0093047823756933
-0.00772654870525
-0.0060448162257671
-0.0042767422273755
-0.0024445191957056
-0.0005755859892815
0.0012970357201993
0.0031378138810396
0.0049116634763777
0.0065871397964656
0.0081425718963146
0.0095714498311281
0.0108805708587169
0.0120792910456657
0.0131693333387374
0.0141441486775875
0.0149947591125965
0.0157144293189048
0.0162965934723615
0.0167258232831954
0.0169666409492492
0.0169553719460964
0.0166004449129104
0.0157948266714811
0.0144381960853934
0.0124618802219629
0.0098501238971948
0.0066532930359244
0.0029855752363801
-0.0009965924546122
-0.0051200911402702
-0.0092089008539915
-0.0130910873413085
-0.0166081190109252
-0.0196267627179622
-0.022049581632018
-0.0238205417990684
-0.0249252393841743
-0.0253872387111186
-0.0252625495195388
-0.024633415043354
-0.0236006043851375
-0.0222716107964515
-0.0207449384033679
-0.0191012229770421
-0.0174075625836849
-0.0157214105129241
-0.0140851130709052
-0.0125202443450689
-0.0110282404348254
-0.0095945354551076
-0.0081927813589572
-0.0067897178232669
-0.0053532239980995
-0.0038611507043242
-0.0023047267459332
-0.0006865975446999
0.0009810612536966
0.0026781684719026
0.0043819407001137
0.0060707470402121
0.0077195167541503
0.0092950463294982
0.0107595296576619
0.0120769161731004
0.0132190296426415
0.0141721023246645
0.0149401016533374
0.0155426319688558
0.0160093680024147
0.0163736939430236
0.0166678093373775
0.0169189255684614
0.0171430762857198
0.0173374190926551
0.0174730084836483
0.0174843538552522
0.017261154949665
0.0166573673486709
0.0155185125768184
0.0137157421559095
0.0111778369173407
0.0079125380143523
0.0040101632475852
-0.0003679757937788
-0.0050096930935978
-0.0096779866144061
-0.0141400285065174
-0.0181929636746644
-0.0216812100261449
-0.0245012007653713
-0.0265950020402669
-0.0279443487524986
-0.0285728201270103
-0.0285467281937599
-0.0279656536877155
-0.0269482135772705
-0.0256177242845296
-0.0240877512842416
-0.0224517919123172
-0.0207791719585657
-0.019114714115858
-0.0174812376499176
-0.0158842001110315
-0.0143154133111238
-0.0127541301771998
-0.0111675541847944
-0.0095131043344736
-0.0077465842477977
-0.005839068442583
-0.0037921008188277
-0.0016368562355637
0.0005808491259813
0.0028143913950771
0.0050210822373628
0.0071633094921708
0.0092104934155941
0.0111407507210969
0.0129409730434417
0.0146048227325081
0.0161303058266639
0.0175180397927761
0.018769996240735
0.0198906194418668
0.0208876971155405
0.0217672884464263
0.0225276239216327
0.0231601148843765
0.0236559621989727
0.0240125097334384
0.0242350939661264
0.0243340730667114
0.0243199840188026
0.0241975858807563
0.0239573828876018
0.0235653594136238
0.0229551643133163
0.0220299232751131
0.0206808689981699
0.0188173130154609
0.0163878630846738
0.0133868586272001
0.0098579851910471
0.0058961138129234
0.0016419109888374
-0.0027300091460347
-0.0070298030041158
-0.0110746202990412
-0.0147059746086597
-0.017798913642764
-0.0202650763094425
-0.0220548976212739
-0.0231614056974649
-0.0236203018575906
-0.0235015619546175
-0.0228970553725957
-0.0219129882752895
-0.0206669606268405
-0.0192805342376232
-0.0178653113543987
-0.0165089815855026
-0.0152658326551318
-0.0141530744731426
-0.0131524382159113
-0.01221789047122
-0.0112897567451
-0.0103087909519672
-0.0092243403196334
-0.007998532615602
-0.0066109881736338
-0.0050620581023395
-0.0033693588338792
-0.0015624182997271
0.000318206846714
0.0022213128395378
0.0040888590738177
0.0058627715334296
0.0074933250434696
0.0089461524039506
0.0102044623345136
0.0112667605280876
0.0121449073776602
0.0128637226298451
0.0134589495137333
0.0139726139605045
0.0144461477175354
0.0149139622226357
0.0154015906155109
0.0159232374280691
0.0164707563817501
0.0170000586658716
0.0174263510853052
0.01762998662889
0.0174705125391483
0.0168087799102067
0.015533841215074
0.013586351647973
0.0109725650399923
0.0077675925567746
0.0041079777292907
0.0001744809560477
-0.0038309183437377
-0.0077052782289683
-0.0112578477710485
-0.0143234487622976
-0.0167811661958694
-0.0185691751539707
-0.0196861661970615
-0.0201816242188215
-0.0201406814157962
-0.0196674950420856
-0.0188726224005222
-0.0178653616458177
-0.0167464017868042
-0.0155998319387435
-0.0144858043640851
-0.0134347835555672
-0.0124485064297914
-0.0115070277824997
-0.0105727752670645
-0.0095955459401011
-0.0085285203531384
-0.0073458333499729
-0.006046493537724
-0.0046456046402454
-0.0031642492394894
-0.0016259769909083
-5.77468890696764e-05
0.0015105607453733
0.003048988059163
0.0045314887538552
0.0059399674646556
0.0072658378630876
0.008507315069437
0.0096657015383243
0.0107458475977182
0.0117551134899258
0.0126943234354257
0.0135516989976167
0.0143082235008478
0.0149460788816213
0.015454713255167
0.0158350076526403
0.0160982981324195
0.0162622798234224
0.0163491386920213
0.0163802746683359
0.0163626857101917
0.0162750929594039
0.0160604789853096
0.0156272985041141
0.0148638691753149
0.0136601384729146
0.0119251264259219
0.009602983482182
0.0066915578208863
0.0032537071965634
-0.000585263594985
-0.0046511734835803
-0.0087439976632595
-0.0126664619892835
-0.0162479951977729
-0.0193579420447349
-0.0219091810286045
-0.0238552466034889
-0.0251853223890066
-0.0259178914129734
-0.0260912254452705
-0.0257582124322652
-0.0249915588647127
-0.023887874558568
-0.0225581303238868
-0.0211095288395881
-0.0196307133883237
-0.0181837119162082
-0.0168003719300031
-0.0154822804033756
-0.0142048709094524
-0.0129261426627635
-0.0115975625813007
-0.0101743787527084
-0.0086230663582682
-0.0069225989282131
-0.0050619416870176
-0.0030432986095547
-0.0008925748988986
0.0013364292681217
0.0035735047422349
0.0057497676461935
0.0078086992725729
0.0097096152603626
0.0114277182146906
0.0129528706893324
0.014289129525423
0.0154545474797487
0.0164781138300895
0.0173930749297142
0.0182289332151412
0.0190073270350694
0.0197442173957824
0.0204503871500492
0.0211249366402626
0.0217516086995601
0.0223058219999074
0.0227643176913261
0.0231057554483413
0.0233032722026109
0.0233178883790969
0.0230943318456411
0.0225576981902122
0.0216180216521024
0.0201877616345882
0.0182035397738218
0.0156427659094333
0.0125366207212209
0.0089796697720885
0.0051241246983408
0.0011534242657944
-0.0027484158053994
-0.0064174896106123
-0.0097222859039902
-0.0125694330781698
-0.0149026373401284
-0.0166985597461462
-0.0179615691304206
-0.0187180433422327
-0.0190142933279275
-0.0189164243638515
-0.0185052715241909
-0.0178668648004531
-0.0170820467174053
-0.0162153150886297
-0.0153091344982385
-0.0143896592780947
-0.0134742893278598
-0.012572057545185
-0.0116805639117956
-0.0107847768813371
-0.0098604457452893
-0.0088809076696634
-0.0078225033357739
-0.0066675748676061
-0.0054070111364126
-0.0040414710529148
-0.0025806974153965
-0.0010425532236695
0.0005489629693329
0.0021681012585759
0.0037894605193287
0.0053838565945625
0.0069136242382228
0.008334893733263
0.0096082612872123
0.0107109081000089
0.0116408932954072
0.0124127259477972
0.0130500793457031
0.0135812256485223
0.0140365157276391
0.0144434217363595
0.0148197701200842
0.0151659380644559
0.0154559146612882
0.0156334843486547
0.0156135680153965
0.0152833089232444
0.0145110776647925
0.0131720462813973
0.0111827878281474
0.0085296249017119
0.0052787251770496
0.0015678969211876
-0.0024129294324666
-0.0064469939097762
-0.0103171663358807
-0.0138298524543643
-0.016832061111927
-0.0192206241190433
-0.0209446102380752
-0.0219993498176336
-0.022419149056077
-0.0222764257341623
-0.0216784551739692
-0.0207529161125421
-0.0196272637695074
-0.018411099910736
-0.0171864498406648
-0.0160062666982412
-0.0148974228650331
-0.0138629181310534
-0.0128831155598163
-0.0119209662079811
-0.0109322229400277
-0.0098743019625544
-0.0087093450129032
-0.007404500618577
-0.0059368102811276
-0.0043045715428888
-0.0025339033454656
-0.0006715487688779
0.001228149048984
0.0031121792271733
0.0049342047423124
0.0066582495346665
0.0082598756998777
0.009725147858262
0.0110488813370466
0.0122334342449903
0.0132885966449975
0.0142319248989224
0.015086974017322
0.0158775560557842
0.0166198965162038
0.0173169579356908
0.0179584752768278
0.0185250006616115
0.0189932510256767
0.0193429104983806
0.0195606872439384
0.019637007266283
0.0195566490292549
0.0192863289266824
0.0187652632594108
0.0179068744182586
0.0166122410446405
0.0147907035425305
0.012385906651616
0.0094014843925833
0.0059099700301885
0.0020381496287882
-0.0020546177402138
-0.0061924345791339
-0.0101960618048906
-0.0138962445780634
-0.0171478539705276
-0.0198421124368906
-0.0219118371605873
-0.0233314707875251
-0.0241158548742532
-0.0243155304342508
-0.0240071043372154
-0.0232827942818403
-0.02224101126194
-0.0209769401699304
-0.0195761360228061
-0.0181138701736927
-0.0166566241532564
-0.0152597622945904
-0.0139583442360162
-0.0127573814243078
-0.0116319544613361
-0.0105372657999396
-0.0094213001430034
-0.0082343183457851
-0.0069342842325568
-0.0054910983890295
-0.0038904594257473
-0.0021355738863348
-0.0002447189763188
0.001754306256771
0.0038262410089373
0.0059243543073534
0.0079881139099597
0.0099497074261307
0.0117482244968414
0.0133442133665084
0.0147255957126617
0.0159031115472316
0.0169027652591466
0.0177602097392082
0.0185142755508422
0.0191983431577682
0.0198334529995918
0.0204273127019405
0.0209808778017759
0.0214969683438539
0.0219799447804689
0.0224232543259859
0.0227924156934022
0.0230141356587409
0.0229791682213544
0.0225573256611824
0.0216178819537162
0.0200527943670749
0.0177996475249528
0.0148574141785502
0.0112920412793755
0.0072330925613641
0.0028617759235203
-0.00161042669788
-0.00596727989614
-0.010006652213633
-0.0135545367375016
-0.0164832919836044
-0.0187262836843729
-0.0202771238982677
-0.021176666021347
-0.0214970763772726
-0.021329803392291
-0.0207773372530937
-0.0199451986700296
-0.0189349018037319
-0.0178375169634819
-0.0167254339903593
-0.0156445857137441
-0.0146127929911017
-0.0136229638010263
-0.0126434732228517
-0.0116224102675914
-0.0105068814009428
-0.0092638116329908
-0.007884856313467
-0.0063803019002079
-0.0047720605507493
-0.003087850054726
-0.0013570056762546
0.0003919785376638
0.0021333605982363
0.0038446024991571
0.0055051520466804
0.0070965364575386
0.0086038652807474
0.0100175850093364
0.0113366292789578
0.0125672100111842
0.0137123921886086
0.0147632900625467
0.0157015472650527
0.0165093690156936
0.0171789396554231
0.0177145656198263
0.0181261822581291
0.0184162817895412
0.0185628682374954
0.0185061991214752
0.0181496813893318
0.0173765290528535
0.0160731673240661
0.0141537133604288
0.0115849673748016
0.0084013454616069
0.0046997782774269
0.0006238645873963
-0.0036506922915577
-0.0079315630719065
-0.0120295360684394
-0.0157768465578556
-0.0190374590456485
-0.0217085145413875
-0.0237193796783685
-0.0250354018062353
-0.0256639402359724
-0.0256547294557094
-0.0250928662717342
-0.0240867622196674
-0.0227526575326919
-0.0212029181420803
-0.0195427052676677
-0.0178668145090341
-0.0162506271153688
-0.0147402929142117
-0.0133484844118356
-0.0120561383664608
-0.0108180660754442
-0.0095723140984773
-0.0082535566762089
-0.0068067577667534
-0.0051959827542304
-0.0034096464514732
-0.0014633031096309
0.0006059911102056
0.0027528475038707
0.0049315448850393
0.0070928465574979
0.0091797420755028
0.0111314849928021
0.012893390841782
0.0144270397722721
0.0157165974378585
0.0167689565569162
0.0176099687814712
0.0182787589728832
0.0188193209469318
0.0192711539566516
0.0196636114269495
0.0200156662613153
0.0203397255390882
0.020646059885621
0.0209379624575376
0.0211921818554401
0.0213394239544868
0.0212629251182079
0.0208144858479499
0.0198388621211051
0.0182007066905498
0.015810465440154
0.0126455277204513
0.008761990815401
0.0042929081246256
-0.0005672480911016
-0.0055871070362627
-0.0105250580236315
-0.0151525568217039
-0.0192717313766479
-0.0227309316396713
-0.0254391729831695
-0.0273715704679489
-0.0285619869828224
-0.0290858075022697
-0.0290393345057964
-0.0285250544548034
-0.027643609791994
-0.0264880768954753
-0.0251401495188474
-0.0236673355102539
-0.0221199393272399
-0.0205304902046918
-0.0189168732613325
-0.0172850023955106
-0.015628658235073
-0.0139329163357615
-0.0121850315481424
-0.0103838331997394
-0.0085397567600011
-0.0066695543937385
-0.0047915121540427
-0.0029216804541647
-0.0010721748694777
0.0007469370029866
0.0025250951293855
0.0042508216574788
0.0059129539877176
0.0075028864666819
0.0090172225609421
0.010460308752954
0.0118453912436962
0.0131895821541547
0.014500493183732
0.0157660860568285
0.0169594399631023
0.0180515814572572
0.0190202742815017
0.0198525078594684
0.0205438863486051
0.0210972502827644
0.0215209312736988
0.0218256637454032
0.0220177341252565
0.022087924182415
0.022000653669238
0.0216900557279586
0.0210658702999353
0.0200249105691909
0.0184654332697391
0.0163067802786827
0.0135122202336788
0.0101087186485528
0.006195762194693
0.0019362745806574
-0.0024662725627422
-0.0067934887483716
-0.0108351288363337
-0.0144100226461887
-0.0173835977911949
-0.0196769312024116
-0.0212645176798105
-0.0221639163792133
-0.0224245693534612
-0.022122748196125
-0.0213610548526048
-0.0202627871185541
-0.0189571529626846
-0.0175619032233953
-0.0161705166101455
-0.0148447584360837
-0.0136118680238723
-0.0124669773504138
-0.0113791059702634
-0.0102988872677087
-0.0091691371053457
-0.0079373680055141
-0.0065655168145895
-0.0050326967611908
-0.0033322151284664
-0.0014714400749653
0.0005217203870415
0.0025965776294469
0.0046886974014341
0.0067329201847314
0.0086735151708126
0.0104694319888949
0.0120947118848562
0.0135362157598137
0.0147900814190506
0.0158598721027374
0.0167576689273118
0.0175026208162307
0.0181170403957366
0.0186275299638509
0.019068457186222
0.0194756183773279
0.0198681913316249
0.0202324595302343
0.0205166172236204
0.0206323601305484
0.0204603336751461
0.0198635086417198
0.0187088418751955
0.0168924406170845
0.0143625494092702
0.011134760454297
0.0072969640605151
0.0030028712935745
-0.0015462767332792
-0.0061258822679519
-0.0105116311460733
-0.0145042147487401
-0.017953548580408
-0.0207717530429363
-0.0229293815791606
-0.0244408808648586
-0.025347776710987
-0.025705637410283
-0.0255787298083305
-0.0250405799597501
-0.0241734106093645
-0.0230626799166202
-0.0217889305204153
-0.0204201936721801
-0.0190065950155258
-0.0175769235938787
-0.0161373279988765
-0.0146768335253
-0.0131794149056077
-0.0116314133629202
-0.0100216157734394
-0.0083424616605043
-0.0065931798890233
-0.0047812620177865
-0.0029228408820927
-0.0010416125878691
0.0008352207951247
0.0026819263584911
0.0044778664596378
0.00620798766613
0.0078600123524665
0.0094245271757245
0.0108994636684656
0.0122887063771486
0.0135921780019998
0.0148001732304692
0.0158972758799791
0.0168676953762769
0.0176990441977977
0.0183869078755378
0.0189375355839729
0.0193658396601676
0.0196914598345756
0.0199344307184219
0.0201086737215518
0.020212598145008
0.0202175434678792
0.0200597029179334
0.0196423213928937
0.0188465174287557
0.0175470877438783
0.0156351663172245
0.0130467070266604
0.0097861513495445
0.0059342207387089
0.0016402471810579
-0.0028951973654329
-0.0074450275860726
-0.0117845777422189
-0.0157178305089473
-0.0190936848521232
-0.0218113362789154
-0.0238203648477792
-0.0251157283782959
-0.0257250964641571
-0.0256998538970947
-0.0251197069883346
-0.0240965243428945
-0.0227630622684955
-0.0212543383240699
-0.0196914989501237
-0.018167920410633
-0.0167396124452352
-0.0154250934720039
-0.0142128160223364
-0.0130699640139937
-0.0119502879679203
-0.0108030103147029
-0.0095832385122776
-0.0082572866231203
-0.0067998310551047
-0.0051933373324573
-0.0034372857771813
-0.0015571895055472
0.0003984859213232
0.0023708797525614
0.0043026078492403
0.0061448449268937
0.0078628659248352
0.0094395149499177
0.010871673002839
0.0121634919196367
0.01332379411906
0.0143652083352208
0.0153007488697767
0.0161434784531593
0.0169127043336629
0.0176331810653209
0.0183208286762237
0.0189718753099441
0.0195642448961734
0.0200607553124427
0.0204066596925258
0.020524263381958
0.0203125290572643
0.0196584407240152
0.0184580571949481
0.0166389793157577
0.0141790825873613
0.0111179947853088
0.0075570391491055
0.0036501784343272
-0.0004087784327566
-0.0044055408798158
-0.0081332977861166
-0.0114190597087144
-0.0141378417611122
-0.0162156168371438
-0.0176272299140691
-0.0183936581015586
-0.0185780543833971
-0.0182769987732172
-0.0176072027534246
-0.0166911855340003
-0.0156432893127203
-0.0145564414560794
-0.0134943081066012
-0.0124906646087765
-0.0115501806139945
-0.010652326978743
-0.0097632464021444
-0.0088487556204199
-0.0078819645568728
-0.006844419054687
-0.0057217171415686
-0.0045008691959083
-0.0031737620010972
-0.0017412554007023
-0.0002138924319297
0.0013883577194064
0.0030363826081156
0.0046943831257522
0.0063245054334402
0.0078930417075753
0.00937663577497
0.0107618356123566
0.012036895379424
0.0131864314898848
0.0141951236873865
0.0150546040385961
0.0157662723213434
0.0163395944982767
0.016789399087429
0.0171332396566867
0.0173884686082601
0.0175684858113527
0.0176747292280197
0.0176841467618942
0.0175393912941217
0.0171488113701343
0.0163986850529909
0.015173103660345
0.0133746620267629
0.0109460884705185
0.0078896954655647
0.0042756786569952
0.0002369042485952
-0.0040468699298799
-0.0083712507039308
-0.0125329606235027
-0.0163550656288862
-0.019702460616827
-0.0224840082228183
-0.0246475450694561
-0.0261727627366781
-0.0270644649863243
-0.0273497104644775
-0.0270806178450584
-0.0263389367610216
-0.0252333506941795
-0.0238854568451643
-0.0224109459668397
-0.0209039784967899
-0.0194287467747926
-0.0180183816701173
-0.0166760943830013
-0.0153772756457328
-0.0140775395557284
-0.0127248428761959
-0.0112690897658467
-0.0096694529056549
-0.0079007055610418
-0.0059551396407186
-0.0038430523127317
-0.0015971376560628
0.0007273983210325
0.0030631176196038
0.0053435927256941
0.0075132697820663
0.0095331091433763
0.0113824065774679
0.0130570493638515
0.0145651241764426
0.0159228984266519
0.0171530246734619
0.0182829387485981
0.0193416718393564
0.020356910303235
0.0213531963527202
0.0223474651575088
0.0233418643474578
0.024322509765625
0.0252671092748641
0.0261498801410198
0.0269337743520736
0.0275549925863742
0.0279123336076736
0.0278703831136226
0.0272767767310142
0.0259877741336822
0.0238967221230268
0.0209572222083807
0.0171927399933338
0.01269525103271
0.0076189171522855
0.0021653492003679
-0.003442974993959
-0.0089918477460742
-0.0142956264317035
-0.0192054919898509
-0.0236072055995464
-0.0274143870919942
-0.0305640920996665
-0.0330143198370933
-0.034740962088108
-0.0357368737459182
-0.0360154323279857
-0.0356141440570354
-0.0345916002988815
-0.0330146700143814
-0.0309418346732854
-0.0284180361777544
-0.025486035272479
-0.0222000069916248
-0.0186292137950658
-0.0148526169359683
-0.0109512954950332
-0.0070050740614533
-0.0030933036468923
0.0007060002535581
0.0043205711990594
0.0076889093033969
0.0107643771916627
0.0135175492614507
0.0159361492842435
0.0180244222283363
0.0198036134243011
0.0213082507252693
0.0225740168243646
0.0236275885254144
0.0244876723736524
0.0251716561615467
0.0257003866136074
0.0260989163070917
0.0263939276337623
0.0266112275421619
0.0267749968916177
0.0269058011472225
0.0270142368972301
0.0270892642438411
0.0270842183381319
0.026910550892353
0.0264461543411016
0.0255485400557518
0.0240638684481382
0.0218421891331672
0.0187652520835399
0.0147760780528187
0.0099001582711935
0.0042536100372672
-0.0019645914435386
-0.0084936507046222
-0.0150387492030859
-0.0213003978133201
-0.0270021185278892
-0.031914547085762
-0.0358736887574195
-0.0387900620698928
-0.0406484454870224
-0.0415031127631664
-0.0414709150791168
-0.040717352181673
-0.0394330844283103
-0.037806250154972
-0.0359981581568717
-0.0341272391378879
-0.03226188570261
-0.0304223634302616
-0.0285904556512832
-0.0267210882157087
-0.0247539952397346
-0.0226277839392423
-0.0202934220433235
-0.017720328643918
-0.0148936733603477
-0.0118130259215831
-0.0084995813667774
-0.0050009018741548
-0.0013838266022503
0.0022780355066061
0.0059147486463189
0.0094661274924874
0.0128850117325782
0.016139717772603
0.0192097220569849
0.022068802267313
0.0246634408831596
0.026901414617896
0.0286596678197383
0.0298108831048011
0.0302584581077098
0.0299590583890676
0.0289192479103803
0.0271788425743579
0.0247975178062915
0.0218455828726291
0.0183963067829608
0.0145232640206813
0.0103080412372946
0.0058538140729069
0.0012936475686728
-0.0032111261971294
-0.0074797617271542
-0.0113237630575895
-0.0145593928173184
-0.0170198008418083
-0.018566146492958
-0.0191011484712362
-0.0185836497694253
-0.0170357469469308
-0.0145393926650285
-0.0112262284383177
-0.0072671473026275
-0.0028655976057052
0.0017504249699413
0.0063434285111725
0.0106852743774652
0.014573186635971
0.0178427621722221
0.0203804243355989
0.0221310555934906
0.0230985805392265
0.0233425293117761
0.0229667015373706
0.0220990218222141
0.0208728909492492
0.0194158237427473
0.0178442038595676
0.0162609424442052
0.0147520052269101
0.0133827850222587
0.0121976202353835
0.0112222768366336
0.0104666287079453
0.0099263191223144
0.0095842685550451
0.0094123361632227
0.0093750841915607
0.0094368997961282
0.0095659457147121
0.0097302421927452
0.0098936781287193
0.0100189642980694
0.0100735668092966
0.0100345350801944
0.0098933866247534
0.0096594002097845
0.0093545969575643
0.0089967688545584
0.0085780723020434
0.008050775155425
0.0073247328400611
0.0062789991497993
0.004788551479578
0.0027566496282815
0.0001374334096908
-0.0030560567975044
-0.0067512663081288
-0.0108211003243923
-0.0150968767702579
-0.0193849205970764
-0.0234818011522293
-0.0271897204220294
-0.0303367488086223
-0.0327976830303669
-0.034504011273384
-0.0354433692991733
-0.0356583371758461
-0.0352445021271705
-0.0343380570411682
-0.0330926068127155
-0.0316585339605808
-0.0301715116947889
-0.0287428461015224
-0.0274470448493957
-0.0263119861483573
-0.0253178030252456
-0.0244050286710262
-0.0234887450933456
-0.0224754400551319
-0.0212808214128017
-0.0198449864983558
-0.0181395392864942
-0.016167489811778
-0.0139603689312934
-0.0115715395659208
-0.0090647041797637
-0.0065054837614297
-0.0039618322625756
-0.0015042598824948
0.0008015614585019
0.0029045189730823
0.0047751031816005
0.0064076813869178
0.0078162094578146
0.0090272920206189
0.0100773377344012
0.0110124498605728
0.0118837961927056
0.0127358492463827
0.0135898953303694
0.0144323464483022
0.0152154713869094
0.0158598590642213
0.0162518694996833
0.0162514522671699
0.0157189443707466
0.014549221843481
0.0126997884362936
0.0102055128663778
0.0071773626841604
0.0037880057934671
0.0002498785033822
-0.0032107131555676
-0.0063813049346208
-0.0090878680348396
-0.0112092476338148
-0.0126789435744285
-0.0134781366214156
-0.0136280357837677
-0.0131884505972266
-0.0122579559683799
-0.0109653510153293
-0.0094515476375818
-0.0078497072681784
-0.0062706004828214
-0.0047929054126143
-0.0034559788182377
-0.0022577466443181
-0.0011608554050326
-0.0001058978959918
0.0009730029851198
0.0021364325657486
0.0034342072904109
0.0049028983339667
0.0065597998909652
0.0083922557532787
0.010352000594139
0.0123627474531531
0.0143384300172328
0.0162020251154899
0.0178956743329763
0.0193825215101242
0.0206458643078804
0.0216868612915277
0.0225200429558753
0.023168021813035
0.0236583016812801
0.0240227133035659
0.0242973491549491
0.024521816521883
0.0247332509607076
0.0249548573046922
0.0251895766705274
0.0254212561994791
0.0256157387048006
0.0257181953638792
0.025648295879364
0.0252981167286634
0.0245372783392667
0.0232273750007152
0.0212449505925178
0.0185093730688095
0.0150086628273129
0.0108135193586349
0.0060755028389394
0.0010107406415045
-0.0041321367025375
-0.0091123767197132
-0.0137269087135791
-0.0178230293095111
-0.0213005393743515
-0.0241070091724395
-0.0262290425598621
-0.0276852510869503
-0.0285230316221714
-0.0288130175322294
-0.0286381132900714
-0.0280845277011394
-0.0272381044924259
-0.0261817295104265
-0.0249899793416261
-0.023719273507595
-0.0224025845527648
-0.0210584700107574
-0.0197020508348941
-0.0183437429368495
-0.0169825330376625
-0.0156045937910676
-0.0141886156052351
-0.0127114783972501
-0.01114965043962
-0.0094814077019691
-0.0076938858255743
-0.0057906154543161
-0.0037935427390038
-0.0017374053131788
0.0003411716315895
0.0024125832132995
0.0044521344825625
0.0064296592026948
0.0083056613802909
0.0100393574684858
0.0115999616682529
0.0129731260240077
0.0141599597409367
0.0151711162179708
0.0160213727504014
0.016726404428482
0.0173007827252149
0.0177575536072254
0.0181082244962453
0.0183604247868061
0.0185142289847135
0.0185593124479055
0.0184680484235286
0.0181816574186086
0.0176028683781623
0.016608553007245
0.0150772156193852
0.012918634340167
0.0100986836478114
0.0066551156342029
0.002699158154428
-0.0015970598906278
-0.0060218232683837
-0.0103503614664077
-0.0143722910434007
-0.0179129224270582
-0.0208443477749824
-0.0230872295796871
-0.0246115569025278
-0.0254410542547702
-0.0256509408354759
-0.025352731347084
-0.0246743187308311
-0.0237422250211238
-0.0226660519838333
-0.0215268395841121
-0.0203731674700975
-0.0192242357879877
-0.0180761627852916
-0.0169095117598772
-0.015696657821536
-0.0144083984196186
-0.0130171524360775
-0.0114951841533184
-0.009817361831665
-0.0079745352268219
-0.0059843803755939
-0.0038889367133378
-0.0017442759126424
0.0003896979615092
0.0024559265002608
0.0044047576375305
0.0061993757262825
0.0078202532604336
0.0092652989551424
0.0105474507436156
0.0116919539868831
0.0127327162772417
0.0137079674750566
0.0146550834178924
0.0156021192669868
0.0165578871965408
0.0175099316984415
0.0184335205703973
0.0193017423152923
0.020088804885745
0.0207661446183919
0.0212935246527194
0.0216100476682186
0.0216315891593694
0.0212589334696531
0.020395204424858
0.0189672298729419
0.0169460941106081
0.0143630746752023
0.0113156214356422
0.0079551115632057
0.0044571864418685
0.0009923379402607
-0.002289046999067
-0.0052600670605897
-0.0078182686120271
-0.0098894890397787
-0.0114323599264025
-0.0124385394155979
-0.0129294609650969
-0.0129525354132056
-0.0125761600211262
-0.0118832644075155
-0.0109638161957263
-0.0099043445661664
-0.0087765781208872
-0.0076333368197083
-0.0065141175873577
-0.0054512498900294
-0.0044685350731015
-0.0035760216414928
-0.0027666366659104
-0.0020158826373517
-0.001286553684622
-0.0005381139926612
0.0002634935081005
0.0011382636148482
0.0020890946034342
0.0031047007068991
0.0041652270592749
0.0052479952573776
0.0063338717445731
0.007409568876028
0.0084620499983429
0.0094716642051935
0.0104102529585361
0.0112446350976824
0.0119423847645521
0.0124761266633868
0.0128268934786319
