bvp
0.0016405452042818
0.0028414032422006
0.0038165505975484
0.004543368704617
0.0050260964781045
0.00528603233397
0.0053464095108211
0.0052141044288873
0.0048724599182605
0.0042933654040098
0.0034602382220327
0.002388197928667
0.0011334447190165
-0.0002091145142912
-0.0015186551026999
-0.0026693772524595
-0.0035525695420801
-0.004091115668416
-0.0042440155521035
-0.004005953669548
-0.0034070452675223
-0.0025091329589486
-0.0013939598575234
-0.0001466195099055
0.0011621573939919
0.0024914168752729
0.0038362964987754
0.0052231210283935
0.0066968966275453
0.0083054173737764
0.0100834853947162
0.0120387254282832
0.0141402576118707
0.0163148567080497
0.0184526909142732
0.0204138942062854
0.0220317579805851
0.0231251902878284
0.0235256645828485
0.0231061037629842
0.0218003317713737
0.0196108296513557
0.0166073776781559
0.012920525856316
0.0087316939607262
0.0042566210031509
-0.0002780882641673
-0.0046567032113671
-0.0086904689669609
-0.0122307427227497
-0.015177758410573
-0.0174844525754451
-0.0191576592624187
-0.0202530343085527
-0.0208591353148221
-0.0210753176361322
-0.0209920201450586
-0.0206780917942523
-0.0201769433915615
-0.019510231912136
-0.0186845324933528
-0.0176983326673507
-0.0165491048246622
-0.0152389649301767
-0.0137791382148861
-0.0121939396485686
-0.0105203678831458
-0.0088051296770572
-0.0071067074313759
-0.0054975249804556
-0.0040569510310888
-0.0028592450544238
-0.0019648987799882
-0.0014161514118313
-0.0012320699170231
-0.0014014281332492
-0.0018762778490781
-0.0025684162974357
-0.0033500855788588
-0.0040618795901536
-0.0045306510291993
-0.0045942114666104
-0.004124216735363
-0.003046684898436
-0.0013617668300867
0.0008478891104459
0.0034261373803019
0.0061630774289369
0.0088203186169266
0.0111578488722443
0.0129584958776831
0.0140479737892746
0.0143078453838825
0.0136809023097157
0.0121709676459431
0.0098390094935894
0.006798256188631
0.003209326416254
-0.0007264520972967
-0.0047818021848797
-0.008729338645935
-0.0123669002205133
-0.0155326034873723
-0.0181130953133106
-0.0200481787323951
-0.0213318467140197
-0.022008154541254
-0.0221594180911779
-0.0218893140554428
-0.0213054455816745
-0.0205031689256429
-0.0195533651858568
-0.01849833317101
-0.0173568576574325
-0.0161357820034027
-0.0148455714806914
-0.013515131548047
-0.0121967419981956
-0.0109587842598557
-0.009872849099338
-0.0089991046115756
-0.0083724949508905
-0.0079969875514507
-0.0078493095934391
-0.0078840376809239
-0.008037369698286
-0.0082332761958241
-0.0083913067355751
-0.0084348861128091
-0.0083006890490651
-0.0079463655129075
-0.0073569491505622
-0.0065529025159776
-0.0055934456177055
-0.0045689148828387
-0.0035862983204424
-0.0027516710106283
-0.0021515905391424
-0.0018383362330496
-0.001822595950216
-0.0020736269652843
-0.0025236876681447
-0.0030748220160603
-0.0036095771938562
-0.0040053925476968
-0.004150491207838
-0.0039609316736459
-0.0033994941040873
-0.0024926764890551
-0.0013355566188693
-7.786601781845093e-05
0.0011037271469831
0.0020381575450301
0.0025912532582879
0.0026894323527812
0.0023304549977183
0.001581865362823
0.0005689971148967
-0.0005471799522638
-0.0015967600047588
-0.002423983067274
-0.0029048360884189
-0.0029582548886537
-0.0025501009076833
-0.0016940515488386
-0.0004490856081247
0.0010923966765403
0.0028243027627468
0.0046456139534711
0.0064737517386674
0.0082520507276058
0.0099495872855186
0.0115540465340018
0.0130611239001154
0.0144664756953716
0.0157649796456098
0.0169535428285598
0.0180327426642179
0.0190074760466814
0.0198838803917169
0.0206617973744869
0.0213311724364757
0.0218776725232601
0.0222919844090938
0.0225764699280262
0.0227482635527849
0.0228390246629714
0.0228908155113458
0.0229487251490354
0.0230518747121095
0.0232246816158294
0.0234710164368152
0.0237739160656929
0.0241015832871198
0.0244177542626857
0.0246895793825387
0.0248861387372016
0.0249736942350864
0.024918358772993
0.0246940422803163
0.0242883004248142
0.0237043369561433
0.0229578111320734
0.0220667980611324
0.0210394598543643
0.0198662281036376
0.018518092110753
0.0169498603790998
0.0151076344773173
0.0129401562735438
0.0104137230664491
0.0075256992131471
0.0043108025565743
0.0008405200205743
-0.0027823159471154
-0.0064309085719287
-0.0099623491987586
-0.0132305594161152
-0.016105281189084
-0.0184891503304243
-0.0203265883028507
-0.0216035488992929
-0.0223405472934246
-0.0225856304168701
-0.022410299628973
-0.0219029411673545
-0.0211559683084487
-0.0202536731958389
-0.0192683599889278
-0.0182593762874603
-0.017269529402256
-0.0163233615458011
-0.0154293812811374
-0.0145823769271373
-0.0137645751237869
-0.0129482792690396
-0.0121003501117229
-0.0111874863505363
-0.0101827280595898
-0.0090720374137163
-0.0078563839197158
-0.0065461965277791
-0.0051538906991481
-0.0036945091560482
-0.002194058150053
-0.0006944797933101
0.0007504746317863
0.0020855199545621
0.0032657589763402
0.0042646224610507
0.0050746072083711
0.0057042310945689
0.006175538059324
0.0065214829519391
0.0067800283432006
0.0069857193157076
0.0071632666513323
0.0073262713849544
0.0074804443866014
0.0076248552650213
0.0077465707436203
0.0078147519379854
0.0077807633206248
0.007583231665194
0.0071541359648108
0.0064244363456964
0.0053317686542868
0.0038325749337673
0.0019160425290465
-0.0003874283283948
-0.003005719743669
-0.0058276690542697
-0.0087096709758043
-0.0114897955209016
-0.0140052335336804
-0.0161107908934354
-0.0176990833133459
-0.0187154226005077
-0.019162118434906
-0.0190952438861131
-0.0186158940196037
-0.0178555808961391
-0.0169577356427907
-0.0160583481192588
-0.015268251299858
-0.0146607290953397
-0.0142667721956968
-0.0140770003199577
-0.0140490960329771
-0.0141152385622262
-0.0141849517822265
-0.0141535978764295
-0.0139228971675038
-0.0134202325716614
-0.0126086566597223
-0.0114921685308218
-0.0101153338328003
-0.00855412799865
-0.0069011580199003
-0.0052502015605568
-0.0036836825311183
-0.0022647872101515
-0.0010332533856853
-2.937624230980873e-06
0.0008380828076042
0.0015239362837746
0.0021061308216303
0.0026458704378455
0.003200507722795
0.0038105940911918
0.0044953455217182
0.0052547394298017
0.0060726939700543
0.006919982843101
0.0077579440549016
0.0085424007847905
0.0092257298529148
0.0097558870911598
0.0100750569254159
0.0101216128095984
0.009835279546678
0.0091647785156965
0.008078433573246
0.0065733809024095
0.0046778926625847
0.0024508156348019
-1.696718391031027e-05
-0.0026038619689643
-0.0051669301465153
-0.0075582456775009
-0.0096443369984626
-0.0113219153136014
-0.0125238765031099
-0.0132184857502579
-0.0134080108255147
-0.0131270084530115
-0.012437293305993
-0.0114172473549842
-0.010147588327527
-0.0087033975869417
-0.0071558114141225
-0.0055726775899529
-0.0040128706023097
-0.0025203246623277
-0.0011207303032279
0.0001792823895812
0.0013895239681005
0.0025317138060927
0.0036337971687316
0.0047233733348548
0.005823581945151
0.0069519090466201
0.0081190504133701
0.0093273632228374
0.0105709796771407
0.0118372114375233
0.0131055219098925
0.0143464747816324
0.0155263850465416
0.0166146829724311
0.0175886079668998
0.0184351373463869
0.0191510654985904
0.019741591066122
0.0202176831662654
0.0205921456217765
0.0208758190274238
0.0210758671164512
0.0211958270519971
0.021237613633275
0.0212050024420022
0.0211028549820184
0.0209293719381093
0.0206685438752174
0.0202884878963232
0.0197424758225679
0.0189706869423389
0.0179061833769083
0.0164854526519775
0.0146597465500235
0.0124055882915854
0.0097339935600757
0.0066957427188754
0.0033810599707067
-8.621299639344215e-05
-0.0035583456046879
-0.0068743042647838
-0.0098743345588445
-0.012422515079379
-0.0144280828535556
-0.015852928161621
-0.0167050138115882
-0.0170271135866642
-0.01688839122653
-0.0163779910653829
-0.0155963376164436
-0.0146427107974886
-0.0136021841317415
-0.012537807226181
-0.0114891212433576
-0.0104727493599057
-0.0094829490408301
-0.0084933433681726
-0.0074644000269472
-0.0063577061519026
-0.0051487204618752
-0.0038324818015098
-0.0024235299788415
-0.0009522952605038
0.000538888387382
0.0020001516677439
0.003380293957889
0.0046319514513015
0.0057148844934999
0.0065993960015475
0.007269412279129
0.0077246367000043
0.0079810265451669
0.0080680586397647
0.0080217849463224
0.007875395938754
0.0076547637581825
0.0073816226795315
0.0070766871795058
0.0067592877894639
0.006446873769164
0.0061542782932519
0.0058903517201542
0.0056536672636866
0.0054310103878378
0.0051977122202515
0.0049171727150678
0.0045415507629513
0.0040172263979911
0.0032931342720985
0.0023247571662068
0.0010730642825365
-0.0004922645166516
-0.0023802770301699
-0.0045646000653505
-0.0069780107587575
-0.0095177553594112
-0.012057539075613
-0.0144622549414634
-0.0166035387665033
-0.0183745790272951
-0.0197026580572128
-0.0205570608377456
-0.0209495536983013
-0.020927295088768
-0.0205612443387508
-0.0199359059333801
-0.0191437974572181
-0.0182806849479675
-0.0174377355724573
-0.0166914090514183
-0.0160938575863838
-0.0156668238341808
-0.0154005559161305
-0.0152586158365011
-0.0151877971366047
-0.0151287131011486
-0.015023848041892
-0.0148236267268657
-0.0144912535324692
-0.014005534350872
-0.0133598698303103
-0.0125593626871705
-0.0116203390061855
-0.0105693396180868
-0.009437508881092
-0.0082543650642037
-0.0070448657497763
-0.0058285249397158
-0.0046189147979021
-0.0034240235108882
-0.002247680677101
-0.0010907363612204
4.6907924115657806e-05
0.0011628635693341
0.0022524935193359
0.0033154571428894
0.0043626045808196
0.0054128901101648
0.0064778295345604
0.0075473501347005
0.0085883028805255
0.0095505891367793
0.0103747909888625
0.0109998844563961
0.011368722654879
0.0114315738901495
0.0111509365960955
0.0105063319206237
0.0094961691647768
0.0081394901499152
0.0064797117374837
0.0045879958197474
0.0025631841272115
0.0005225446075201
-0.0014178389683365
-0.0031609097495675
-0.0046341130509972
-0.0057861898094415
-0.0065839616581797
-0.0070116398856043
-0.0070708962157368
-0.0067809736356139
-0.0061777886003255
-0.0053100893273949
-0.0042340708896517
-0.0030092103406786
-0.0016943272203207
-0.0003416491672396
0.0010101497173309
0.0023382548242807
0.0036308746784925
0.0048829270526766
0.0060968426987528
0.007283273153007
0.0084590017795562
0.0096451696008443
0.0108659956604242
0.0121440552175045
0.0134925283491611
0.0149088613688945
0.0163707174360752
0.0178348049521446
0.0192426349967718
0.0205328613519668
0.0216535273939371
0.0225677676498889
0.0232521928846836
0.0236933287233114
0.0238868240267038
0.0238403156399726
0.0235769338905811
0.0231338664889335
0.0225557293742895
0.0218878965824842
0.0211718380451202
0.0204413682222366
0.0197188649326562
0.0190122071653604
0.0183140151202678
0.0176022127270698
0.0168416630476713
0.0159866344183683
0.0149809690192341
0.0137590756639838
0.0122532350942492
0.0104055106639862
0.0081814993172883
0.0055835298262536
0.0026592053472995
-0.0004979246295988
-0.0037562535144388
-0.0069608543999493
-0.0099523738026618
-0.0125870816409587
-0.0147542990744113
-0.0163850225508213
-0.0174500830471515
-0.0179581400007009
-0.0179578959941864
-0.0175336338579654
-0.0167893692851066
-0.0158310290426015
-0.0147553924471139
-0.0136450361460447
-0.0125656444579362
-0.0115650864318013
-0.0106723401695489
-0.0098960390314459
-0.0092268493026494
-0.0086435480043292
-0.0081181339919567
-0.0076178312301635
-0.007106801494956
-0.0065530058927834
-0.005937869194895
-0.0052596321329474
-0.0045291474089026
-0.0037640375085175
-0.0029844536911696
-0.0022098203189671
-0.0014563295990228
-0.0007366458885371
-6.147520616650581e-05
0.0005595237016677
0.0011191829107701
0.0016156006604433
0.0020527495071291
0.0024390006437897
0.002786511555314
0.0031081270426511
0.0034092804417014
0.0036824401468038
0.0039101224392652
0.00407334882766
0.0041591580957174
0.004161681048572
0.00407618843019
0.0038924245163798
0.0035926634445786
0.0031521115452051
0.0025378596037626
0.0017097229138016
0.0006273323670029
-0.0007373318076133
-0.0023852568119764
-0.0042828889563679
-0.0063675404526293
-0.0085561983287334
-0.0107512027025222
-0.0128469867631793
-0.0147394128143787
-0.0163362454622983
-0.0175678431987762
-0.0183972045779228
-0.0188267305493354
-0.0188965648412704
-0.0186751075088977
-0.0182473585009574
-0.0177035667002201
-0.0171277299523353
-0.016584426164627
-0.0161104556173086
-0.0157208181917667
-0.0154201816767454
-0.0152057418599724
-0.015064213424921
-0.0149707831442356
-0.0148914400488138
-0.0147871719673275
-0.0146188735961914
-0.0143532147631049
-0.01396872010082
-0.0134576419368386
-0.0128202410414814
-0.0120546268299222
-0.0111488224938511
-0.0100791174918413
-0.0088169192895293
-0.0073430142365396
-0.0056598307564854
-0.0037933397106826
-0.0017877267673611
0.000300801359117
0.0024100369773805
0.0044781169854104
0.0064493133686482
0.0082792341709136
0.0099390549585223
0.0114169362932443
0.0127177443355321
0.0138632748275995
0.0148921469226479
0.0158568117767572
0.0168109964579343
0.0177847538143396
0.0187613517045974
0.0196722969412803
0.0204096175730228
0.0208472870290279
0.0208663884550333
0.0203773733228445
0.0193348042666912
0.0177453178912401
0.0156694650650024
0.0132160913199186
0.0105284210294485
0.0077646463178098
0.0050803702324628
0.0026173964142799
0.000493302475661
-0.0012125158682465
-0.0024676537141203
-0.003282937221229
-0.0037013879045844
-0.0037870937958359
-0.0036150570958852
-0.0032612476497888
-0.0027945134788751
-0.0022717667743563
-0.0017363401129841
-0.0012189354747533
-0.0007381225004792
-0.0002991808578372
0.0001070760190486
0.0005042608827352
0.0009243916720151
0.0013952823355793
0.0019310959614813
0.0025323694571852
0.0031926129013299
0.0039042066782712
0.0046585784293711
0.0054438360966742
0.0062442710623145
0.0070416657254099
0.0078176762908697
0.0085564227774739
0.0092461453750729
0.0098795974627137
0.0104550924152135
0.0109791988506913
0.0114647932350635
0.0119219999760389
0.0123514477163553
0.0127445589751005
0.0130878547206521
0.0133696179836988
0.0135844964534044
0.0137328328564763
0.0138187473639845
0.013848484493792
0.0138257052749395
0.0137450294569134
0.0135888373479247
0.0133275873959064
0.0129218213260173
0.0123269725590944
0.0114992074668407
0.0103980526328086
0.0089888852089643
0.0072514689527451
0.00519241951406
0.0028538056649267
0.0003141025081276
-0.0023175715468823
-0.0049135508015751
-0.007344564422965
-0.0094965528696775
-0.0112828025594353
-0.0126504134386777
-0.0135823786258697
-0.0140951434150338
-0.0142305046319961
-0.0140469456091523
-0.0136159863322973
-0.0130183231085538
-0.0123360026627779
-0.0116437394171953
-0.0109998108819127
-0.0104393102228641
-0.0099735734984278
-0.0095933126285672
-0.0092730354517698
-0.0089776646345853
-0.0086703291162848
-0.0083172265440225
-0.0078886356204748
-0.0073591563850641
-0.0067093917168676
-0.00593136344105
-0.0050356369465589
-0.0040529896505177
-0.0030305772088468
-0.0020262189209461
-0.001098935957998
-0.0002975845709443
0.0003458429127931
0.0008178204298019
0.00112328492105
0.0012845490127801
0.0013370965607464
0.0013220920227468
0.0012800665572285
0.0012490400113165
0.0012641735374927
0.0013541691005229
0.0015335311181843
0.0017959983088076
0.0021143392659723
0.0024442225694656
0.0027276426553726
0.0028956979513168
0.0028716539964079
0.0025755446404218
0.0019328631460666
0.0008862232789397
-0.0005938205868005
-0.0025005438365042
-0.0047875652089715
-0.0073694293387234
-0.0101236756891012
-0.0129008144140243
-0.0155461793765425
-0.0179216898977756
-0.0199184194207191
-0.0214634500443935
-0.0225230026990175
-0.0231008995324373
-0.0232329238206148
-0.0229776389896869
-0.0224064271897077
-0.0215964801609516
-0.0206254106014966
-0.0195632986724376
-0.018463434651494
-0.01735670119524
-0.0162505730986595
-0.0151339247822761
-0.0139884501695632
-0.0127991363406181
-0.0115564651787281
-0.0102523090317845
-0.0088758580386638
-0.0074137612245976
-0.0058536091819405
-0.0041880430653691
-0.0024171322584152
-0.0005470104515552
0.0014132596552371
0.0034510297700762
0.0055451216176152
0.0076632834970951
0.0097647756338119
0.0118026537820696
0.0137233287096023
0.0154698239639401
0.0169913135468959
0.0182509757578372
0.0192278698086738
0.0199172273278236
0.020330986008048
0.0204967390745878
0.0204562339931726
0.0202635712921619
0.0199788715690374
0.0196571163833141
0.0193381011486053
0.0190420150756835
0.0187688991427421
0.0184953119605779
0.0181687325239181
0.0177087895572185
0.0170186311006546
0.0160030834376811
0.0145884053781628
0.0127380369231104
0.0104620670899748
0.0078202821314334
0.0049182120710611
0.001896278001368
-0.0010865442454814
-0.0038712099194526
-0.0063160276040434
-0.0083113051950931
-0.0097876507788896
-0.0107183940708637
-0.0111207459121942
-0.0110527276992797
-0.0106015652418136
-0.0098669845610857
-0.0089453635737299
-0.0079192668199539
-0.006852198857814
-0.0057855956256389
-0.0047386903315782
-0.0037119351327419
-0.0026916041970252
-0.0016547869890928
-0.0005765100941061
0.0005621816962957
0.0017692395485937
0.0030379393137991
0.0043424214236438
0.0056394562125205
0.0068790754303336
0.0080160060897469
0.0090161580592393
0.0098578054457902
0.010529926046729
0.0110305957496166
0.0113648120313882
0.0115420874208211
0.0115761682391166
0.0114854760468006
0.0112924817949533
0.0110260546207427
0.0107292355969548
0.0104678673669695
0.0103383744135499
0.0104722371324896
0.0110244071111083
0.0121383499354124
0.0138982515782117
0.0162893049418926
0.0191841926425695
0.0223607122898101
0.025543974712491
0.0284606758505105
0.0308897756040096
0.0326944999396801
0.0338268652558326
0.0343103781342506
0.0342163704335689
0.0336422957479953
0.032693076878786
0.0314687602221965
0.0300590004771947
0.0285402219742536
0.0269724819809198
0.0253948792815208
0.023821223527193
0.0222397167235612
0.0206164307892322
0.0189012289047241
0.0170360561460256
0.0149615444242954
0.0126179829239845
0.0099456049501895
0.0068896561861038
0.0034067071974277
-0.0005338937044143
-0.0049493536353111
-0.0098340809345245
-0.0151439271867275
-0.0207864083349704
-0.0266218241304159
-0.0324719846248626
-0.0381361246109008
-0.0434133484959602
-0.0481253080070018
-0.0521338731050491
-0.0553526952862739
-0.0577530190348625
-0.0593629479408264
-0.0602595657110214
-0.0605594553053379
-0.0604103729128837
-0.0599774569272995
-0.0594214238226413
-0.0588755682110786
-0.0584285929799079
-0.0581177473068237
-0.0579328276216983
-0.0578272528946399
-0.0577307306230068
-0.0575622841715812
-0.0572450272738933
-0.0567176826298236
-0.0559376254677772
-0.054879330098629
-0.0535340942442417
-0.0519143231213092
-0.0500606745481491
-0.0480430051684379
-0.045950498431921
-0.0438771992921829
-0.0419068448245525
-0.0400952585041523
-0.0384544506669044
-0.0369469597935676
-0.0354925841093063
-0.0339823216199874
-0.0322951525449752
-0.0303151775151491
-0.0279460158199071
-0.025120498612523
-0.0218054503202438
-0.0180057343095541
-0.0137679781764745
-0.009174857288599
-0.0043281354010105
0.0006696470081806
0.0057284198701381
0.010778471827507
0.0157730262726545
0.0206868853420019
0.0255141165107488
0.0302629545331001
0.0349456779658794
0.0395672172307968
0.0441156290471553
0.048555601388216
0.0528277419507503
0.0568525604903698
0.0605357885360717
0.0637775957584381
0.0664856433868408
0.0685866847634315
0.0700364336371421
0.0708276629447937
0.0709925144910812
0.0705966204404831
0.0697267353534698
0.0684770867228508
0.0669389069080352
0.0651943907141685
0.063313752412796
0.0613528937101364
0.0593524947762489
0.0573383718729019
0.0553184896707534
0.0532799921929836
0.0511949025094509
0.0490330532193183
0.0467726960778236
0.0444037690758705
0.0419265069067478
0.0393469333648681
0.0366685725748539
0.0338837020099163
0.0309678874909877
0.0278805140405893
0.0245738569647073
0.0210070721805095
0.0171590894460678
0.0130370780825614
0.0086787538602948
0.004151270724833
-0.0004516756744123
-0.0050166686996817
-0.0094206631183624
-0.0135427704080939
-0.0172760970890522
-0.0205358676612377
-0.0232620500028133
-0.025418721139431
-0.0269925147294998
-0.0279913190752267
-0.0284432992339134
-0.0283937565982341
-0.0278996843844652
-0.0270282458513975
-0.0258600171655416
-0.0244872197508811
-0.0230036284774541
-0.0214929729700088
-0.0200190804898738
-0.0186196137219667
-0.0173076689243316
-0.0160800255835056
-0.0149256791919469
-0.0138310706242918
-0.0127835795283317
-0.0117758717387914
-0.0108096878975629
-0.0098943598568439
-0.0090403743088245
-0.0082565937191247
-0.0075538814999163
-0.0069458675570786
-0.0064419889822602
-0.0060377172194421
-0.0057077445089817
-0.0054065454751253
-0.0050773434340953
-0.0046643749810755
-0.0041232421062886
-0.0034276158548891
-0.0025712558999657
-0.0015667602419853
-0.0004432937130331
0.0007586749270558
0.0019972026348114
0.0032358597964048
0.0044387727975845
0.0055597154423594
0.0065382746979594
0.0073047652840614
0.0077872332185506
0.0079165492206811
0.0076312376186251
0.0068842591717839
0.0056514395400881
0.003939782269299
0.0017921607941389
-0.0007138373330235
-0.0034725368022918
-0.0063599059358239
-0.0092429500073194
-0.0119914300739765
-0.0144945252686738
-0.0166738592088222
-0.0184863470494747
-0.0199206043034791
-0.0209913179278373
-0.0217334479093551
-0.022196615114808
-0.0224399417638778
-0.0225268267095088
-0.0225178264081478
-0.0224632509052753
-0.0223979409784078
-0.0223378762602806
-0.0222773309797048
-0.0221876800060272
-0.0220231041312217
-0.0217334926128387
-0.02127624489367
-0.0206210389733314
-0.0197490788996219
-0.0186527371406555
-0.0173378065228462
-0.0158249959349632
-0.014148861169815
-0.0123550062999129
-0.0104963090270757
-0.0086272815242409
-0.0067967250943183
-0.0050414586439728
-0.0033817922230809
-0.0018189233960583
-0.000338282668963
0.0010796310380101
0.0024471385404467
0.0037645690608769
0.0050254268571734
0.0062251789495348
0.0073656165041029
0.0084543516859412
0.0095027815550565
0.0105223935097455
0.0115187037736177
0.012484866194427
0.0133980009704828
0.0142181739211082
0.0148889785632491
0.0153426304459571
0.0155073590576648
0.0153110027313232
0.0146852126345038
0.0135768391191959
0.0119627024978399
0.0098614022135734
0.0073404060676693
0.0045164129696786
0.0015460492577403
-0.0013925563544034
-0.0041229268535971
-0.0064919050782918
-0.0083864647895097
-0.0097439158707857
-0.0105509925633668
-0.0108335595577955
-0.0106482850387692
-0.0100794304162263
-0.0092311156913638
-0.008211325854063
-0.0071155373007059
-0.0060171466320753
-0.0049647185951471
-0.0039834836497902
-0.0030788574367761
-0.0022401669993996
-0.001444287598133
-0.0006594862788915
0.0001505091786384
0.0010225586593151
0.0019918037578463
0.0030900510028004
0.0043401289731264
0.0057475306093692
0.0072966190055012
0.0089523121714591
0.01066430285573
0.0123735927045345
0.0140210073441267
0.0155566958710551
0.0169471241533756
0.018175546079874
0.0192384012043476
0.0201415941119194
0.0208969246596097
0.0215186029672622
0.0220215246081352
0.0224224720150232
0.0227394886314868
0.0229852236807346
0.0231607835739851
0.0232577286660671
0.0232659913599491
0.0231804922223091
0.0230023767799139
0.0227344799786806
0.0223736464977264
0.0219049397855997
0.0212997663766145
0.0205152854323387
0.0194948576390743
0.018173724412918
0.0164912845939397
0.0144066279754042
0.0119103509932756
0.0090269111096858
0.0058116931468248
0.0023491489700973
-0.0012477044947445
-0.0048396438360214
-0.0082710348069667
-0.0113886957988142
-0.0140630137175321
-0.0162018090486526
-0.0177545733749866
-0.0187124200165271
-0.0191052202135324
-0.0189945735037326
-0.0184646118432283
-0.0176110714673995
-0.0165301300585269
-0.0153113696724176
-0.014035128057003
-0.0127708092331886
-0.0115733612328767
-0.0104779498651623
-0.0094969794154167
-0.0086225243285298
-0.0078323120251297
-0.0070959567092359
-0.0063791712746024
-0.0056476052850484
-0.004873514175415
-0.0040432903915643
-0.0031595299951732
-0.0022348086349666
-0.0012847874313592
-0.0003280555829405
0.0006118840537965
0.0015084408223628
0.0023362794890999
0.0030747381970286
0.0037098610773682
0.0042356234043836
0.0046534035354852
0.0049711167812347
0.005203204229474
0.0053682867437601
0.0054849470034241
0.0055698240175843
0.0056378133594989
0.0057024080306291
0.0057718269526958
0.0058388775214552
0.0058741942048072
0.0058301780372858
0.0056497873738408
0.0052718417719006
0.0046325894072651
0.0036704037338495
0.0023347819223999
0.0005946485325694
-0.001554150134325
-0.0040809605270624
-0.0069162305444478
-0.0099541880190372
-0.0130609050393104
-0.0160868484526872
-0.0188837070018053
-0.0213224329054355
-0.0233063399791717
-0.024776853621006
-0.0257137436419725
-0.0261310022324323
-0.026070337742567
-0.025594163686037
-0.0247789714485406
-0.023709587752819
-0.0224731303751468
-0.0211523361504077
-0.0198199972510337
-0.0185344628989696
-0.0173348244279623
-0.0162371266633272
-0.0152350794523954
-0.0143063869327306
-0.0134207364171743
-0.0125447753816843
-0.0116443671286106
-0.0106875514611601
-0.009649490006268
-0.0085164764896035
-0.0072856680490076
-0.0059617147780954
-0.0045540779829025
-0.0030764134135097
-0.0015473950188606
8.876202628016472e-06
0.0015665614046156
0.0031042429618537
0.004604943562299
0.0060493885539472
0.007412570528686
0.0086675528436899
0.0097914347425103
0.0107700014486908
0.0116004813462495
0.0122921681031584
0.0128647368401288
0.0133426478132605
0.0137450005859136
0.0140755278989672
0.01431814301759
0.0144366323947906
0.0143769104033708
0.014074670150876
0.0134651139378547
0.012489590793848
0.0111023858189582
0.0092816203832626
0.0070427427999675
0.0044485558755695
0.0016088811680674
-0.001330601517111
-0.0042047016322612
-0.0068458523601293
-0.0091012567281723
-0.0108492383733391
-0.0120114358142018
-0.0125579871237277
-0.0125048849731683
-0.0119040105491876
-0.0108327390626072
-0.0093894312158226
-0.0076891705393791
-0.0058532347902655
-0.0039942599833011
-0.0022028312087059
-0.0005400897935032
0.0009641023352742
0.0023091277107596
0.0035171546041965
0.0046252096071839
0.0056800404563546
0.0067334938794374
0.0078346133232116
0.0090206675231456
0.0103113716468214
0.0117053985595703
0.013177485205233
0.0146810365840792
0.0161589384078979
0.0175548754632473
0.0188192334026098
0.0199133809655904
0.0208143629133701
0.0215163640677928
0.022028038278222
0.0223676059395074
0.0225589741021394
0.0226301215589046
0.0226099789142608
0.022524619475007
0.022397231310606
0.0222467221319675
0.0220803916454315
0.0218895152211189
0.0216535739600658
0.021346565335989
0.0209392383694648
0.0203983914107084
0.0196857806295156
0.01875626668334
0.017556482926011
0.0160284731537103
0.0141192786395549
0.0117941657081246
0.009051552042365
0.0059359613806009
0.0025435304269194
-0.000985846389085
-0.004490403458476
-0.0078116869553923
-0.0108120432123541
-0.0133841121569275
-0.0154557107016444
-0.0169911496341228
-0.0179900377988815
-0.0184841752052307
-0.0185301676392555
-0.0181990191340446
-0.0175691433250904
-0.0167229585349559
-0.015742814168334
-0.0147056803107261
-0.0136762792244553
-0.0127020310610532
-0.0118147954344749
-0.0110343927517533
-0.0103675397112965
-0.0098048457875847
-0.0093207145109772
-0.008878469467163
-0.0084393210709095
-0.0079697398468852
-0.0074445102363824
-0.0068480814807116
-0.0061763925477862
-0.0054383529350161
-0.0046549532562494
-0.0038538984954357
-0.0030606952495872
-0.0022935504093766
-0.0015674461610615
-0.000899625942111
-0.0003072638064622
0.0001984164118766
0.0006138738244771
0.0009421044960618
0.0011922707781195
0.0013788193464279
0.0015193233266472
0.0016319835558533
0.0017311181873083
0.0018214024603366
0.0018951073288917
0.0019330624490976
0.001906743273139
0.0017765406519174
0.0014851195737719
0.0009553199633955
0.0001006200909614
-0.0011544711887836
-0.0028527909889817
-0.0049892491661012
-0.0075029940344393
-0.0102774947881698
-0.0131526505574584
-0.0159482099115848
-0.018490232527256
-0.0206326674669981
-0.0222718939185142
-0.0233530476689338
-0.0238663740456104
-0.0238408129662275
-0.0233421344310045
-0.0224689505994319
-0.0213399529457092
-0.0200764369219541
-0.0187861621379852
-0.0175516903400421
-0.0164242852479219
-0.015422916971147
-0.0145371863618493
-0.0137328188866376
-0.0129588218405842
-0.0121558550745248
-0.01126395072788
-0.0102287717163562
-0.0090074986219406
-0.007575080730021
-0.0059309932403266
-0.0041021341457962
-0.0021383524872362
-0.0001043039374053
0.0019298275001347
0.0038980385288596
0.0057463161647319
0.0074378936551511
0.0089555485174059
0.0103001687675714
0.0114871561527252
0.0125422533601522
0.0134962182492017
0.0143794752657413
0.0152197852730751
0.0160400122404098
0.0168508160859346
0.0176441222429275
0.0183964595198631
0.0190793760120868
0.0196677148342132
0.0201401785016059
0.020473288372159
0.0206349045038223
0.0205817203968763
0.0202604960650205
0.0196116976439952
0.0185755938291549
0.0171018540859222
0.015163610689342
0.0127743035554885
0.0099980141967535
0.0069444682449102
0.0037538828328251
0.0005815331824123
-0.0024168919771909
-0.0051010274328291
-0.0073597757145762
-0.0091191502287983
-0.0103443264961242
-0.0110389152541756
-0.0112410057336092
-0.0110151171684265
-0.0104422103613615
-0.0096085220575332
-0.0085940463468432
-0.0074644791893661
-0.0062711266800761
-0.0050571775063872
-0.0038610734045505
-0.0027132704854011
-0.001632085070014
-0.0006227139383554
0.0003211917355656
0.0012154481373727
0.0020824684761464
0.0029455791227519
0.0038228621706366
0.0047242795117199
0.005651012994349
0.0065951878204941
0.0075410781428217
0.0084688868373632
0.009358818642795
0.0101926242932677
0.0109545905143022
0.0116339745000004
0.01222709659487
0.0127380490303039
0.0131775327026844
0.0135589111596345
0.0138923320919275
0.0141800269484519
0.0144162597134709
0.0145919602364301
0.0147002590820193
0.0147400060668587
0.0147185660898685
0.0146531565114855
0.0145650953054428
0.014467941597104
0.0143576143309474
0.0142082599923014
0.0139725813642144
0.0135850626975297
0.0129682477563619
0.0120417717844247
0.0107329953461885
0.0089893192052841
0.0067916773259639
0.0041656498797237
0.0011852025054395
-0.002031925600022
-0.0053343791514635
-0.0085514010861516
-0.0115125812590122
-0.0140720419585704
-0.0161278657615184
-0.0176288112998008
-0.0185705926269292
-0.0189877562224864
-0.0189433731138706
-0.0185174643993377
-0.0177977681159973
-0.0168741308152675
-0.0158334895968437
-0.014754731208086
-0.0137053942307829
-0.0127383191138505
-0.0118847731500864
-0.0111479191109538
-0.0105050057172775
-0.0099186636507511
-0.0093496283516287
-0.0087647205218672
-0.0081387963145971
-0.0074535924941301
-0.0066967192105948
-0.0058613801375031
-0.0049471026286482
-0.0039610471576452
-0.00291791674681
-0.001837802818045
-0.0007428494282066
0.0003450401127338
0.0014049829915165
0.0024197222664952
0.003377232234925
0.0042657544836401
0.0050689885392785
0.0057696108706295
0.0063553610816597
0.0068198894150555
0.007161462213844
0.0073832334019243
0.0074922107160091
0.0074960063211619
0.00739929638803
0.0071992580778896
0.0068793669342994
0.0064049260690808
0.0057247346267104
0.0047794487327337
0.0035116476938128
0.0018737344071269
-0.0001622484996914
-0.0025901300832629
-0.0053572109900414
-0.0083625260740518
-0.0114679029211401
-0.0145160146057605
-0.0173490419983863
-0.0198269430547952
-0.0218425504863262
-0.0233285836875438
-0.0242575034499168
-0.0246375389397144
-0.0245057828724384
-0.0239204745739698
-0.0229563191533088
-0.0217022504657506
-0.0202561691403388
-0.0187150165438652
-0.0171635206788778
-0.0156646352261304
-0.0142542421817779
-0.0129420235753059
-0.0117166703566908
-0.0105516668409109
-0.0094094891101121
-0.0082438373938202
-0.0070039615966379
-0.0056438199244439
-0.0041297152638435
-0.002442283090204
-0.0005784165114164
0.0014437292702496
0.0035816505551338
0.0057723633944988
0.0079426122829318
0.0100206090137362
0.0119455866515636
0.0136742684990167
0.0151843214407563
0.0164747759699821
0.0175618771463632
0.0184711813926696
0.0192309208214283
0.0198685489594936
0.0204091742634773
0.0208751074969768
0.0212835595011711
0.0216414518654346
0.0219412222504615
0.0221597701311111
0.0222603939473629
0.022195491939783
0.0219065081328153
0.0213234554976224
0.0203707572072744
0.0189807675778865
0.0171097125858068
0.0147524494677782
0.0119537897408008
0.0088125187903642
0.0054769557900726
0.0021318898070603
-0.0010264359880238
-0.0038240514695644
-0.0061365724541246
-0.0078988866880536
-0.0091007500886917
-0.0097770188003778
-0.0099958563223481
-0.0098452745005488
-0.0094206621870398
-0.0088146096095442
-0.0081076864153146
-0.0073611112311482
-0.0066136694513261
-0.0058838324621319
-0.0051755215972661
-0.0044831531122326
-0.0037955958396196
-0.0031019572634249
-0.0023958259262144
-0.0016744346357882
-0.0009358329698443
-0.0001765254419296
0.0006103704217821
0.00143538787961
0.0023098543751984
0.0032397455070167
0.0042199287563562
0.0052343662828207
0.0062624085694551
0.0072851283475756
0.0082881357520818
0.0092616118490695
0.0101957814767956
0.0110735464841127
0.0118693718686699
0.0125562353059649
0.0131127703934907
0.0135251805186271
0.0137864416465163
0.013898148201406
0.013872598297894
0.0137291736900806
0.0134870614856481
0.0131603898480534
0.0127571010962128
0.0122781936079263
0.0117168864235281
0.0110597405582666
0.0102849351242184
0.0093556372448802
0.0082191871479153
0.0068169170990586
0.0050967745482921
0.0030250241979956
0.0005976809188723
-0.0021515963599085
-0.0051499167457222
-0.0082884300500154
-0.0114297065883874
-0.0144215263426303
-0.0171161498874425
-0.0193884819746017
-0.0211472064256668
-0.0223402548581361
-0.0229606106877326
-0.0230504460632801
-0.0226944088935852
-0.0220019705593585
-0.0210877731442451
-0.0200564637780189
-0.0189945232123136
-0.0179676339030265
-0.0170182194560766
-0.0161623060703277
-0.0153917409479618
-0.01468260679394
-0.0140035171061754
-0.0133213810622692
-0.0126051045954227
-0.011826816946268
-0.0109657309949398
-0.0100164581090211
-0.0089914454147219
-0.0079140849411487
-0.006812110543251
-0.0057153962552547
-0.0046539953909814
-0.0036540804430842
-0.0027330014854669
-0.0018964186310768
-0.0011402628151699
-0.0004563040565699
0.0001627076417207
0.0007204597350209
0.0012191294226795
0.0016654658829793
0.0020721983164548
0.0024518757127225
0.0028116623871028
0.0031530484557151
0.0034738259855657
0.0037691390607506
0.0040282094851136
0.0042286026291549
0.0043348129838705
0.00430130911991
0.0040747025050222
0.0035961053799837
0.0028084455989301
0.0016690205084159
0.0001645968004595
-0.0016763587482273
-0.0037821186706423
-0.0060470043681561
-0.0083448961377143
-0.0105438157916069
-0.0125191286206245
-0.0141635276377201
-0.0153957996517419
-0.016167514026165
-0.0164644494652748
-0.0163037534803152
-0.0157293379306793
-0.0148053057491779
-0.0136073548346757
-0.0122149670496582
-0.0107046859338879
-0.0091409590095281
-0.0075695877894759
-0.0060214772820472
-0.0045184688642621
-0.0030726194381713
-0.0016837986186146
-0.0003384631127119
0.0009901532903313
0.0023357011377811
0.0037287287414073
0.0051918979734182
0.0067386562004685
0.0083694951608777
0.010069889947772
0.0118136024102568
0.013567766174674
0.0152980331331491
0.0169721059501171
0.0185591112822294
0.0200287085026502
0.0213533416390419
0.0225116983056068
0.0234916098415851
0.0242912098765373
0.0249175243079662
0.0253833532333374
0.02570441365242
0.0258973538875579
0.0259779691696167
0.0259603895246982
0.0258572474122047
0.025680461898446
0.0254413820803165
0.0251462031155824
0.0247877668589353
0.0243404582142829
0.0237603560090065
0.0229886770248413
0.0219574607908725
0.0205971207469701
0.0188456252217292
0.0166595485061407
0.0140267638489604
0.0109771229326725
0.0075857951305806
0.003967014607042
0.0002610343508422
-0.0033800213132053
-0.0068047363311052
-0.0098770232871174
-0.0124928206205368
-0.0145905669778585
-0.016151800751686
-0.0171959437429904
-0.01777177862823
-0.0179465878754854
-0.0177962929010391
-0.0173990204930305
-0.0168304089456796
-0.0161575693637132
-0.015432758256793
-0.0146907214075326
-0.013949223794043
-0.0132091511040925
-0.0124544473364949
-0.0116573460400104
-0.0107899829745292
-0.0098334616050124
-0.0087788728997111
-0.0076248799450695
-0.0063763447105884
-0.0050445217639207
-0.0036472817882895
-0.0022080824710428
-0.0007550691952928
0.0006788684986531
0.0020570619963109
0.0033430280163884
0.004506860859692
0.0055319247767329
0.0064190290868282
0.00718295853585
0.0078417677432298
0.008408760651946
0.0088914576917886
0.0092930290848016
0.0096133854240179
0.0098500400781631
0.0100001031532883
0.0100632831454277
0.0100426711142063
0.0099433828145265
0.0097712948918342
0.0095300236716866
0.0092150438576936
0.0088096437975764
0.0082868514582514
0.0076123541221022
0.0067425509914755
0.0056241229176521
0.0042027505114674
0.0024376818910241
0.0003161262720823
-0.0021346015855669
-0.0048403432592749
-0.0076844524592161
-0.0105238202959299
-0.0132096307352185
-0.0156061304733157
-0.0176051370799541
-0.019135732203722
-0.0201677624136209
-0.0207088999450206
-0.0207998119294643
-0.0205104276537895
-0.019932921975851
-0.0191692896187305
-0.0183183010667562
-0.0174663998186588
-0.016682107001543
-0.0160111300647258
-0.0154723431915044
-0.0150583917275071
-0.0147418929263949
-0.0144827160984277
-0.0142331141978502
-0.0139426076784729
-0.0135640986263751
-0.0130583308637142
-0.0123966671526432
-0.0115668307989835
-0.0105798235163092
-0.0094708148390054
-0.0082917269319295
-0.0070987832732498
-0.0059406170621514
-0.004851714707911
-0.0038519692607223
-0.0029485912527889
-0.0021374141797423
-0.0014054423663765
-0.0007351251551881
