bvp
0.0344255566596984
0.0343705862760543
0.0346053130924701
0.035186119377613
0.0361192151904106
0.0373671054840087
0.0388603173196315
0.0405114442110061
0.0422259010374546
0.0439033471047878
0.0454341247677803
0.0466986969113349
0.0475709736347198
0.0479249954223632
0.0476475581526756
0.0466556027531623
0.0449112802743911
0.0424307845532894
0.0392876714468002
0.0356093235313892
0.0315637961030006
0.0273385811597108
0.0231197383254766
0.019077967852354
0.0153557006269693
0.0120522314682602
0.0092185325920581
0.0068650711327791
0.0049720332026481
0.0034972289577126
0.0023825466632843
0.0015594251453876
0.0009550247341394
0.0004992336034774
0.0001313043758273
-0.0001952974125742
-0.0005111182108521
-0.0008308803662657
-0.0011519202962517
-0.0014522299170494
-0.001698107458651
-0.001862003467977
-0.0019346354529261
-0.0019236542284488
-0.0018477700650691
-0.0017308765091001
-0.0015944787301123
-0.0014526969753205
-0.0013113413006067
-0.0011670594103634
-0.0010085362009704
-0.0008215482812374
-0.0005933394422754
-0.000315768062137
1.1415861081331968e-05
0.0003815481322817
0.0007837543962523
0.001200335798785
0.0016051190905272
0.0019693593494594
0.0022697974927723
0.0024930057115852
0.0026354198344051
0.002701049670577
0.0026993821375072
0.002645016182214
0.0025567691773176
0.0024501755833625
0.0023221215233206
0.0021366877481341
0.0018219863995909
0.0012796958908438
0.0004007583484053
-0.0009186090901494
-0.0027569523081183
-0.00514424033463
-0.0080456584692001
-0.0113580357283353
-0.0149203212931752
-0.01853609085083
-0.0219987481832504
-0.0251142308115959
-0.0277213566005229
-0.0297068208456039
-0.0310117490589618
-0.0316303148865699
-0.0316017642617225
-0.0309982970356941
-0.0299166813492774
-0.0284765996038913
-0.026815315708518
-0.0250719878822565
-0.0233679432421922
-0.0217910297214984
-0.0203869193792343
-0.0191579163074493
-0.0180702786892652
-0.0170673243701457
-0.0160825159400701
-0.0150518072769045
-0.0139255542308092
-0.0126756215468049
-0.0112943118438124
-0.0097885224968194
-0.0081779398024082
-0.0064983521588146
-0.0047994614578783
-0.003134008962661
-0.0015482907183468
-7.915636524558067e-05
0.0012472090311348
0.0024172170087695
0.0034302929416298
0.0042969114147126
0.0050358213484287
0.0056706662289798
0.0062254946678876
0.0067209023982286
0.0071733272634446
0.0075979554094374
0.0080108512192964
0.0084249675273895
0.0088431779295206
0.0092535708099603
0.0096250101923942
0.0099007068201899
0.0099936630576848
0.0097908247262239
0.0091676982119679
0.0080105541273951
0.0062416782602667
0.0038395901210606
0.0008488893508911
-0.0026199189014732
-0.0063991304486989
-0.010280942544341
-0.014045750722289
-0.0174969509243965
-0.0204850416630506
-0.0229125171899795
-0.0247273724526166
-0.0259139463305473
-0.0264858622103929
-0.0264821648597717
-0.0259644165635108
-0.0250131897628307
-0.0237219911068677
-0.0221882089972496
-0.0205048359930515
-0.0187545344233512
-0.0170026868581771
-0.0152889154851436
-0.0136250928044319
-0.0120055731385946
-0.010419269092381
-0.0088508641347289
-0.0072774020954966
-0.0056723002344369
-0.0040126219391822
-0.002281698398292
-0.0004704464226961
0.0014196457341313
0.0033750813454389
0.0053730187937617
0.0073865121230483
0.0093891890719532
0.0113585488870739
0.0132769970223307
0.0151291834190487
0.0168985221534967
0.0185671169310808
0.0201186947524547
0.0215415228158235
0.0228292755782604
0.0239805374294519
0.0249991584569215
0.0258936565369367
0.0266737900674343
0.0273477640002965
0.0279226675629615
0.0284062288701534
0.028807196766138
0.0291351452469825
0.0294008236378431
0.0296131819486618
0.0297701004892587
0.0298458933830261
0.0297792814671993
0.0294668562710285
0.0287713557481765
0.0275460537523031
0.0256651323288679
0.0230507180094718
0.0196919701993465
0.015654020011425
0.0110748969018459
0.0061498889699578
0.0011076779337599
-0.00381422159262
-0.0083910599350929
-0.0124344965443015
-0.0158168114721775
-0.0184792671352624
-0.0204205233603715
-0.0216805227100849
-0.022328982129693
-0.0224563404917716
-0.0221644919365644
-0.021557193249464
-0.0207319632172584
-0.0197745021432638
-0.0187538489699363
-0.0177186019718647
-0.0166973788291215
-0.0156999323517084
-0.0147131904959678
-0.0137005737051367
-0.0126140881329774
-0.0114118158817291
-0.0100683383643627
-0.0085745230317115
-0.0069323587231338
-0.0051523479633033
-0.0032548680901527
-0.0012706224806606
0.0007627103477716
0.0028035934083163
0.004808260127902
0.0067349402233958
0.0085491389036178
0.0102279242128133
0.0117646064609289
0.0131673691794276
0.0144480615854263
0.015611520037055
0.0166535973548889
0.0175657588988542
0.0183403696864843
0.0189726296812295
0.0194612927734851
0.0198104083538055
0.0200295038521289
0.0201318580657243
0.0201340001076459
0.0200560167431831
0.0199183523654937
0.0197363067418336
0.0195185150951147
0.0192624665796756
0.0189350470900535
0.0184518508613109
0.0176796615123748
0.0164621602743864
0.0146534582599997
0.0121501917019486
0.008917543105781
0.0050038890913128
0.000540591776371
-0.0042726127430796
-0.0091926986351609
-0.0139634236693382
-0.0183451734483242
-0.0221381187438964
-0.0251944735646247
-0.0274260733276605
-0.0288130156695842
-0.0294053144752979
-0.0293112397193908
-0.0286773294210433
-0.0276664718985557
-0.0264390017837286
-0.0251370929181575
-0.0238697044551372
-0.0227029807865619
-0.021661277860403
-0.0207344628870487
-0.0198860168457031
-0.0190608240664005
-0.0181929171085357
-0.0172132905572652
-0.0160606298595666
-0.0146964527666568
-0.0131153613328933
-0.011342080309987
-0.0094199236482381
-0.0073992060497403
-0.0053289970383048
-0.0032515083439648
-0.0011992950458079
0.0008032771293073
0.0027358720544725
0.0045793238095939
0.0063156937249004
0.007930758409202
0.0094176577404141
0.0107789374887943
0.0120233818888664
0.0131568796932697
0.0141743570566177
0.0150604108348488
0.0157970301806926
0.0163725726306438
0.0167877562344074
0.0170556679368019
0.017196450382471
0.0172310043126344
0.0171757545322179
0.017034325748682
0.0167816244065761
0.0163491293787956
0.0156271234154701
0.0144846709445118
0.0127941071987152
0.01045195851475
0.0073990328237414
0.0036387480795383
-0.0007546236738562
-0.0056395158171653
-0.0108195394277572
-0.0160655621439218
-0.0211427733302116
-0.0258334465324878
-0.0299528334289789
-0.033359944820404
-0.0359636098146438
-0.037722360342741
-0.0386368967592716
-0.0387397184967994
-0.0380926430225372
-0.0367934368550777
-0.0349761694669723
-0.0327968895435333
-0.0304115191102027
-0.0279542859643697
-0.0255232006311416
-0.0231738723814487
-0.0209193751215934
-0.0187373850494623
-0.016583826392889
-0.0144077455624938
-0.0121629759669303
-0.0098150242120027
-0.0073431199416518
-0.0047371108084917
-0.0019967574626207
0.0008589355275034
0.0037844106554985
0.0067145666107535
0.0095789693295955
0.0123128071427345
0.0148625895380973
0.0171895939856767
0.019272057339549
0.0211045444011688
0.0226954482495784
0.0240644291043281
0.0252401679754257
0.0262573529034852
0.0271526090800762
0.0279610827565193
0.0287108048796653
0.0294127836823463
0.0300566144287586
0.0306188203394413
0.0310756657272577
0.0314107127487659
0.0316151492297649
0.0316820591688156
0.0315962880849838
0.0313218608498573
0.030792012810707
0.0299083590507507
0.0285514742136001
0.0266003794968128
0.0239586867392063
0.0205849912017583
0.0165138840675354
0.0118537675589323
0.0067701027728617
0.0014678206061944
-0.0038283455651253
-0.0088966097682714
-0.0135376788675785
-0.0175884533673524
-0.0209317598491907
-0.0235022995620965
-0.0252866502851247
-0.0263169519603252
-0.0266623701900243
-0.0264210477471351
-0.0257081650197505
-0.0246393959969282
-0.0233214609324932
-0.021855242550373
-0.0203375816345214
-0.0188517645001411
-0.0174543149769306
-0.0161668099462986
-0.0149749126285314
-0.0138342743739485
-0.0126802306622266
-0.011439424008131
-0.0100445942953228
-0.0084484247490763
-0.0066287731751799
-0.0045871529728174
-0.0023459233343601
5.720742046833038e-05
0.0025746198371052
0.0051467595621943
0.007698904722929
0.0101492097601294
0.0124244429171085
0.0144708547741174
0.0162571016699075
0.0177741274237632
0.0190335065126419
0.0200630389153957
0.0209006778895854
0.0215874761343002
0.0221613850444555
0.0226552486419677
0.0230980459600687
0.0235147252678871
0.0239209868013858
0.0243158675730228
0.024679996073246
0.0249818842858076
0.0251856744289398
0.025252278894186
0.025131007656455
0.024747721850872
0.0240005478262901
0.0227690115571022
0.0209356006234884
0.0184141118079423
0.0151745276525616
0.0112562151625752
0.0067699030041694
0.0018926626071333
-0.0031479569151997
-0.0081057092174887
-0.0127505827695131
-0.0168913342058658
-0.0203865375369787
-0.0231491774320602
-0.0251469202339649
-0.0263995453715324
-0.0269727297127246
-0.0269666593521833
-0.026500467211008
-0.0256967842578887
-0.0246704425662755
-0.0235220156610012
-0.0223324280232191
-0.0211556553840637
-0.0200161766260862
-0.0189167521893978
-0.0178492199629545
-0.016800720244646
-0.0157543122768402
-0.0146860890090465
-0.0135648995637893
-0.0123586440458893
-0.0110430298373103
-0.0096067702397704
-0.008052485063672
-0.0063957637175917
-0.0046621626242995
-0.0028829013463109
-0.001090963021852
0.0006849225610494
0.0024220847990363
0.0040948344394564
0.0056688413023948
0.0071088392287492
0.0083887092769145
0.0094960778951644
0.0104345148429274
0.0112232211977243
0.011889973655343
0.01246147044003
0.0129589568823575
0.0133990384638309
0.0137950237840414
0.0141557678580284
0.0144819049164652
0.0147590152919292
0.0149439312517642
0.0149481557309627
0.0146359354257583
0.0138464272022247
0.0124281235039234
0.0102718779817223
0.0073376893997192
0.0036703934893012
-0.0005997223779559
-0.0052714212797582
-0.0100997677072882
-0.0148280914872884
-0.0192167200148105
-0.0230660922825336
-0.0262297466397285
-0.0286152772605419
-0.0301834233105182
-0.0309514459222555
-0.0309902243316173
-0.0304097924381494
-0.0293430276215076
-0.0279312692582607
-0.0263092070817947
-0.0245919842272996
-0.0228671114891767
-0.0211903844028711
-0.0195857882499694
-0.0180499218404293
-0.0165590047836303
-0.0150747215375304
-0.0135483164340257
-0.0119259366765618
-0.010159914381802
-0.0082243336364626
-0.006123773753643
-0.0038895923644304
-0.0015698270872235
0.0007815826684236
0.0031137918122112
0.0053839553147554
0.0075598070397973
0.0096219228580594
0.0115635972470045
0.0133878607302904
0.015102844685316
0.0167171135544776
0.0182378552854061
0.0196727253496646
0.02103041857481
0.0223144441843032
0.0235154833644628
0.0246123522520065
0.0255804918706417
0.0264002326875925
0.0270605888217687
0.0275597684085369
0.0279055200517177
0.0281143710017204
0.0282074455171823
0.0282024387270212
0.0281006656587123
0.0278722308576107
0.0274486951529979
0.0267276745289564
0.0255840476602315
0.0238846726715564
0.0215121656656265
0.0183965433388948
0.0145405223593115
0.0100284535437822
0.0050195851363241
-0.000271069817245
-0.0055993627756834
-0.0107207046821713
-0.0154163986444473
-0.0195127613842487
-0.022890904918313
-0.0254881549626588
-0.0272913798689842
-0.0283270627260208
-0.0286570377647876
-0.028378639370203
-0.0276184193789958
-0.0265159085392951
-0.0252046398818492
-0.0237977113574743
-0.0223797317594289
-0.0210056472569704
-0.0197031833231449
-0.018472958356142
-0.0172890592366457
-0.0161058381199836
-0.0148690585047006
-0.0135265216231346
-0.0120343007147312
-0.0103585561737418
-0.008479849435389
-0.0064032045193016
-0.0041640703566372
-0.001822480931878
0.0005495487712323
0.0028808419592678
0.0051122745499014
0.0072039854712784
0.0091356635093688
0.0109018757939338
0.0125081501901149
0.0139696076512336
0.0153074683621525
0.0165411122143268
0.0176821611821651
0.0187360495328903
0.0197045505046844
0.0205829385668039
0.0213586632162332
0.0220162905752658
0.0225437469780445
0.0229377187788486
0.0232069790363311
0.0233694408088922
0.0234457738697528
0.023453664034605
0.0233974177390337
0.0232519842684268
0.0229516886174678
0.022391814738512
0.021443547680974
0.0199782699346542
0.0178933255374431
0.0151323899626731
0.0117002353072166
0.0076728342100977
0.0031969733536243
-0.0015267329290509
-0.0062714545056223
-0.0108109610155224
-0.014941394329071
-0.018497385084629
-0.0213622897863388
-0.0234751496464014
-0.0248338468372821
-0.0254899896681308
-0.0255344063043594
-0.0250786710530519
-0.0242446325719356
-0.0231644846498966
-0.0219752043485641
-0.0208005830645561
-0.0197354927659034
-0.0188412889838218
-0.0181455947458744
-0.0176420621573925
-0.0172940995544195
-0.017044223845005
-0.0168234836310148
-0.0165574830025434
-0.0161729604005813
-0.0156066883355379
-0.0148114385083317
-0.0137566169723868
-0.0124293956905603
-0.0108389155939221
-0.009016421623528
-0.0070079779252409
-0.004864627495408
-0.002634597942233
-0.0003597075119614
0.001925324788317
0.0041930493898689
0.0064229862764477
0.0085995318368077
0.0107075553387403
0.0127283837646245
0.0146375363692641
0.0164051689207553
0.018003549426794
0.0194156561046838
0.0206332467496395
0.0216509159654378
0.0224671084433794
0.0230850204825401
0.0235042609274387
0.0237066503614187
0.0236440002918243
0.0232341103255748
0.0223688874393701
0.0209342539310455
0.0188365913927555
0.0160281583666801
0.0125264031812548
0.0084250038489699
0.0038919164799153
-0.0008524395525455
-0.005572659894824
-0.0100531363859772
-0.0141179263591766
-0.0176396425813436
-0.0205410402268171
-0.0227881390601396
-0.0243801195174455
-0.0253435336053371
-0.0257295183837413
-0.0256088227033615
-0.0250646099448204
-0.0241860300302505
-0.0230628233402967
-0.0217779502272605
-0.020399160683155
-0.0189769268035888
-0.0175491627305746
-0.016142901033163
-0.0147700775414705
-0.0134234689176082
-0.0120781622827053
-0.0107003645971417
-0.0092583475634455
-0.0077285654842853
-0.0060963970609009
-0.0043545612134039
-0.0025032027624547
-0.00055374763906
0.0014671124517917
0.0035202424041926
0.0055649634450674
0.0075661651790142
0.0094895809888839
0.0112963542342185
0.0129465386271476
0.0144070843234658
0.0156592093408107
0.0167028531432151
0.0175557471811771
0.0182484164834022
0.0188183821737766
0.0193033460527658
0.0197340101003646
0.0201303903013467
0.020501984283328
0.0208505261689424
0.0211758352816104
0.0214788243174552
0.0217560194432735
0.0219927579164505
0.0221617463976144
0.0222209971398115
0.0221055187284946
0.0217199306935071
0.020943047478795
0.0196455810219049
0.0177143681794405
0.0150770312175154
0.0117222890257835
0.0077111814171075
0.0031754574738442
-0.0016959011554718
-0.0066766319796442
-0.0115297520533204
-0.0160411484539508
-0.0200462359935045
-0.0234379675239324
-0.0261616259813308
-0.0282050892710685
-0.0295892246067523
-0.0303596127778291
-0.0305784996598958
-0.030317710712552
-0.0296538472175598
-0.0286655258387327
-0.027431733906269
-0.0260291323065757
-0.0245250556617975
-0.0229664221405982
-0.0213749185204505
-0.0197565648704767
-0.0181146319955587
-0.016451459378004
-0.0147629389539361
-0.0130368964746594
-0.0112569676712155
-0.0094081470742821
-0.0074828267097473
-0.0054858839139342
-0.0034355386160314
-0.0013596923090517
0.0007097353227436
0.0027422793209552
0.0047144899144768
0.0066153081133961
0.0084446230903267
0.0102026807144284
0.0118805132806301
0.0134600512683391
0.0149213653057813
0.0162484683096408
0.0174306873232126
0.0184647608548402
0.0193576961755752
0.0201251059770584
0.0207860805094242
0.0213589929044246
0.0218594539910554
0.0222995653748512
0.0226888842880725
0.0230388604104518
0.0233645029366016
0.0236734934151172
0.0239488445222377
0.0241380538791418
0.0241507999598979
0.0238648951053619
0.0231430400162935
0.0218568500131368
0.0199113748967647
0.0172656811773777
0.0139453103765845
0.0100440373644232
0.0057158069685101
0.0011592824012041
-0.0034022137988358
-0.0077435234561562
-0.0116625949740409
-0.0150037910789251
-0.0176718402653932
-0.0196326673030853
-0.0209052059799432
-0.0215499065816402
-0.0216564964503049
-0.0213320478796958
-0.020689271390438
-0.0198349989950656
-0.0188621897250413
-0.0178472213447093
-0.0168486200273036
-0.0159048084169626
-0.0150307677686214
-0.0142140872776508
-0.0134173585101962
-0.0125925131142139
-0.0116981584578752
-0.0107067106291651
-0.0096010044217109
-0.008369649760425
-0.0070062889717519
-0.0055115255527198
-0.0038952184841036
-0.0021784238051623
-0.0003944184863939
0.0014136123936623
0.0031981132924556
0.0049131722189486
0.0065214680507779
0.0080009996891021
0.0093441903591156
0.010547112673521
0.0116002177819609
0.0124908909201622
0.0132128046825528
0.0137724867090582
0.0141903776675462
0.014497585594654
0.0147310616448521
0.0149284582585096
0.0151218920946121
0.0153322536498308
0.0155648197978734
0.0158029478043317
0.0160008184611797
0.0160801373422145
0.0159296244382858
0.0154080400243401
0.014360686764121
0.0126500483602285
0.0101878773421049
0.0069596180692315
0.0030368035659193
-0.0014264308847486
-0.0062122801318764
-0.0110691031441092
-0.0157452281564474
-0.0200185589492321
-0.023715566843748
-0.0267185121774673
-0.0289631616324186
-0.0304287187755107
-0.0311296787112951
-0.0311195347458124
-0.0304944775998592
-0.0293831620365381
-0.0279285758733749
-0.0262693893164396
-0.0245229210704565
-0.0227751992642879
-0.0210789293050766
-0.0194545872509479
-0.0178939066827297
-0.016366982832551
-0.014832217246294
-0.0132471192628145
-0.011575617827475
-0.0097893523052334
-0.0078691523522138
-0.005811202339828
-0.00362981390208
-0.001352593768388
0.0009845658205449
0.0033393492922186
0.0056641977280378
0.0079096741974353
0.0100330375134944
0.0120070492848753
0.0138208176940679
0.0154758775606751
0.0169836226850748
0.0183615647256374
0.0196273848414421
0.0207969862967729
0.0218845400959253
0.0228968728333711
0.0238282363861799
0.0246633626520633
0.0253835469484329
0.0259713567793369
0.0264165755361318
0.0267211496829986
0.0268969349563121
0.0269579663872718
0.0269155297428369
0.0267777349799871
0.026546599343419
0.0262086708098649
0.0257248394191265
0.0250264797359704
0.0240156836807727
0.0225677825510501
0.0205457787960767
0.0178316235542297
0.0143629014492034
0.0101587884128093
0.005326866172254
5.048420280218125e-05
-0.0054375184699893
-0.0108845457434654
-0.0160457380115985
-0.02070864289999
-0.0247115939855575
-0.0279513541609048
-0.0303790122270584
-0.0319896899163723
-0.0328170582652092
-0.0329342186450958
-0.0324509292840957
-0.0315023101866245
-0.0302330069243907
-0.0287810415029525
-0.0272625666111707
-0.0257600210607051
-0.0243180859833955
-0.0229463558644056
-0.0216250251978635
-0.0203148052096366
-0.0189703367650508
-0.0175506249070167
-0.0160219278186559
-0.0143550187349319
-0.0125256357714533
-0.0105242663994431
-0.0083656981587409
-0.0060861790552735
-0.0037326412275433
-0.0013552247546613
0.0009949253872036
0.0032676507253199
0.0054193860851228
0.0074200117960572
0.0092545794323086
0.0109197776764631
0.0124215874820947
0.0137762892991304
0.0150108244270086
0.0161585919559001
0.0172490738332271
0.0182954426854848
0.0192898530513048
0.0202101115137338
0.0210314746946096
0.0217358842492103
0.0223151557147502
0.0227689575403928
0.0231006294488906
0.0233149584382772
0.0234191007912158
0.02342065051198
0.0233180280774831
0.0230876225978136
0.0226758327335119
0.0220002718269824
0.020957751199603
0.0194358769804239
0.017331451177597
0.0145764974877238
0.0111630465835332
0.0071590798906981
0.0027115745469927
-0.0019697155803442
-0.006644417066127
-0.011074068956077
-0.0150465797632932
-0.0183946751058101
-0.021009188145399
-0.0228437278419733
-0.0239076633006334
-0.0242533385753631
-0.0239688828587532
-0.0231759399175643
-0.0220208298414945
-0.0206572078168392
-0.0192283447831869
-0.0178520400077104
-0.0166078563779592
-0.0155305657535791
-0.0146126179024577
-0.0138133857399225
-0.0130710490047931
-0.0123141054064035
-0.0114718815311789
-0.0104843946173787
-0.0093099046498537
-0.0079271802678704
-0.0063357055187225
-0.0045587820932269
-0.0026450499426573
-0.0006629086565226
0.0013115854235365
0.0032090332824736
0.0049755214713513
0.006573555059731
0.007980665192008
0.0091892126947641
0.0102065503597259
0.0110533535480499
0.0117573402822017
0.0123453857377171
0.0128429988399147
0.0132791036739945
0.0136828599497675
0.0140713779255747
0.0144416838884353
0.0147742293775081
0.0150435827672481
0.0152296144515275
0.0153237590566277
0.0153261628001928
0.0152330584824085
0.0150195695459842
0.0146263502538204
0.0139559805393219
0.0128817446529865
0.0112696569412946
0.0090111009776592
0.0060566533356904
0.0024353945627808
-0.0017484687268733
-0.0063324114307761
-0.0111138932406902
-0.0158698949962854
-0.0203810464590787
-0.0244548469781875
-0.0279390588402748
-0.0307262614369392
-0.0327561572194099
-0.0340161547064781
-0.0345366634428501
-0.0343820676207542
-0.0336415097117424
-0.0324188843369483
-0.0308204479515552
-0.0289458446204662
-0.0268868580460548
-0.0247283428907394
-0.0225443132221698
-0.0203893072903156
-0.0182913187891244
-0.0162516757845878
-0.0142506901174783
-0.0122552281245589
-0.0102270664647221
-0.0081318719312548
-0.0059463381767272
-0.0036617973819375
-0.0012845192104578
0.001167856156826
0.0036722086369991
0.0062025799416005
0.0087270177900791
0.0112040108069777
0.013584591448307
0.0158201158046722
0.0178715772926807
0.0197157151997089
0.0213456451892852
0.0227671042084693
0.0239931643009185
0.0250405706465244
0.025928171351552
0.0266747772693634
0.027296282351017
0.0278058908879756
0.0282184481620788
0.0285510476678609
0.0288141313940286
0.0290037281811237
0.0291052181273698
0.0291014444082975
0.0289760641753673
0.0287113152444362
0.0282808300107717
0.0276393163949251
0.0267135147005319
0.0254020765423774
0.0235897451639175
0.0211714450269937
0.018077990040183
0.0142997242510318
0.0099038612097501
0.0050340900197625
-0.0001119640655815
-0.0053144581615924
-0.0103588197380304
-0.0150567889213562
-0.0192615576088428
-0.0228746570646762
-0.0258435979485511
-0.0281538590788841
-0.0298188012093305
-0.030869748443365
-0.0313504412770271
-0.0313174650073051
-0.0308414008468389
-0.0300020221620798
-0.0288768019527196
-0.0275312811136245
-0.0260190889239311
-0.0243862345814704
-0.0226713679730892
-0.0209015067666769
-0.0190876126289367
-0.0172251835465431
-0.0153010599315166
-0.013301795348525
-0.0112189007923007
-0.0090516321361064
-0.0068089016713202
-0.0045095086097717
-0.0021812794730067
0.0001425053924322
0.0024310573935508
0.0046606445685029
0.0068104239180684
0.0088570825755596
0.0107754115015268
0.0125444345176219
0.0141535494476556
0.0156017858535051
0.0168923120945692
0.0180293377488851
0.01901800557971
0.0198655985295772
0.0205839872360229
0.0211916770786046
0.0217129848897457
0.022175645455718
0.0226090122014284
0.0230374112725257
0.0234672892838716
0.0238804295659065
0.0242365151643753
0.0244729034602642
0.0244995169341564
0.0242001116275787
0.023445501923561
0.022115770727396
0.0201246403157711
0.0174386817961931
0.0140896141529083
0.0101782493293285
0.0058639696799218
0.0013420721516013
-0.0031799576245248
-0.0075062871910631
-0.0114779183641076
-0.0149854561313986
-0.0179619546979665
-0.0203687660396099
-0.0221878178417682
-0.0234223790466785
-0.0241005588322877
-0.0242749601602554
-0.0240176450461149
-0.0234117321670055
-0.0225401520729064
-0.0214759558439254
-0.0202778950333595
-0.0189886130392551
-0.0176336374133825
-0.0162253901362419
-0.0147734824568033
-0.0132924672216176
-0.0118016265332698
-0.0103232469409704
-0.0088845798745751
-0.0075200973078608
-0.0062690624035894
-0.0051675932481884
-0.004239881876856
-0.0034940699115395
-0.0029223300516605
-0.0025015051942318
-0.0021950230002403
-0.0019583888351917
-0.001744762994349
-0.0015098087023943
-0.0012208645930513
-0.0008645808557048
-0.000442701333668
3.699155058711767e-05
0.0005629961960949
0.0011190372752025
0.0016850552055984
0.0022403839975595
0.0027709018904715
0.0032772028353065
0.0037771984934806
0.0043017994612455
0.004885715432465
0.0055597084574401
0.0063491994515061
0.0072698248550295
0.0083114001899957
0.0094204526394605
0.010495226830244
0.0113962683826684
0.0119685539975762
0.0120700495317578
0.0116006350144743
0.0105234906077384
0.0088754929602146
0.0067673060111701
0.0043699806556105
0.0018859419506043
-0.0004873348516412
-0.0025854595005512
-0.0042883940041065
-0.0055229496210813
-0.006265559233725
-0.0065391305834054
-0.0064009027555584
-0.0059295026585459
-0.0052145654335618
-0.0043483623303473
-0.0034189666621387
-0.0025026425719261
-0.0016574817709624
-0.0009229688439518
-0.0003228459390811
0.0001336637651547
0.0004521108348853
0.0006552902632392
0.0007861343910917
0.0009019057033583
0.0010585241252556
0.001296320464462
0.0016350792720913
0.0020771496929228
0.0026142087299376
0.0032334481365978
0.0039207125082612
0.0046608811244368
0.0054369056597352
0.0062279477715492
0.0070080878213047
0.00774842267856
0.00842254050076
0.0090141706168651
0.0095245325937867
0.0099710226058959
0.0103739043697714
0.0107428571209311
0.0110742561519145
0.0113566750660538
0.0115778986364603
0.011729490943253
0.0118077769875526
0.0118138613179326
0.0117557141929864
0.0116492751985788
0.011514164507389
0.0113669410347938
0.0112173333764076
0.0110682966187596
0.0109138814732432
0.0107247456908226
0.0104268882423639
0.009896338917315
0.0089783119037747
0.0075192442163825
0.0054004667326807
0.0025668106973171
-0.0009559150785207
-0.0050589889287948
-0.0095655489712953
-0.0142573099583387
-0.0189027991145849
-0.0232800729572772
-0.0271951779723167
-0.0304959826171398
-0.0330775827169418
-0.034884538501501
-0.0359151810407638
-0.0362197495996952
-0.0358886644244194
-0.035038772970438
-0.0337993018329143
-0.0322958119213581
-0.0306374244391918
-0.0289115495979785
-0.0271828453987836
-0.0254923403263092
-0.0238571260124444
-0.0222711618989706
-0.0207074414938688
-0.0191220194101333
-0.017460299655795
-0.0156692285090684
-0.0137143898755311
-0.0115910172462463
-0.0093220248818397
-0.0069472738541662
-0.0045118010602891
-0.0020588571205735
0.0003716256469488
0.0027436264790594
0.0050272205844521
0.0072005712427198
0.0092498287558555
0.0111671518534421
0.0129484236240386
0.0145927891135215
0.0161049105226993
0.0174950435757637
0.0187724698334932
0.0199386421591043
0.0209882948547601
0.0219164378941059
0.0227230209857225
0.0234118532389402
0.023987878113985
0.0244547240436077
0.0248089302331209
0.0250297524034976
0.0250680148601531
0.0248402133584022
0.0242343954741954
0.0231297947466373
0.0214246064424514
0.0190602242946624
0.0160349048674106
0.0124105876311659
0.0083145992830395
0.0039300173521041
-0.0005272099515423
-0.0048357509076595
-0.0087920175865292
-0.0122288344427943
-0.0150294583290815
-0.017131557688117
-0.018522810190916
-0.0192355420440435
-0.0193400047719478
-0.0189307797700166
-0.0181091930717229
-0.016974264755845
-0.0156249636784195
-0.014159764163196
-0.0126664005219936
-0.0112097393721342
-0.0098257195204496
-0.0085226166993379
-0.0072866906411945
-0.0060891583561897
-0.0048933150246739
-0.0036608651280403
-0.0023574857041239
-0.0009586531668901
0.000545903109014
0.0021525090560317
0.0038481918163597
0.0056118033826351
0.0074088172987103
0.0091904373839497
0.0109022427350282
0.0124945500865578
0.0139290113002061
0.0151836480945348
0.0162559747695922
0.0171593651175498
0.0179144106805324
0.018542543053627
0.0190644785761833
0.019500195980072
0.0198673643171787
0.0201812535524368
0.0204580035060644
0.0207133814692497
0.0209536720067262
0.0211691688746213
0.0213372409343719
0.0214285608381032
0.0214114226400852
0.0212568920105695
0.0209425184875726
0.0204473584890365
0.0197384301573038
0.0187581740319728
0.0174229890108108
0.0156348925083875
0.0133018707856535
0.0103633822873234
0.006815543398261
0.002722498960793
-0.0017924690619111
-0.0065649226307868
-0.0114062000066041
-0.0161200892180204
-0.0205201357603073
-0.024444730952382
-0.0277681667357683
-0.0304078198969364
-0.0323266126215457
-0.0335306413471698
-0.034064657986164
-0.0340054631233215
-0.0334510914981365
-0.032507088035345
-0.0312731899321079
-0.0298362728208303
-0.028272122144699
-0.0266467072069644
-0.0250110123306512
-0.0233956687152385
-0.0218093674629926
-0.0202402807772159
-0.0186618715524673
-0.0170417726039886
-0.0153488898649811
-0.013557038269937
-0.0116475857794284
-0.0096138212829828
-0.0074652172625064
-0.0052253915928304
-0.0029231552034616
-0.0005886200815439
0.0017392185982316
0.0040067490190267
0.0061526666395366
0.0081216357648372
0.0098761646077036
0.0114019308239221
0.0127043277025222
0.0138016175478696
0.0147213991731405
0.0154979713261127
0.0161678493022918
0.0167662464082241
0.0173246432095766
0.0178690887987613
0.0184219311922788
0.0190003979951143
0.0196056347340345
0.0202158167958259
0.0207945872098207
0.021305801346898
0.0217228978872299
0.0220273043960332
0.0221965331584215
0.0221891086548566
0.0219347402453422
0.0213350281119346
0.0202759522944688
0.0186507571488618
0.0163871999830007
0.0134702790528535
0.0099559407681226
0.0059705297462642
0.0016915169544517
-0.0026806544046849
-0.0069454363547265
-0.0109174270182847
-0.0144394114613533
-0.0173938199877738
-0.0197075679898262
-0.0213511660695076
-0.02233755774796
-0.0227209702134132
-0.0225926674902439
-0.0220729708671569
-0.0213003642857074
-0.0204155500978231
-0.0195409748703241
-0.0187664777040481
-0.0181483551859855
-0.0177134852856397
-0.0174599550664424
-0.0173576157540082
-0.0173543877899646
-0.0173874329775571
-0.0173924621194601
-0.0173059124499559
-0.0170629806816577
-0.0166004039347171
-0.015866519883275
-0.0148299522697925
-0.013479795306921
-0.0118195675313472
-0.0098606562241911
-0.007623054087162
-0.0051446137949824
-0.0024844808503985
0.0002864664420485
0.0030989293009042
0.0058961808681488
0.0086410129442811
0.0113168004900217
0.0139230992645025
0.0164669621735811
0.0189534910023212
0.0213786140084266
0.0237243957817554
0.025959188118577
0.0280440598726272
0.0299413371831178
0.0316166244447231
0.0330292135477066
0.0341181606054306
0.0347952060401439
0.0349483229219913
0.0344551131129264
0.0332037322223186
0.0311157032847404
0.0281662624329328
0.0243998281657695
0.0199345629662275
0.0149522041901946
0.0096770580857992
0.0043505509383976
-0.0007928777486085
-0.0055452664382755
-0.009741143323481
-0.0132702020928263
-0.0160814188420772
-0.0181764215230941
-0.0195987708866596
-0.0204246435314416
-0.0207534525543451
-0.0206965263932943
-0.0203641410917043
-0.0198530778288841
-0.0192381553351879
-0.0185681190341711
-0.01786520332098
-0.0171292200684547
-0.0163443423807621
-0.0154846794903278
-0.0145209524780511
-0.0134310983121395
-0.0122083211317658
-0.0108613204210996
-0.0094093400985002
-0.0078757591545581
-0.0062833875417709
-0.0046535767614841
-0.0030080527067184
-0.0013698972761631
0.0002375487965764
0.0017911393661051
0.0032684525940567
0.0046513662673532
0.0059312130324542
0.007112281396985
0.0082087507471442
0.0092337736859917
0.0101905157789587
0.0110725164413452
0.0118688363581895
0.0125684617087244
0.0131627134978771
0.0136457867920398
0.0140159372240304
0.014278432354331
0.0144458329305052
0.0145339109003543
0.0145582119002938
0.0145328640937805
0.0144674396142363
0.0143599892035126
0.0141846444457769
0.0138740241527557
0.0133099425584077
0.0123365931212902
0.0107938358560204
0.0085579734295606
0.0055742310360074
0.0018708771094679
-0.002442161552608
-0.0071856183931231
-0.0121337994933128
-0.0170435532927513
-0.0216824300587177
-0.0258514285087585
-0.0293975286185741
-0.0322164073586463
-0.0342533327639102
-0.035505898296833
-0.0360228568315506
-0.0358943231403827
-0.0352359935641288
-0.0341730527579784
-0.0328268930315971
-0.031303733587265
-0.0296861007809638
-0.0280304625630378
-0.0263693071901798
-0.0247131884098052
-0.0230526234954595
-0.0213629510253667
-0.0196113362908363
-0.0177613850682973
-0.0157786235213279
-0.013641970232129
-0.0113521628081798
-0.0089291892945766
-0.0064048832282423
-0.003816002048552
-0.0011995565146207
0.0014078933745622
0.0039698434993624
0.0064519518055021
0.0088261850178241
0.0110746892169117
0.0131910042837262
0.0151775749400258
0.017042338848114
0.018797893077135
0.0204588770866394
0.0220344811677932
0.0235234759747982
0.0249155405908823
0.0261957198381423
0.0273486915975809
0.0283611789345741
0.0292246304452419
0.0299382042139768
0.030509378761053
0.0309524871408939
0.0312855057418346
0.0315235257148742
0.0316678881645202
0.0316953919827938
0.0315519534051418
0.0311480592936277
0.0303602013736963
0.0290496610105037
0.0270955078303813
0.0244268868118524
0.0210448130965232
0.0170294176787138
0.0125320451334118
0.0077565475367009
0.0029350114054977
-0.0016990477452054
-0.005936998873949
-0.0096154501661658
-0.012626308016479
-0.0149164600297808
-0.0164798684418201
-0.0173502750694751
-0.0176007449626922
-0.0173426195979118
-0.0167143270373344
-0.0158612765371799
-0.0149153042584657
-0.0139809325337409
-0.0131298406049609
-0.0124014467000961
-0.0118046021088957
-0.0113182142376899
-0.0108958510681986
-0.0104754958301782
-0.0099892420694231
-0.0093711409717798
-0.0085646621882915
-0.0075323884375393
-0.006266763433814
-0.0047938502393662
-0.0031680539250373
-0.0014625660842284
0.0002424239064566
0.001872626831755
0.0033716275356709
0.0047083217650651
0.0058753518387675
0.0068810759112238
0.0077432836405932
0.0084861889481544
0.0091361347585916
0.0097174895927309
0.0102529060095548
0.0107611678540706
0.0112479552626609
0.0117014301940798
0.0120991133153438
0.0124173359945416
0.0126382391899824
0.0127551928162574
0.0127735463902354
0.012703787535429
0.0125502990558743
0.0122998850420117
0.0119136404246091
0.0113250659778714
0.0104433679953217
0.0091632902622222
0.0073850853368639
0.0050385557115077
0.002100957557559
-0.001390928402543
-0.0053343074396252
-0.0095685683190822
-0.0138982515782117
-0.018118891865015
-0.0220396425575017
-0.0255025885999202
-0.0283955074846744
-0.0306547526270151
-0.0322602465748786
-0.0332270041108131
-0.0335975661873817
-0.0334356464445591
-0.0328179150819778
-0.0318279787898063
-0.0305562335997819
-0.0290978774428367
-0.0275433529168367
-0.0259662568569183
-0.0244145914912223
-0.0229071676731109
-0.0214354768395423
-0.0199699997901916
-0.0184694342315197
-0.0168904960155487
-0.015195470303297
-0.0133570050820708
-0.0113618159666657
-0.0092119164764881
-0.0069193174131214
-0.0045011541806161
-0.0019857087172567
0.0005795024335384
0.0031322743743658
0.0056085241958498
0.0079525597393512
0.0101229790598154
0.0120944380760192
0.013857246376574
0.0154178105294704
0.0167972184717655
0.0180244594812393
0.0191275440156459
0.0201292373239994
0.0210495144128799
0.0219088438898324
0.0227242782711982
0.0235001184046268
0.0242221057415008
0.0248592942953109
0.0253729838877916
0.0257262699306011
0.0258837305009365
0.0258010141551494
0.0254147239029407
0.0246402416378259
0.0233796909451484
0.0215397253632545
0.0190559439361095
0.0159171633422374
0.0121800024062395
0.0079681007191538
0.0034574503079056
-0.0011479414533823
-0.0056427321396768
-0.0098411329090595
-0.0135896792635321
-0.0167731754481792
-0.0193160306662321
-0.0211834143847227
-0.0223828256130218
-0.0229615960270166
-0.022999195381999
-0.0225970409810543
-0.021867411211133
-0.0209209229797124
-0.0198528971523046
-0.0187319107353687
-0.0175974089652299
-0.0164680145680904
-0.0153497084975242
-0.0142369121313095
-0.0131110288202762
-0.0119402166455984
-0.0106839770451188
-0.0093044759705662
-0.007777233608067
-0.0060943374410271
-0.0042618038132786
-0.0022948682308197
-0.0002148440107703
0.0019496269524097
0.0041614370420575
0.0063806003890931
0.0085699455812573
0.0106921689584851
0.0127054126933217
0.0145648680627346
0.0162281170487403
0.0176640879362821
0.0188630707561969
0.0198384299874305
0.0206193123012781
0.0212421044707298
0.0217440873384475
0.022159706801176
0.0225205011665821
0.0228563118726015
0.0231942180544137
0.0235549174249172
0.0239414554089307
0.0243186019361019
0.0245979633182287
0.0246415510773658
0.0242824610322713
0.0233588106930255
0.0217529069632291
0.0194203406572341
0.0164004247635602
0.0128112798556685
0.0088339429348707
0.0046872813254594
0.0005980976857244
-0.0032262729946523
-0.0066154464147984
-0.009441252797842
-0.0116196926683187
-0.0131177045404911
-0.0139586105942726
-0.0142183424904942
-0.0140129923820495
-0.0134801249951124
-0.0127569809556007
-0.0119619015604257
-0.0111843617632985
-0.0104827880859375
-0.0098860953003168
-0.0093972515314817
-0.0089976955205202
-0.0086515983566641
-0.0083094947040081
-0.0079102534800767
-0.0073887631297111
-0.0066953217610716
-0.0058120065368711
-0.004752648063004
-0.0035519641824066
-0.002253834856674
-0.000904360320419
0.0004513505846261
0.0017720647156238
0.0030225221998989
0.0041742781177163
0.0052066650241613
0.006107379682362
0.0068720108829438
0.0075045879930257
0.008018797263503
0.0084343142807483
0.0087684094905853
0.0090314019471406
0.0092284539714455
0.0093626538291573
0.0094367675483226
0.0094527900218963
0.0094047542661428
0.0092630749568343
0.0089606484398245
0.0083923321217298
0.0074295457452535
0.0059470674023032
0.0038541126996278
0.0011180061846971
-0.0022231796756386
-0.0060600452125072
-0.0102279093116521
-0.0145330494269728
-0.0187756698578596
-0.0227667652070522
-0.0263410843908786
-0.0293656885623931
-0.0317443683743476
-0.0334186293184757
-0.0343667082488536
-0.0346029177308082
-0.0341772064566612
-0.0331722944974899
-0.0316964499652385
-0.029871467500925
-0.0278158970177173
-0.0256314203143119
-0.0234018340706825
-0.0211974792182445
-0.0190733112394809
-0.0170618295669555
-0.0151689806953072
-0.0133771356195211
-0.0116515876725316
