bvp
0.0097769182175397
0.0110266497358679
0.0121563971042633
0.0131222177296876
0.0139003302901983
0.0144864013418555
0.0148929525166749
0.0151435956358909
0.0152669055387377
0.0152936894446611
0.0152556486427783
0.0151831591501832
0.0151036903262138
0.0150378430262207
0.0149906398728489
0.0149454623460769
0.0148635618388652
0.0146832671016454
0.0143185928463935
0.0136621724814176
0.0125954365357756
0.0110069401562213
0.0088151162490248
0.0059873601421713
0.002550977282226
-0.001403453759849
-0.0057261665351688
-0.0102208703756332
-0.0146658793091773
-0.0188433919101953
-0.022571861743927
-0.0257271900773048
-0.0282433368265628
-0.0300992671400308
-0.0313058495521545
-0.0318994894623756
-0.0319388657808303
-0.0314993262290954
-0.0306654162704944
-0.0295250751078128
-0.0281649809330701
-0.0266635604202747
-0.0250841174274683
-0.0234706718474626
-0.0218430906534194
-0.0201962515711784
-0.0185108669102191
-0.0167671497911214
-0.0149510763585567
-0.0130563909187912
-0.0110854757949709
-0.0090481741353869
-0.0069600343704223
-0.0048411772586405
-0.0027148365043103
-0.0006049498915672
0.0014661268796771
0.0034787128679454
0.0054167746566236
0.0072709238156676
0.0090420879423618
0.0107383709400892
0.0123633127659559
0.0139072220772504
0.0153493750840425
0.0166655294597148
0.0178345795720815
0.0188432596623897
0.0196892526000738
0.020382547751069
0.0209433771669864
0.0213959459215402
0.0217614080756902
0.022054985165596
0.0222879853099584
0.0224698260426521
0.0226041246205568
0.0226761680096387
0.022635044530034
0.0223832856863737
0.0217860955744981
0.0206982232630252
0.0189978778362274
0.0166166983544826
0.0135583207011222
0.0099032679572701
0.0057998979464173
0.0014439602382481
-0.0029477919451892
-0.0071651330217719
-0.0110278856009244
-0.0143998004496097
-0.0171911362558603
-0.0193560905754566
-0.0208917520940303
-0.02183548361063
-0.0222557447850704
-0.0222383644431829
-0.0218736827373504
-0.0212483275681734
-0.0204405691474676
-0.0195160079747438
-0.0185230560600757
-0.0174914095550775
-0.01643499545753
-0.015355858951807
-0.0142468530684709
-0.013092340901494
-0.0118661243468523
-0.0105350716039538
-0.0090749971568584
-0.0074847433716058
-0.0057847532443702
-0.0040073110722005
-0.0021886168979108
-0.0003643189556896
0.0014325841329991
0.0031732043717056
0.0048344722017645
0.0064004654996097
0.0078617157414555
0.009212227538228
0.0104474425315856
0.0115665774792432
0.0125782778486609
0.0135014047846198
0.0143553167581558
0.0151491044089198
0.0158801022917032
0.0165387541055679
0.0171151626855134
0.0176051519811153
0.0180129390209913
0.0183499027043581
0.0186301618814468
0.0188652202486991
0.0190602391958236
0.0192117467522621
0.0193065870553255
0.0193194225430488
0.0192062556743621
0.0188977420330047
0.018297255039215
0.0172883309423923
0.0157558321952819
0.0136171318590641
0.0108506977558135
0.0075112888589501
0.0037276553921401
-0.0003152047283947
-0.0044032838195562
-0.0083241090178489
-0.0118938852101564
-0.0149739803746342
-0.0174742862582206
-0.0193487163633108
-0.0205895602703094
-0.0212239380925893
-0.0213120859116315
-0.0209436621516942
-0.0202297847718
-0.0192915759980678
-0.018246054649353
-0.0171923357993364
-0.0162021983414888
-0.0153164584189653
-0.0145442737266421
-0.0138639351353049
-0.0132297733798623
-0.0125851184129714
-0.011875307187438
-0.0110554816201329
-0.0100911688059568
-0.0089609492570161
-0.0076674297451972
-0.0062421294860541
-0.0047340830788016
-0.0031936047598719
-0.0016642021946609
-0.0001826183870434
0.0012203224468976
0.0025229842867702
0.0037171756848692
0.0048066531307995
0.0058001666329801
0.0067055495455861
0.0075285285711288
0.0082773901522159
0.0089708482846617
0.009636940434575
0.0102974334731698
0.0109540978446602
0.0115909278392791
0.0121846366673707
0.012711857445538
0.0131517928093671
0.0134843494743108
0.01368108112365
0.0136935263872146
0.0134486500173807
0.0128540769219398
0.0118108429014682
0.0102324038743972
0.0080664735287427
0.0053140176460146
0.0020384490489959
-0.0016415668651461
-0.0055697932839393
-0.0095690069720149
-0.013457634486258
-0.0170689150691032
-0.0202653594315052
-0.022945336997509
-0.0250455196946859
-0.0265393108129501
-0.0274309460073709
-0.0277502555400133
-0.0275499206036329
-0.0269008390605449
-0.0258838683366775
-0.0245814528316259
-0.0230743736028671
-0.0214421078562736
-0.0197585020214319
-0.0180816911160945
-0.0164449177682399
-0.0148541834205389
-0.0132936844602227
-0.0117342239245772
-0.0101416604593396
-0.0084840534254908
-0.0067350286990404
-0.0048757642507553
-0.0028985124081373
-0.000808635726571
0.0013778125867247
0.0036382898688316
0.0059440582990646
0.0082553010433912
0.0105180582031607
0.0126709258183836
0.0146598778665065
0.0164502896368503
0.0180293414741754
0.0194021016359329
0.0205860491842031
0.0216061621904373
0.0224899854511022
0.0232618078589439
0.0239394232630729
0.0245356075465679
0.0250616706907749
0.0255311913788318
0.0259585902094841
0.0263493061065673
0.0266928896307945
0.0269670784473419
0.0271460600197315
0.0272068977355957
0.0271331928670406
0.0269132182002067
0.0265288688242435
0.0259383749216794
0.0250657126307487
0.0238084644079208
0.0220611337572336
0.0197402723133564
0.0168041940778493
0.0132679883390665
0.0092088254168629
0.0047576483339071
8.384429384022951e-05
-0.0046229362487792
-0.0091739455237984
-0.0134019721299409
-0.0171741675585508
-0.0203937962651252
-0.0229978673160076
-0.0249577611684799
-0.0262800194323062
-0.027002153918147
-0.0271851327270269
-0.026905607432127
-0.0262481831014156
-0.0252994876354932
-0.0241459291428327
-0.0228728726506233
-0.0215594582259655
-0.0202683322131633
-0.0190370939671993
-0.0178755242377519
-0.0167672429233789
-0.0156748034060001
-0.0145479645580053
-0.0133341066539287
-0.0119883250445127
-0.0104804281145334
-0.0087992874905467
-0.0069546219892799
-0.0049719125963747
-0.0028818612918257
-0.0007160101085901
0.0014868797734379
0.0036753322929143
0.0057907337322831
0.0077794827520847
0.0096017895266413
0.0112342555075883
0.0126687102019786
0.0139097077772021
0.0149732306599617
0.0158857498317956
0.0166796334087848
0.0173856411129236
0.018028225749731
0.0186271853744983
0.0192023869603872
0.0197724010795354
0.020345052704215
0.0209108516573905
0.0214453525841236
0.0219159517437219
0.0222899559885263
0.0225404445081949
0.0226423908025026
0.0225592833012342
0.0222317166626453
0.0215751156210899
0.0204859375953674
0.0188567321747541
0.0166001804172992
0.0136766638606786
0.010114574804902
0.0060140276327729
0.0015337606891989
-0.0031314734369516
-0.0077757160179317
-0.0122026167809963
-0.0162393301725387
-0.0197467412799596
-0.0226273424923419
-0.0248283445835113
-0.0263405367732048
-0.0271948762238025
-0.0274568181484937
-0.0272172167897224
-0.0265811961144208
-0.0256569385528564
-0.0245436783879995
-0.0233239475637674
-0.02206502109766
-0.0208213273435831
-0.0196287184953689
-0.0184951480478048
-0.0173999145627021
-0.0163049809634685
-0.0151674710214138
-0.0139456521719694
-0.0126036023721098
-0.0111182881519198
-0.0094853108748793
-0.0077194399200379
-0.0058507458306849
-0.0039179399609565
-0.0019588279537856
-5.139852873980999e-06
0.0019122497178614
0.0037580400239676
0.0054959617555141
0.0070962430909276
0.0085409665480256
0.0098256589844822
0.0109579600393772
0.0119543941691517
0.012835931032896
0.0136232580989599
0.0143339680507779
0.0149828493595123
0.0155831119045615
0.0161483325064182
0.016694251447916
0.0172331016510725
0.0177590008825063
0.0182335656136274
0.0185786858201026
0.0186788961291313
0.018393525853753
0.0175750274211168
0.0160920564085245
0.0138574475422501
0.010853573679924
0.0071445889770984
0.0028730621561408
-0.0017560687847435
-0.0065011298283934
-0.0111123844981193
-0.0153566636145114
-0.0190407298505306
-0.0220343843102455
-0.0242799781262874
-0.0257827267050743
-0.0265938658267259
-0.0267954003065824
-0.0264853369444608
-0.0257647410035133
-0.024731870740652
-0.0234800111502408
-0.0220910739153623
-0.0206278767436742
-0.0191317144781351
-0.0176242943853139
-0.0161096882075071
-0.0145743982866406
-0.0129918046295642
-0.0113355899229645
-0.009591082111001
-0.0077556539326906
-0.0058343610726296
-0.0038379593752324
-0.0017823982052505
0.0003144657239317
0.0024363063275814
0.0045654508285224
0.0066780978813767
0.0087460298091173
0.0107406787574291
0.0126339821144938
0.0144017171114683
0.0160307679325342
0.0175197441130876
0.018868925049901
0.0200705751776695
0.0211105979979038
0.0219788365066051
0.0226770266890525
0.0232195146381855
0.0236280262470245
0.0239232499152421
0.0241201315075159
0.024230845272541
0.0242691934108734
0.024250978603959
0.0241917483508586
0.0241042971611022
0.0239956732839345
0.0238581858575344
0.0236520208418369
0.0232911761850118
0.0226456094533205
0.0215594582259655
0.019878476858139
0.0174810551106929
0.0143081601709127
0.0103836189955472
0.0058158282190561
0.0007837759330868
-0.0044841426424682
-0.0097370184957981
-0.0147312218323349
-0.0192544572055339
-0.0231404826045036
-0.02628012932837
-0.0286302380263805
-0.0302112512290477
-0.0310914721339941
-0.031368538737297
-0.0311540029942989
-0.030560590326786
-0.0296931117773056
-0.028641952201724
-0.0274785440415143
-0.0262553878128528
-0.0250074211508035
-0.0237505361437797
-0.0224810652434825
-0.0211788825690746
-0.019811725243926
-0.0183427669107913
-0.016742879524827
-0.014998790808022
-0.0131112681701779
-0.0110901864245533
-0.0089542288333177
-0.006733002141118
-0.0044645266607403
-0.0021880981512367
6.0820020735263824e-05
0.0022526618558913
0.004366420675069
0.0063900267705321
0.0083152735605835
0.0101347966119647
0.011846212670207
0.0134530048817396
0.0149558093398809
0.0163451470434665
0.0176041387021541
0.0187156330794096
0.0196668226271867
0.0204524733126163
0.0210774764418602
0.0215561129152774
0.0219094194471836
0.0221619624644517
0.0223371796309947
0.0224529094994068
0.0225194953382015
0.0225407388061285
0.0225118249654769
0.0224064011126756
0.0221582688391208
0.021655136719346
0.0207530763000249
0.0193050093948841
0.0171931218355894
0.0143566187471151
0.0108087062835693
0.0066420552320778
0.0020229439251124
-0.0028270706534385
-0.0076583195477724
-0.0122237969189882
-0.016308719292283
-0.0197494588792324
-0.0224377699196338
-0.0243204236030578
-0.0254019759595394
-0.0257431883364915
-0.0254501085728406
-0.0246592387557029
-0.0235212184488773
-0.0221832431852817
-0.0207735486328601
-0.0193903278559446
-0.0180956274271011
-0.016915900632739
-0.0158476363867521
-0.0148635972291231
-0.0139192668721079
-0.0129593359306454
-0.0119229946285486
-0.0107535505667328
-0.0094146206974983
-0.0079009849578142
-0.006235031876713
-0.0044554928317666
-0.0026083649136126
-0.0007411600090563
0.0011025696294382
0.0028886068612337
0.0045942869037389
0.006205300334841
0.0077106957323849
0.0091014746576547
0.0103724263608455
0.0115254186093807
0.012573686428368
0.0135398292914032
0.0144435381516814
0.0152914142236113
0.0160780474543571
0.0167922936379909
0.0174220446497201
0.0179566740989685
0.0183876119554042
0.018704742193222
0.0188871063292026
0.018891979008913
0.0186466556042432
0.0180465448647737
0.0169663522392511
0.0152883799746632
0.0129407113417983
0.0099241603165864
0.0063127973116934
0.0022383364848792
-0.0021264879032969
-0.0065838019363582
-0.0109282433986663
-0.0149655062705278
-0.0185289457440376
-0.0214917510747909
-0.0237719379365444
-0.025331949815154
-0.0261777155101299
-0.0263552851974964
-0.0259421747177839
-0.0250367745757102
-0.0237481240183115
-0.0221876185387372
-0.0204658713191747
-0.0186889953911304
-0.0169473551213741
-0.0153038008138537
-0.0137888016179203
-0.0124003579840064
-0.0111078657209873
-0.0098619414493441
-0.0086066899821162
-0.0072877202183008
-0.0058573177084326
-0.0042825695127248
-0.0025528813712298
-0.0006778994575142
0.0013223374262452
0.0034200926311314
0.0055707204155623
0.0077090859413146
0.0097621567547321
0.0116670904681086
0.0133830793201923
0.0148929730057716
0.0161981806159019
0.0173122622072696
0.0182545706629753
0.0190473664551973
0.0197170972824096
0.0202925223857164
0.0207983776926994
0.0212524961680173
0.0216698255389928
0.0220650900155305
0.0224470105022192
0.0228099953383207
0.0231318827718496
0.0233785137534141
0.0235093310475349
0.0234764423221349
0.0232161208987236
0.0226418245583772
0.0216463580727577
0.0201128274202346
0.017934862524271
0.015044854953885
0.0114388009533286
0.0071888328529894
0.0024439068511128
-0.0025852411054074
-0.0076589817181229
-0.0125461388379335
-0.0170499272644519
-0.0210196413099765
-0.0243534501641988
-0.0269950106739997
-0.0289263613522052
-0.0301628317683935
-0.0307514537125825
-0.0307675600051879
-0.0303052440285682
-0.0294653438031673
-0.0283470544964075
-0.0270412191748619
-0.0256201084703207
-0.0241310279816389
-0.0226030349731445
-0.0210560616105794
-0.019500907510519
-0.0179357156157493
-0.0163458008319139
-0.0147079108282923
-0.0129972137510776
-0.01119399163872
-0.0092881312593817
-0.0072802552022039
-0.0051800971850752
-0.0030048256739974
-0.0007785027846693
0.0014690952375531
0.0037063187919557
0.0059025683440268
0.008025137707591
0.0100345509126782
0.0118873361498117
0.0135471262037754
0.0149959661066532
0.0162360072135925
0.0172821059823036
0.0181554611772298
0.0188815593719482
0.0194880701601505
0.0200019292533397
0.020446291193366
0.0208374019712209
0.0211851168423891
0.0214983243495225
0.0217863768339157
0.0220511257648468
0.0222799964249134
0.0224478412419557
0.0225191507488489
0.0224428921937942
0.0221450589597225
0.0215266942977905
0.0204712487757205
0.018863245844841
0.0166134778410196
0.0136805893853306
0.0100859589874744
0.0059225326403975
0.0013541160151362
-0.0033981972374022
-0.0080850087106227
-0.0124690774828195
-0.0163593422621488
-0.0196241214871406
-0.0221869274973869
-0.024016810581088
-0.0251221358776092
-0.0255485381931066
-0.0253763329237699
-0.0247134044766426
-0.0236837025731802
-0.0224144794046878
-0.0210243910551071
-0.0196131374686956
-0.0182528495788574
-0.0169821679592132
-0.0158083792775869
-0.0147189833223819
-0.0136909326538443
-0.0126911764964461
-0.0116787683218717
-0.0106122810393571
-0.0094546861946582
-0.008176471106708
-0.0067619122564792
-0.0052136704325675
-0.0035507455468177
-0.0018031448125839
-7.745809853076935e-06
0.0017941470723599
0.0035613519139587
0.0052608335390686
0.006870811805129
0.008375447243452
0.0097601003944873
0.0110111879184842
0.0121190287172794
0.0130827045068144
0.0139114540070295
0.0146203227341175
0.0152258062735199
0.0157438367605209
0.016187684610486
0.0165665559470653
0.0168868657201528
0.0171532649546861
0.0173656567931175
0.0175137259066104
0.0175678636878728
0.01746267080307
0.017085637897253
0.0162892062216997
0.0149230379611253
0.012870218604803
0.0100756622850894
0.0065624457783997
0.0024369163438677
-0.0021182899363338
-0.0068667619489133
-0.0115523878484964
-0.0159334260970354
-0.0198083333671093
-0.023028515279293
-0.0254977531731128
-0.0271704085171222
-0.0280565805733203
-0.0282240360975265
-0.0277878101915121
-0.0268901120871305
-0.0256768632680177
-0.0242782700806856
-0.0227989070117473
-0.0213160850107669
-0.0198797807097435
-0.018511414527893
-0.0172049719840288
-0.0159310437738895
-0.0146426670253276
-0.0132833421230316
-0.0117950299754738
-0.0101283621042966
-0.0082580465823411
-0.0061924355104565
-0.0039683422073721
-0.001639312133193
0.0007339352741837
0.0030924272723495
0.0053874291479587
0.0075839553028345
0.0096595641225576
0.0116007653996348
0.0133987385779619
0.0150488018989562
0.0165529530495405
0.0179193150252103
0.0191587395966053
0.0202813297510147
0.0212927758693695
0.022192470729351
0.0229748915880918
0.023634385317564
0.0241715535521507
0.0245944038033485
0.0249131061136722
0.0251367464661598
0.0252733454108238
0.0253268964588642
0.0252927727997303
0.0251533910632133
0.0248701907694339
0.0243748221546411
0.0235681422054767
0.0223281476646661
0.020525723695755
0.0180505625903606
0.0148424003273248
0.0109156826511025
0.0063686477951705
0.0013740784488618
-0.0038432134315371
-0.0090352622792124
-0.0139618050307035
-0.0184169579297304
-0.0222462117671966
-0.0253527238965034
-0.0276939012110233
-0.0292702987790107
-0.030113460496068
-0.0302838161587715
-0.0298765636980533
-0.0290173795074224
-0.0278441999107599
-0.0264879688620567
-0.025058539584279
-0.0236357580870389
-0.0222658477723598
-0.0209620874375104
-0.0197093058377504
-0.0184718240052461
-0.0172027312219142
-0.0158523432910442
-0.0143756875768303
-0.0127375479787588
-0.0109140761196613
-0.0088960863649845
-0.0066965860314667
-0.0043551404960453
-0.0019315062090754
0.0005084304139018
0.0029040072113275
0.0052031027153134
0.0073619741015136
0.0093482341617345
0.0111454939469695
0.0127536859363317
0.0141855711117386
0.0154625177383422
0.016609588637948
0.0176525991410017
0.0186182707548141
0.0195299424231052
0.0203981455415487
0.021216794848442
0.0219679679721593
0.0226299092173576
0.0231840498745441
0.0236195754259824
0.0239358637481927
0.0241408646106719
0.0242431685328483
0.0242385510355234
0.0240944102406501
0.0237400028854608
0.0230695400387048
0.0219579227268695
0.02028632722795
0.0179695039987564
0.0149731328710913
0.0113219693303108
0.0071055809967219
0.0024779932573437
-0.0023551709018647
-0.0071605932898819
-0.0117065347731113
-0.0157904513180255
-0.0192573349922895
-0.0220067016780376
-0.0239925608038902
-0.0252202898263931
-0.0257415324449539
-0.0256440956145524
-0.0250353496521711
-0.0240294747054576
-0.0227451156824827
-0.0213021859526634
-0.0198099557310342
-0.0183531865477561
-0.0169831477105617
-0.0157150961458683
-0.0145316952839493
-0.0133922779932618
-0.0122467894107103
-0.0110483551397919
-0.0097606806084513
-0.0083638038486242
-0.0068619078956544
-0.0052881804294884
-0.003699286840856
-0.002166042337194
-0.0007681045681238
0.0004149021115154
0.0013189972378313
0.0019081119680777
0.0021758894436061
0.0021378404926508
0.0018216780154034
0.0012662601657211
0.0005286796949803
-0.0003113904967904
-0.0011548516340553
-0.0018894113600254
-0.0023952713236212
-0.0025505330413579
-0.0022390629164874
-0.001364218071103
0.0001334436237812
0.002262070775032
0.00497229071334
0.0081548672169446
0.0116375163197517
0.0151860043406486
0.0185199417173862
0.0213434156030416
0.0233804248273372
0.0244100838899612
0.0243002101778984
0.0230294428765773
0.0206886045634746
0.0174659006297588
0.0136239621788263
0.0094658387824893
0.0052896733395755
0.0013495379826053
-0.002162339631468
-0.0051160831935703
-0.0074398326687514
-0.0091173937544226
-0.0101836798712611
-0.0107134198769927
-0.0108074564486742
-0.0105814766138792
-0.0101562198251485
-0.0096447030082345
-0.0091376211494207
-0.0086932741105556
-0.0083315568044781
-0.0080331852659583
-0.007751144003123
-0.0074295797385275
-0.007018145173788
-0.0064780409447848
-0.0057826237753033
-0.0049163373187184
-0.0038748858496546
-0.0026665809564292
-0.0013112742453813
0.0001636478118598
0.0017261293251067
0.003339901799336
0.0049660564400255
0.0065696015954017
0.0081279566511511
0.009630462154746
0.0110663147643208
0.0124152880162
0.0136519819498062
0.0147561058402061
0.0157179292291402
0.0165373310446739
0.0172209907323122
0.0177817940711975
0.0182388592511415
0.0186146087944507
0.018929723650217
0.0191988665610551
0.0194286629557609
0.0196193326264619
0.0197686832398176
0.0198704190552234
0.0199017170816659
0.0198077838867902
0.0194942560046911
0.0188315771520137
0.0176702365279197
0.0158656723797321
0.0133098596706986
0.0099597079679369
0.0058532617986202
0.0011116918176412
-0.0040732342749834
-0.0094631602987647
-0.0148016456514596
-0.0198418777436018
-0.024369791150093
-0.0282226521521806
-0.0313031673431396
-0.0335821285843849
-0.0350885018706321
-0.0358950421214103
-0.0361023619771003
-0.0358232930302619
-0.0351722575724124
-0.0342575758695602
-0.0331726670265197
-0.0319899842143058
-0.0307601746171712
-0.0295122563838958
-0.0282534733414649
-0.0269701294600963
-0.0256298817694187
-0.024189980700612
-0.022612189874053
-0.0208746008574962
-0.0189750008285045
-0.0169290862977504
-0.0147658223286271
-0.0125205880030989
-0.0102281458675861
-0.0079188914969563
-0.0056184893473982
-0.0033489349298179
-0.0011301259510219
0.0010202744742855
0.0030876642558723
0.0050606941804289
0.0069342255592346
0.0087110586464405
0.0103952707722783
0.0119834318757057
0.013463020324707
0.014817789196968
0.016034934669733
0.0171107891947031
0.0180546399205923
0.018887722864747
0.0196354575455188
0.0203190296888351
0.0209515951573848
0.0215374939143657
0.0220723580569028
0.022541232407093
0.0229095108807086
0.0231076870113611
0.0230211056768894
0.0224994458258152
0.0213901475071907
0.0195794627070426
0.0170228481292724
0.0137604940682649
0.0099158687517046
0.0056779729202389
0.0012763075064867
-0.0030463829170912
-0.0070617850869894
-0.0105788502842187
-0.0134591050446033
-0.0156223820522427
-0.0170409828424453
-0.017732074484229
-0.0177574101835489
-0.0172219276428222
-0.0162632353603839
-0.0150332134217023
-0.0136758536100387
-0.0123102497309446
-0.0110230818390846
-0.0098656667396426
-0.0088534690439701
-0.0079698506742715
-0.0071732476353645
-0.0064057270064949
-0.0056017190217971
-0.0046978159807622
-0.0036435923539102
-0.0024104146286845
-0.0009970911778509
0.0005686082877218
0.0022357262205332
0.0039430074393749
0.0056319632567465
0.0072531080804765
0.0087674036622047
0.0101482169702649
0.0113822445273399
0.012467042542994
0.0134077491238713
0.014214807190001
0.0149024333804845
0.0154876895248889
0.0159891601651906
0.0164232514798641
0.0167990867048501
0.0171161703765392
0.0173661652952432
0.0175369717180728
0.0176170077174901
0.0175991095602512
0.0174837727099657
0.0172781385481357
0.0169876608997583
0.0166016090661287
0.0160774588584899
0.0153319481760263
0.0142460074275732
0.0126866120845079
0.0105398576706647
0.0077405525371432
0.0042890468612313
0.0002575106918811
-0.0042142025195062
-0.0089344028383493
-0.0136825712397694
-0.0182351544499397
-0.0223899036645889
-0.0259834006428718
-0.0289009418338537
-0.0310809258371591
-0.0325142219662666
-0.0332383811473846
-0.0333270207047462
-0.0328746996819973
-0.0319804437458515
-0.0307387840002775
-0.0292418356984853
-0.0275822523981332
-0.0258473791182041
-0.0241074189543724
-0.0224057156592607
-0.0207560285925865
-0.0191461406648159
-0.0175445787608623
-0.0159088503569364
-0.014194568619132
-0.0123644955456256
-0.0103965001180768
-0.0082878358662128
-0.0060524716973304
-0.0037136171013116
-0.0013008210808038
0.0011455779895186
0.0035746898502111
0.0059354952536523
0.0081865638494491
0.0102977510541677
0.012248515151441
0.0140287317335605
0.0156406313180923
0.0170969422906637
0.0184159558266401
0.0196175314486026
0.0207202862948179
0.0217375755310058
0.0226749256253242
0.0235350616276264
0.0243233647197484
0.0250425171107053
0.0256857387721538
0.0262403730303049
0.026695542037487
0.027043892070651
0.027274677529931
0.0273618437349796
0.0272521190345287
0.0268580000847578
0.0260626412928104
0.0247390139847993
0.0227768495678901
0.0201082304120063
0.0167277790606021
0.0127059575170278
0.0081869876012206
0.0033659858163446
-0.0015418832190334
-0.0063251880928874
-0.0107929380610585
-0.0147890821099281
-0.0182024352252483
-0.0209677927196025
-0.0230607222765684
-0.0244912430644035
-0.0252988059073686
-0.0255489218980073
-0.0253287237137556
-0.0247377436608076
-0.0238749533891677
-0.0228284243494272
-0.0216730143874883
-0.0204731784760952
-0.019283989444375
-0.0181472674012184
-0.0170835256576538
-0.0160867571830749
-0.015129268169403
-0.014171976596117
-0.0131720621138811
-0.0120870498940348
-0.0108765233308076
-0.0095023997128009
-0.0079303653910756
-0.0061321039684116
-0.0040850024670362
-0.0017712078988552
0.0008157361298799
0.0036565288901329
0.0066986121237277
0.009863524697721
0.0130593180656433
0.0161886885762214
0.0191536471247673
0.0218603238463401
0.0242249369621276
0.0261779874563217
0.0276627670973539
0.0286300890147686
0.0290368013083934
0.0288525335490703
0.0280713010579347
0.026722252368927
0.0248733479529619
0.0226219613105058
0.0200760886073112
0.0173354912549257
0.0144763588905334
0.0115425502881407
0.0085488026961684
0.0054952828213572
0.0023875194601714
-0.0007439528126269
-0.0038296217098832
-0.0067561394535005
-0.0093723591417074
-0.0115076825022697
-0.0129972510039806
-0.0137059809640049
-0.0135511886328458
-0.0125205367803573
-0.0106752943247556
-0.0081389034166932
-0.0050806328654289
-0.0016985358670353
0.0017990726046264
0.005211167037487
0.0083586294203996
0.011096317321062
0.0133218942210078
0.0149806682020425
0.0160648003220558
0.0166063122451305
0.0166692771017551
0.0163444802165031
0.0157393850386142
0.0149588985368609
0.0140871899202466
0.0131823532283306
0.0122819803655147
0.0114091075956821
0.0105734663084149
0.009772365912795
0.0089951492846012
0.0082294810563325
0.0074661187827587
0.0067009180784225
0.0059346985071897
0.0051711127161979
0.0044155642390251
0.0036777481436729
0.0029707942157983
0.0023022554814815
0.0016653351485729
0.001039445400238
0.0003983434289693
-0.0002821013331413
-0.0010187961161136
-0.0018177051097154
-0.002675050869584
-0.003584811463952
-0.0045483950525522
-0.0055844038724899
-0.0067380163818597
-0.008086510002613
-0.0097350906580686
-0.0117989592254161
-0.0143777206540107
-0.0175347067415714
-0.0212819911539554
-0.0255645383149385
-0.0302513726055622
-0.0351478159427642
-0.0400238521397113
-0.0446423180401325
-0.0487826168537139
-0.0522621795535087
-0.0549518018960952
-0.0567804984748363
-0.0577310174703598
-0.0578298717737197
-0.0571355745196342
-0.0557305365800857
-0.0537198185920715
-0.0512304529547691
-0.0484027825295925
-0.0453749671578407
-0.0422678999602794
-0.0391749441623687
-0.0361560173332691
-0.0332347899675369
-0.0304013099521398
-0.0276217628270387
-0.0248509384691715
-0.0220425352454185
-0.0191569384187459
-0.0161669794470071
-0.013060406781733
-0.0098380455747246
-0.0065122982487082
-0.0031103314831852
0.0003246432170271
0.0037391129881143
0.0070769246667623
0.0102859502658247
0.0133244097232818
0.0161644741892814
0.0187927987426519
0.0212094411253929
0.0234238915145397
0.0254501458257436
0.0273044053465127
0.0290034171193838
0.0305620748549699
0.0319939665496349
0.0333125852048397
0.0345270410180091
0.0356387309730052
0.0366465970873832
0.0375518724322319
0.0383534394204616
0.0390392169356346
0.0395772978663444
0.039904348552227
0.039918016642332
0.0394853055477142
0.0384656116366386
0.0367378443479537
0.0342270545661449
0.0309298299252986
0.0269295424222946
0.022388657554984
0.0175211299210786
0.0125612122938036
0.0077378768473863
0.0032546482980251
-0.000725227408111
-0.004086778499186
-0.0067647537216544
-0.0087401233613491
-0.0100333606824278
-0.0106975911185145
-0.0108129642903804
-0.0104788923636078
-0.0098024234175682
-0.0088858976960182
-0.0078161209821701
-0.0066596120595932
-0.0054682027548551
-0.0042855758219957
-0.0031450577080249
-0.0020640548318624
-0.0010403394699096
-5.001574754714966e-05
0.0009485185146331
0.0020027449354529
0.0031534060835838
0.0044263051822781
0.0058286627754569
0.0073502985760569
0.0089673586189746
0.0106461476534605
0.0123484218493103
0.0140362903475761
0.0156717300415039
0.0172129366546869
0.0186150185763835
0.0198361240327358
0.0208449568599462
0.0216269958764314
0.0221877172589302
0.0225506126880645
0.0227495245635509
0.0228208042681217
0.0228008553385734
0.0227255746722221
0.0226254574954509
0.0225168019533157
0.0223894901573658
0.0221884213387966
0.0217961408197879
0.0210315324366092
0.0196682531386613
0.0174658931791782
0.0142069403082132
0.0097345728427171
0.0039861588738858
-0.0029807705432176
-0.0109752342104911
-0.0196801871061325
-0.0286795049905776
-0.0374962426722049
-0.0456383526325225
-0.0526469089090824
-0.0581372790038585
-0.0618319623172283
-0.0635865628719329
-0.0633980557322502
-0.0613890960812568
-0.0577794313430786
-0.0528557300567626
-0.0469449087977409
-0.0403928384184837
-0.0335439294576644
-0.0267162583768367
-0.0201741643249988
-0.0141060808673501
-0.0086168712005019
-0.0037356670945882
0.0005717258900403
0.00439187977463
0.0078439591452479
0.0110473986715078
0.014095202088356
0.0170460194349288
0.0199272334575653
0.0227405223995447
0.0254677087068557
0.0280747488141059
0.0305161196738481
0.0327424779534339
0.0347090922296047
0.0363810285925865
0.0377339348196983
0.0387540981173515
0.0394412353634834
0.0398102663457393
0.0398802533745765
0.0396498516201972
0.0390833653509616
0.0381252542138099
0.0367317609488964
0.0348991677165031
0.0326767191290855
0.0301636811345815
0.0274968650192022
0.0248287077993154
0.0222930628806352
0.0199688114225864
0.0178566444665193
0.0158753842115402
0.0138804549351334
0.0117014227434992
0.0091813895851373
0.0062063476070761
0.0027281437069177
-0.0012214034795761
-0.0055339569225907
-0.0100435838103294
-0.0145533178001642
-0.0188622493296861
-0.0227867290377616
-0.0261746291071176
-0.0289144273847341
-0.0309402197599411
-0.0322342067956924
-0.0328257903456687
-0.0327840223908424
-0.0322040133178234
-0.0311962086707353
-0.0298832692205905
-0.0283950306475162
-0.0268551707267761
-0.0253658518195152
-0.0239969566464424
-0.0227817296981811
-0.0217168033123016
-0.0207653548568487
-0.0198662132024765
-0.0189484860748052
-0.0179461259394884
-0.0168095678091049
-0.0155130960047245
-0.0140538271516561
-0.0124445287510752
-0.0107125705108046
-0.008908437564969
-0.0071103116497397
-0.0054148980416357
-0.0039175772108137
-0.0026895082555711
-0.0017620958387851
-0.0011258348822593
-0.0007385034114122
-0.0005330620333552
-0.0004239371046423
-0.0003164699301123
-0.0001194011420011
0.0002439897507429
0.0008278600871562
0.0016595176421105
0.0027384031563997
0.0040369960479438
0.0055049993097782
0.0070757349021732
0.0086692404001951
0.0101893618702888
0.0115180239081382
0.0125138675794005
0.0130204865708947
0.0128839388489723
0.0119778383523225
0.0102312890812754
0.0076503232121467
0.004325988702476
0.00042758975178
-0.00381671031937
-0.00814934913069
-0.0123193655163049
-0.0161147788166999
-0.0193793065845966
-0.0220134407281875
-0.0239689797163009
-0.0252404510974884
-0.0258549768477678
-0.0258659701794385
-0.0253502465784549
-0.024403091520071
-0.0231299549341201
-0.0216370820999145
-0.0200226530432701
-0.0183664318174123
-0.0167188812047243
-0.015099249780178
-0.0135048637166619
-0.0119207240641117
-0.0103249670937657
-0.0086942855268716
-0.0070082154124975
-0.0052505191415548
-0.003410174511373
-0.001483897678554
0.0005209697410464
0.0025872765108942
0.0046925996430218
0.0068126390688121
0.0089226057752966
0.0110001480206847
0.0130288582295179
0.014995670877397
0.0168832633644342
0.0186675563454628
0.0203224886208772
0.0218258015811443
0.0231624953448772
0.0243274047970771
0.0253279469907283
0.0261831674724817
0.0269166883081197
0.0275494456291198
0.0280984956771135
0.0285791233181953
0.0290037505328655
0.029378954321146
0.0297041330486536
0.0299625899642705
0.0300998128950595
0.0300091877579689
0.0295431092381477
0.0285403523594141
0.026856955140829
0.0243982747197151
0.0211451109498739
0.0171632710844278
0.0125963073223829
0.0076467217877507
0.0025501730851829
-0.0024514799006283
-0.0071343267336487
-0.0113109173253178
-0.0148406298831105
-0.0176355820149183
-0.0196647122502326
-0.0209522992372512
-0.021569188684225
-0.0216183681041002
-0.0212188698351383
-0.0204925797879695
-0.0195549819618463
-0.0185080654919147
-0.0174341909587383
-0.0163910426199436
-0.0154087673872709
-0.0144912553951144
-0.0136208906769752
-0.0127627560868859
-0.0118670184165239
-0.0108765857294201
-0.009744755923748
-0.0084507726132869
-0.0070000509731471
-0.0054142284207046
-0.0037238029763102
-0.0019661281257867
-0.0001835073344409
0.0015805184375494
0.0032849928829818
0.0048955641686916
0.0063890144228935
0.007755602709949
0.0089969765394926
0.0101229278370738
0.0111498637124896
0.0120955212041735
0.0129689676687121
0.013766742311418
0.0144790587946772
0.0150979701429605
0.0156200397759675
0.0160423964262008
0.0163543056696653
0.016525650396943
0.0164964254945516
0.0161738395690917
0.0154406037181615
0.014176107943058
0.0122877424582839
0.0097404886037111
0.0065730847418308
0.0028960262425243
-0.0011257166042923
-0.0052953418344259
-0.0094062322750687
-0.0132634136825799
-0.0167021304368972
-0.0195987094193696
-0.0218717716634273
-0.0234793983399868
-0.024418344721198
-0.0247226580977439
-0.024458035826683
-0.0237143319100141
-0.022597536444664
-0.0212186649441719
-0.0196805149316787
-0.0180695746093988
-0.0164563413709402
-0.0148963900282979
-0.0134260561317205
-0.0120575772598385
-0.0107791619375348
-0.0095585184171795
-0.0083491830155253
-0.0071008186787366
-0.0057700341567397
-0.0043278560042381
-0.00276332302019
-0.0010833374690264
0.0006898955907672
0.0025230427272617
0.0043790894560515
0.0062235752120614
0.0080216573551297
0.0097325034439563
0.0113131823018193
0.0127287302166223
0.0139584653079509
0.01499705016613
0.0158534552901983
0.016548216342926
0.0171065051108598
0.0175494812428951
0.0178924053907394
0.0181507784873247
0.0183457881212234
0.0185036174952983
0.0186502002179622
0.01879901625216
0.0189304649829864
0.0189746934920549
0.0188089273869991
0.018269158899784
0.0171754322946071
0.0153685603290796
0.0127470288425683
0.0092931501567363
0.005084388423711
0.0002870792523026
-0.0048657725565135
-0.0101046506315469
-0.0151568641886115
-0.0197786223143339
-0.0237757675349712
-0.0270134545862674
-0.0294239800423383
-0.0310076251626014
-0.0318194441497325
-0.0319493450224399
-0.0315036587417125
-0.030591994524002
-0.0293203666806221
-0.0277865678071975
-0.02607480622828
-0.0242514181882143
-0.0223635025322437
-0.0204402897506952
-0.0184960197657346
-0.016531053930521
-0.0145317520946264
-0.0124770728871226
-0.0103517938405275
-0.0081543112173676
-0.0058954451233148
-0.0035953996703028
-0.0012809112668037
0.0010191909968852
0.0032791853882372
0.0054807495325803
0.0076123657636344
0.0096634458750486
0.0116226347163319
0.0134827280417084
0.0152425048872828
0.0169046409428119
0.0184761378914117
0.0199651140719652
0.0213689692318439
0.0226675830781459
0.0238298848271369
0.024824820458889
0.0256306231021881
0.0262423977255821
0.026674335822463
0.0269538909196853
0.0271131433546543
0.0271823797374963
0.0271841119974851
0.0271261855959892
0.026994913816452
0.0267471745610237
0.0263054724782705
0.0255612079054117
0.0243844836950302
0.0226415768265724
0.0202225185930728
0.0170713476836681
0.0132068824023008
0.0087284389883279
0.0038080397062003
-0.0013295793905854
-0.0064372913911938
-0.011278674006462
-0.0156545974314212
-0.0194175578653812
-0.0224745012819767
-0.0247831270098686
-0.0263450667262077
-0.0272005479782819
-0.0274267755448818
-0.0271332804113626
-0.0264490935951471
-0.0255044884979724
-0.024413188919425
-0.0232617240399122
-0.0221077054738998
-0.0209820549935102
-0.0198916904628276
-0.0188232008367776
-0.0177479200065135
-0.0166284888982772
-0.0154253290966153
-0.0140994302928447
-0.0126125961542129
-0.0109330872073769
-0.0090490020811557
-0.0069782747887074
-0.0047662081196904
-0.0024745212867856
-0.0001694515813142
0.0020868727006018
0.0042416616342961
0.006254862062633
0.0081003569066524
0.0097657144069671
0.0112523715943098
0.0125736352056264
0.0137486439198255
0.0147989448159933
0.015751127153635
0.0166361108422279
0.0174797810614109
0.0182940624654293
0.0190763864666223
0.0198151804506778
0.0204957537353038
0.0211038645356893
0.0216273702681064
0.0220547281205654
0.0223666597157716
0.022522835060954
0.022452887147665
0.0220580194145441
0.0212240628898143
0.01984653621912
0.0178590565919876
0.0152483358979225
0.012053214944899
0.0083608850836753
0.0043051224201917
5.828402936458588e-05
-0.0041867867112159
-0.0082389311864972
-0.0119279380887746
-0.0151182319968938
-0.0177166387438774
-0.0196745470166206
-0.0209875311702489
-0.0216941684484481
-0.0218705646693706
-0.0216177776455879
-0.0210442822426557
-0.0202523358166217
-0.0193345099687576
-0.0183719936758279
-0.0174270961433649
-0.0165362544357776
-0.0157103948295116
-0.0149410534650087
-0.0142052061855793
-0.0134673630818724
-0.0126852802932262
-0.0118187628686428
-0.0108357155695557
-0.0097158066928386
-0.0084539307281374
-0.0070608486421406
-0.0055596819147467
-0.0039837067015469
-0.0023761596530675
-0.000785352429375
0.0007440424524247
0.0021774868946522
0.0034931974951177
0.0046806782484054
0.0057365372776985
0.0066617717966437
0.0074622863903641
0.0081501035019755
0.0087423305958509
0.0092575764283537
0.0097118914127349
0.0101187136024236
0.0104940757155418
0.0108569078147411
0.011218924075365
0.0115756373852491
0.0119056664407253
0.0121735977008938
0.0123315174132585
0.0123166386038064
0.0120476596057415
0.0114258583635091
0.0103438571095466
0.0087028099223971
0.0064360797405242
0.0035323454067111
5.0385482609272e-05
-0.0038781948387622
-0.0080607673153281
-0.0122720431536436
-0.0162919145077466
-0.0199360195547342
-0.0230694878846406
-0.0256081130355596
-0.0275136549025774
-0.0287869442254304
-0.0294605139642953
-0.029590094462037
-0.0292447991669178
-0.0284999124705791
-0.0274346657097339
-0.026130374521017
-0.0246654767543077
-0.0231077931821346
-0.0215055420994758
-0.0198858864605426
-0.0182636212557554
-0.0166470147669315
-0.0150351636111736
-0.0134147647768259
-0.0117626646533608
-0.0100528476759791
-0.0082623707130551
-0.0063742399215698
-0.0043792389333248
-0.0022782525047659
-8.375104516744614e-05
0.0021821595728397
0.0044911494478583
0.0068121291697025
0.0091176545247435
0.0113878725096583
0.0136058581992983
0.0157525800168514
