bvp
-0.0022400580346584
-0.0009021703153848
0.000380115583539
0.0015680212527513
0.0026405248790979
0.0035911835730075
0.0044277617707848
0.0051729893311858
0.0058632073923945
0.0065438337624073
0.0072620911523699
0.0080593470484018
0.0089659504592418
0.0099982414394617
0.0111556686460971
0.0124196670949459
0.0137562993913888
0.0151228932663798
0.0164778940379619
0.0177871491760015
0.0190208368003368
0.0201484560966491
0.0211406014859676
0.0219740979373455
0.0226346217095851
0.0231178887188434
0.0234315432608127
0.0235938299447298
0.0236225984990596
0.023514375090599
0.0232246927917003
0.022665387019515
0.021723298355937
0.0202900525182485
0.0182883739471435
0.0156850107014179
0.0124913770705461
0.0087610557675361
0.0045905821025371
0.0001230607740581
-0.0044525973498821
-0.0089125391095876
-0.0130137661471962
-0.016508849337697
-0.0191625989973545
-0.0207750480622053
-0.0212086904793977
-0.0204117409884929
-0.0184292215853929
-0.0153994895517826
-0.0115396305918693
-0.0071274852380156
-0.0024865698069334
0.0020276443101465
0.0060465452261269
0.0092184254899621
0.0112507054582238
0.0119569450616836
0.0112940985709428
0.0093737104907631
0.0064398255199193
0.0028223225381225
-0.0011159364366903
-0.005022813566029
-0.0085853040218353
-0.0115446802228689
-0.0137062203139066
-0.0149486381560564
-0.0152285881340503
-0.0145740872249007
-0.013070298358798
-0.0108439922332763
-0.0080477138981223
-0.0048464224673807
-0.0014087683521211
0.0021016465034335
0.0055383439175784
0.0087864035740494
0.0117762172594666
0.0144926737993955
0.0169773511588573
0.0193203259259462
0.0216385424137115
0.0240428019315004
0.026602417230606
0.0293220467865467
0.0321389883756637
0.0349349193274974
0.0375529080629348
0.0398165248334407
0.041550051420927
0.0425979234278202
0.0428396537899971
0.0421977676451206
0.0406396612524986
0.0381735935807228
0.0348408669233322
0.0307116992771625
0.025887731462717
0.0205021556466817
0.0147101078182458
0.0086759738624095
0.0025667250156402
-0.0034509673714637
-0.0092171858996152
-0.0145894549787044
-0.0194522999227046
-0.0237222984433174
-0.0273502171039581
-0.0303219407796859
-0.0326558575034141
-0.0343968719244003
-0.0356107950210571
-0.0363775417208671
-0.0367814786732196
-0.0369060710072517
-0.03683453053236
-0.0366460084915161
-0.0364060066640377
-0.0361602492630481
-0.0359322950243949
-0.0357229597866535
-0.0355146676301956
-0.0352787151932716
-0.0349811613559722
-0.0345892012119293
-0.0340792015194892
-0.0334417857229709
-0.0326814912259578
-0.031812697649002
-0.030853122472763
-0.0298198293894529
-0.0287328567355871
-0.0276194587349891
-0.0265084542334079
-0.0254178699105978
-0.0243463572114706
-0.0232729744166135
-0.0221634916961193
-0.0209793746471405
-0.0196889750659465
-0.0182802565395832
-0.0167686194181442
-0.0151967080309987
-0.0136304106563329
-0.0121529595926404
-0.0108569851145148
-0.0098391082137823
-0.0091969231143593
-0.0090196235105395
-0.009372878819704
-0.0102855022996664
-0.0117365475744009
-0.0136449020355939
-0.0158720351755619
-0.0182391721755266
-0.0205509457737207
-0.0226188004016876
-0.0242803320288658
-0.0254139639437198
-0.0259466674178838
-0.0258506778627634
-0.0251327436417341
-0.0238271988928318
-0.0219978280365467
-0.0197388753294944
-0.0171662103384733
-0.0144017431885004
-0.0115581080317497
-0.0087287910282611
-0.0059846695512533
-0.0033732485026121
-0.0009189583361148
0.001375462859869
0.0035273768007755
0.0055705849081277
0.0075485799461603
0.0095076896250247
0.0114920455962419
0.0135381631553173
0.0156673062592744
0.0178803876042366
0.0201596990227699
0.0224732272326946
0.0247766710817813
0.0270146653056144
0.0291237886995077
0.0310377404093742
0.032695397734642
0.0340515039861202
0.0350858084857463
0.0358040854334831
0.0362306721508502
0.0364011041820049
0.0363604500889778
0.0361617803573608
0.0358592383563518
0.035499021410942
0.035112515091896
0.0347121842205524
0.0342908315360546
0.0338248424232006
0.0332803949713707
0.0326206162571907
0.0318134687840938
0.0308416672050952
0.0297123659402132
0.028462229296565
0.0271580033004283
0.0258933138102293
0.024777490645647
0.0239131562411785
0.0233681686222553
0.0231558643281459
0.0232309307903051
0.0234962105751037
0.0238152034580707
0.0240286737680435
0.0239747539162635
0.0235100351274013
0.0225294884294271
0.0209841951727867
0.0188919566571712
0.0163368172943592
0.0134603977203369
0.0104489549994468
0.007515410427004
0.0048745372332632
0.0027154060080647
0.0011798853520303
0.0003522606566548
0.0002587991766631
0.0008719357429072
0.0021141229663044
0.003863867605105
0.005969607271254
0.0082676010206341
0.0105937290936708
0.0127880349755287
0.0146983303129673
0.0161857064813375
0.0171331577003002
0.0174572542309761
0.0171161703765392
0.0161091648042202
0.0144727583974599
0.0122790709137916
0.0096341297030448
0.0066711548715829
0.0035381335765123
0.0003850851207971
-0.0026471763849258
-0.0054393522441387
-0.0079051088541746
-0.0099993385374546
-0.0117227965965867
-0.0131222736090421
-0.0142845129594206
-0.0153222763910889
-0.0163587033748626
-0.0175163522362709
-0.0189058594405651
-0.0206090062856674
-0.0226613506674766
-0.0250431075692176
-0.0276809986680746
-0.0304575450718402
-0.0332251004874706
-0.0358242727816104
-0.038104198873043
-0.0399411059916019
-0.0412519574165344
-0.041999377310276
-0.0421885251998901
-0.0418603792786598
-0.0410845726728439
-0.0399527475237846
-0.0385697707533836
-0.037041962146759
-0.0354651398956775
-0.0339130014181137
-0.0324279591441154
-0.0310198329389095
-0.029672872275114
-0.0283558070659637
-0.0270307697355747
-0.0256601795554161
-0.0242123249918222
-0.0226670354604721
-0.0210197009146213
-0.0192796904593706
-0.0174658223986625
-0.0156039074063301
-0.0137240905314683
-0.0118560418486595
-0.0100250300019979
-0.0082494057714939
-0.0065386411733925
-0.0048929303884506
-0.0033050565980374
-0.0017643499886617
-0.0002605223562568
0.001215630560182
0.0026738380547612
0.0041247522458434
0.0055780624970793
0.0070395842194557
0.0085062235593795
0.0099577233195304
0.0113511122763156
0.0126234274357557
0.0136985722929239
0.0144942393526434
0.0149306496605277
0.0149414967745542
0.0144852865487337
0.0135544575750827
0.0121796885505318
0.0104288142174482
0.0084011256694793
0.0062178410589694
0.0040103974752128
0.0019094189628958
3.321561962366104e-05
-0.0015254663303494
-0.0027084788307547
-0.0034930370748043
-0.0038864407688379
-0.0039164274930953
-0.0036200769245624
-0.0030365958809852
-0.002206995151937
-0.0011780122295022
-2.201646566390991e-06
0.001268645748496
0.0025889379903674
0.0039195381104946
0.0052280584350228
0.0064914803951978
0.0076958537101745
0.0088313445448875
0.0098898457363247
0.0108675649389624
0.0117675978690385
0.0126013588160276
0.0133883319795131
0.0141518600285053
0.0149117931723594
0.0156781859695911
0.0164512228220701
0.0172264333814382
0.0179984960705041
0.0187614150345325
0.0195079930126667
0.0202300529927015
0.0209168009459972
0.0215499736368656
0.0221006572246551
0.0225333236157894
0.022815965116024
0.022929023951292
0.0228669364005327
0.0226335376501083
0.0222368240356445
0.0216871052980422
0.0209981705993413
0.0201862826943397
0.0192638710141181
0.0182304643094539
0.0170664358884096
0.0157352816313505
0.0141931297257542
0.0123987523838877
0.0103230169042944
0.0079596079885959
0.0053347907960414
0.002511576982215
-0.0004154194029979
-0.0033320947550237
-0.0061181476339697
-0.0086601059883832
-0.0108633916825056
-0.0126597164198756
-0.0140098994597792
-0.0149068916216492
-0.0153745943680405
-0.0154521381482481
-0.015173397026956
-0.0145600130781531
-0.0136251552030444
-0.0123776821419596
-0.0108260521665215
-0.0089846337214112
-0.0068824947811663
-0.004571980331093
-0.0021330807358026
0.0003309461753815
0.0027070709038525
0.0048886723816394
0.0067898919805884
0.0083572836592793
0.0095756035298109
0.0104664135724306
0.0110800731927156
0.0114809861406683
0.0117318350821733
0.0118845552206039
0.0119774136692285
0.0120312226936221
0.0120426602661609
0.0119813363999128
0.0117955859750509
0.0114260464906692
0.0108247473835945
0.0099729085341095
0.0088881151750683
0.0076199611648917
0.0062419138848781
0.0048432946205139
0.0035160798579454
0.0023351311683654
0.0013432670384645
0.0005497839301824
-6.362423300743103e-05
-0.0005371645092964
-0.000927161425352
-0.0013002883642911
-0.0017306189984083
-0.0022976733744144
-0.0030814874917268
-0.0041544809937477
-0.0055708680301904
-0.0073538850992918
-0.0094828018918633
-0.0118847144767642
-0.0144401909783482
-0.0170053243637084
-0.0194362811744213
-0.0216045267879962
-0.023407245054841
-0.0247762650251388
-0.0256804693490266
-0.0261233188211917
-0.0261426120996475
-0.0258105285465717
-0.025227140635252
-0.0245077162981033
-0.0237680897116661
-0.0231104418635368
-0.0226103533059358
-0.0223061777651309
-0.0221963915973901
-0.022248962894082
-0.022415891289711
-0.0226450152695179
-0.0228856988251209
-0.0230883471667766
-0.023203071206808
-0.0231807120144367
-0.0229747425764799
-0.0225415825843811
-0.0218389369547367
-0.0208279192447662
-0.0194825679063797
-0.0178004689514637
-0.0158090963959693
-0.0135684330016374
-0.0111703090369701
-0.0087332585826516
-0.0063902912661433
-0.0042687482200562
-0.0024680967908352
-0.0010444526560604
-6.876303814351559e-06
0.0006752328481525
0.0010576478671282
0.0012027695775032
0.0011597771663218
0.0009511415846645
0.0005729752592742
6.849411875009537e-06
-0.0007639164105057
-0.0017380304634571
-0.0028860596939921
-0.0041506113484501
-0.0054511055350303
-0.006686320528388
-0.0077388668432831
-0.0084878606721758
-0.0088273212313652
-0.0086830919608473
-0.0080229779705405
-0.0068602170795202
-0.0052522178739309
-0.0032926574349403
-0.0010979548096656
0.0012063235044479
0.0034987591207027
0.0056772474199533
0.0076706809923052
0.0094405114650726
0.0109753319993615
0.0122850639745593
0.0133955301716923
0.0143420342355966
0.015162912197411
0.0158937834203243
0.016562134027481
0.0171846076846122
0.0177700612694025
0.0183259770274162
0.0188616085797548
0.0193856302648782
0.0199050493538379
0.0204287022352218
0.020966513082385
0.0215207673609256
0.0220803190022707
0.0226249508559703
0.023133598268032
0.0235885214060544
0.0239757560193538
0.0242855604737997
0.0245118979364633
0.0246494822204113
0.0246899612247943
0.0246175844222307
0.0244061034172773
0.0240213051438331
0.0234291683882474
0.022603940218687
0.0215302184224128
0.020199604332447
0.0186083279550075
0.0167543049901723
0.0146268410608172
0.0121999066323041
0.0094457790255546
0.0063620782457292
0.0029934188351035
-0.000560512766242
-0.0041503384709358
-0.0075944261625409
-0.0107035767287015
-0.0133036971092224
-0.0152503084391355
-0.0164368003606796
-0.0168019868433475
-0.0163381844758987
-0.0150934197008609
-0.0131636252626776
-0.0106787979602813
-0.0077871177345514
-0.0046401293948292
-0.001382103189826
0.0018577957525849
0.0049711316823959
0.0078719332814216
0.0104968016967177
0.0128059647977352
0.0147837763652205
0.0164369419217109
0.0177902802824974
0.0188789591193199
0.0197384636849164
0.0203976649791002
0.0208775289356708
0.0211935993283987
0.0213595032691955
0.0213881358504295
0.0212904755026102
0.0210747234523296
0.0207456108182668
0.0203025750815868
0.0197373833507299
0.019032172858715
0.018160130828619
0.0170929599553346
0.0158118177205324
0.014308382757008
0.012575389817357
0.0106029901653528
0.0083885407075285
0.0059531610459089
0.0033590365201234
0.0007232576608657
-0.0017801206558942
-0.0039366241544485
-0.0055229403078556
-0.0063427723944187
-0.0062587819993495
-0.0052194446325302
-0.0032812524586915
-0.0006207581609487
0.0024734809994697
0.0056319627910852
0.008450835943222
0.0105473008006811
0.0116175357252359
0.0114832930266857
0.0101122036576271
0.0076078251004219
0.0041789561510086
9.903311729431152e-05
-0.0043380931019783
-0.0088563114404678
-0.0132209509611129
-0.0172505341470241
-0.02082328684628
-0.0238770507276058
-0.0263974629342556
-0.028403416275978
-0.0299421548843383
-0.0310867242515087
-0.0319244116544723
-0.0325390435755252
-0.0329964086413383
-0.0333366766571998
-0.0335728302597999
-0.0336971841752529
-0.0336943231523036
-0.0335509739816188
-0.0332595221698284
-0.0328183658421039
-0.0322309806942939
-0.031504888087511
-0.0306503120809793
-0.0296800192445516
-0.0286126155406236
-0.0274746902287006
-0.0262981485575437
-0.0251158289611339
-0.0239573270082473
-0.02284487336874
-0.0217905007302761
-0.0207960084080696
-0.0198547672480344
-0.0189541634172201
-0.0180813148617744
-0.0172317530959844
-0.0164151974022388
-0.0156553275883197
-0.0149858864024281
-0.0144490301609039
-0.0140971029177308
-0.0139890350401401
-0.0141761526465415
-0.0146854314953088
-0.0155087271705269
-0.0165975447744131
-0.0178642682731151
-0.0191936828196048
-0.020459720864892
-0.0215395297855138
-0.0223250295966863
-0.0227332133799791
-0.0227134358137846
-0.022250322625041
-0.0213614702224731
-0.0200931876897811
-0.0185176953673362
-0.0167266614735126
-0.014816740527749
-0.0128727573901414
-0.0109566617757081
-0.0091055687516927
-0.0073352279141545
-0.0056423544883728
-0.0040068626403808
-0.0023983716964721
-0.0007841121405363
0.0008654277771711
0.0025722254067659
0.0043491777032613
0.0062022283673286
0.008129296824336
0.0101140290498733
0.012124540284276
0.0141210658475756
0.0160648003220558
0.0179229285567998
0.0196711886674165
0.0212949216365814
0.02278858050704
0.0241544209420681
0.0254004597663879
0.0265375263988971
0.0275756828486919
0.0285203605890274
0.0293711461126804
0.0301240961998701
0.0307695362716913
0.0312809906899929
0.0316065736114978
0.0316740907728672
0.0314064770936965
0.0307391639798879
0.0296349432319402
0.0280928909778594
0.0261494927108287
0.0238749887794256
0.0213680956512689
0.018748503178358
0.0161453895270824
0.0136833097785711
0.0114713255316019
0.0095970686525106
0.0081200860440731
0.0070653557777404
0.0064237285405397
0.0061585754156112
0.0062157399952411
0.0065345503389835
0.0070535521954298
0.0077112670987844
0.0084491465240716
0.0092161260545253
0.0099710002541542
0.0106846764683723
0.0113432444632053
0.0119482297450304
0.0125134289264678
0.0130602736026048
0.0136108500882983
0.0141792437061667
0.0147670591250061
0.0153660308569669
0.0159627087414264
0.0165414493530988
0.0170873813331127
0.0175891853868961
0.0180397797375917
0.0184351857751607
0.0187723953276872
0.01904783770442
0.019257940351963
0.0193999335169792
0.0194726940244436
0.0194796919822692
0.019429076462984
0.0193265154957771
0.0191680379211902
0.0189404319971799
0.0186270419508218
0.0182130299508571
0.0176856778562068
0.017028659582138
0.0162154026329517
0.0152082331478595
0.0139639005064964
0.0124409329146146
0.0106056993827223
0.0084386141970753
0.0059415772557258
0.0031444653868675
0.0001087202690541
-0.0030717095360159
-0.0062712356448173
-0.009336944669485
-0.0120992325246334
-0.0143900290131568
-0.0160668604075908
-0.0170358810573816
-0.0172663927078247
-0.0167952179908752
-0.0157213304191827
-0.0141926677897572
-0.0123901832848787
-0.0105104269459843
-0.0087444316595792
-0.0072541679255664
-0.0061560170724987
-0.0055194953456521
-0.0053720399737358
-0.0056992135941982
-0.006446017883718
-0.0075240796431899
-0.0088213440030813
-0.0102148260921239
-0.0115868160501122
-0.0128383412957191
-0.0138959754258394
-0.0147136747837066
-0.0152715519070625
-0.0155719723552465
-0.0156333111226558
-0.0154837789013981
-0.0151587454602122
-0.0147012751549482
-0.0141609385609626
-0.0135872894898056
-0.0130214029923081
-0.0124910362064838
-0.0120091792196035
-0.0115748094394803
-0.0111772147938609
-0.0108010992407798
-0.0104285338893532
-0.0100403390824794
-0.0096210902556777
-0.0091658327728509
-0.0086817238479852
-0.0081834755837917
-0.0076912259683012
-0.0072357412427663
-0.0068635288625955
-0.0066348584368824
-0.0066160066053271
-0.0068690292537212
-0.0074429158121347
-0.0083674807101488
-0.0096473498269915
-0.0112557522952556
-0.0131311165168881
-0.0151805998757481
-0.0172904524952173
-0.0193373523652553
-0.0211977623403072
-0.0227574296295642
-0.0239228215068578
-0.0246297214180231
-0.0248427670449018
-0.0245505701750516
-0.0237620361149311
-0.0225024800747632
-0.0208109319210052
-0.0187405087053775
-0.016358770430088
-0.0137461069971323
-0.0109937908127903
-0.0082012517377734
-0.0054697035811841
-0.0028931440319865
-0.0005478542298078
0.0015185168012976
0.0032904013060033
0.0047768326476216
0.0060014966875314
0.0069973561912775
0.0078038815408945
0.0084636351093649
0.0090198032557964
0.0095145404338836
0.009984616190195
0.0104564931243658
0.0109453573822975
0.0114566646516323
0.0119870398193597
0.012526212260127
0.0130617693066596
0.0135826328769326
0.0140770459547638
0.0145287178456783
0.0149179827421903
0.0152265233919024
0.0154396146535873
0.0155449854210019
0.0155298560857772
0.0153773538768291
0.0150626432150602
0.014546844176948
0.0137682035565376
0.0126371765509247
0.0110473148524761
0.0089040240272879
0.0061597968451678
0.0028447501827031
-0.0009188018739223
-0.0049262112006545
-0.0089174499735236
-0.0126069020479917
-0.0157096907496452
-0.0179667267948389
-0.0191696025431156
-0.0191802978515625
-0.0179435927420854
-0.0154955517500638
-0.0119682233780622
-0.0075856111943721
-0.002647983841598
0.0024955556727945
0.0074858195148408
0.0119964415207505
0.0157678835093975
0.0186258889734745
0.0204874686896801
0.0213593542575836
0.0213299412280321
0.0205527134239673
0.0192213300615549
0.0175428949296474
0.0157161876559257
0.0139149967581033
0.0122758951038122
0.0108920969069004
0.0098131485283374
0.0090491976588964
0.0085796685889363
0.0083647891879081
0.0083540538325905
0.0084881661459803
0.008700598962605
0.0089242337271571
0.0091008208692073
0.0091877905651927
0.0091588338837027
0.0090009104460477
0.0087102698162198
0.0082857646048069
0.0077209519222378
0.0069995168596506
0.0060949134640395
0.0049721337854862
0.0035919374786317
0.001919753383845
-6.391387432813644e-05
-0.0023578281980007
-0.0049382769502699
-0.0077560539357364
-0.0107333958148956
-0.013767572119832
-0.0167419500648975
-0.0195381697267293
-0.0220461804419755
-0.0241729207336902
-0.0258494615554809
-0.0270351618528366
-0.0277186743915081
-0.0279175974428653
-0.0276743583381176
-0.0270453169941902
-0.0260912235826253
-0.02487688139081
-0.0234724823385477
-0.0219484362751245
-0.0203664023429155
-0.0187715198844671
-0.017188997939229
-0.0156259052455425
-0.0140761267393827
-0.0125266900286078
-0.0109643097966909
-0.00938037969172
-0.0077734095975756
-0.0061490973457694
-0.004518368281424
-0.0028940746560692
-0.0012900168076157
0.000274428166449
0.0017703715711832
0.003165322355926
0.0044342409819364
0.0055643250234425
0.0065536960028111
0.0074095069430768
0.008146371692419
0.0087861036881804
0.0093584489077329
0.0098981224000453
0.0104370173066854
0.0109966555610299
0.0115843899548053
0.012193557806313
0.0128033990040421
0.0133733432739973
0.0138375526294112
0.0141098629683256
0.0140975518152117
0.0137172983959317
0.0129111083224415
0.0116595532745122
0.0099892374128103
0.007973913103342
0.0057272743433713
0.0033874325454235
0.0010988898575305
-0.0010020900517702
-0.0027973745018243
-0.0041940873488783
-0.005131596699357
-0.0055881291627883
-0.0055819936096668
-0.0051647117361426
-0.0044094705954194
-0.0033994363620877
-0.0022192578762769
-0.0009489636868238
0.000343108549714
0.0016068136319518
0.0028124591335654
0.0039486372843384
0.0050177387893199
0.006032358855009
0.007013976573944
0.0079921074211597
0.0089998543262481
0.0100633380934596
0.0111920554190874
0.0123781124129891
0.0136003531515598
0.0148289902135729
0.0160323120653629
0.0171828959137201
0.0182595029473304
0.0192462392151355
0.0201311893761158
0.020905639976263
0.0215647667646408
0.0221090130507946
0.022545563057065
0.0228899493813514
0.02316390350461
0.0233865659683942
0.0235658083111047
0.0236969571560621
0.0237672850489616
0.0237596202641725
0.023652110248804
0.0234181582927703
0.0230282098054885
0.0224496815353631
0.0216449201107025
0.0205698981881141
0.0191754847764968
0.0174120534211397
0.0152383167296648
0.012635588645935
0.0096183223649859
0.0062306830659508
0.0025375504046678
-0.0013798354193568
-0.0054246662184596
-0.0094831194728612
-0.0134220058098435
-0.0170891508460044
-0.0203178822994232
-0.0229354426264762
-0.0247753951698541
-0.0256950445473194
-0.0255999043583869
-0.0244714431464672
-0.0223862454295158
-0.0195167977362871
-0.0161147098988294
-0.0124828573316335
-0.0089388815686106
-0.0057736122980713
-0.003214243799448
-0.0014002695679664
-0.0003754571080207
-9.606964886188508e-05
-0.0004500169306993
-0.0012796707451343
-0.0024057384580373
-0.0036504175513982
-0.0048577561974525
-0.0059100650250911
-0.006734955124557
-0.0073022888973355
-0.0076194927096366
-0.0077269291505217
-0.0076895952224731
-0.0075868377462029
-0.0075019057840108
-0.0075107114389538
-0.0076709417626261
-0.0080135352909564
-0.0085389669984579
-0.0092200627550482
-0.0100090093910694
-0.0108442492783069
-0.0116549897938966
-0.0123625705018639
-0.0128800282254815
-0.0131148276850581
-0.01298114284873
-0.0124203041195869
-0.0114184077829122
-0.0100155062973499
-0.0083082104101777
-0.0064440406858921
-0.0046059433370828
-0.0029908958822488
-0.0017864238470792
-0.0011468641459941
-0.0011741165071725
-0.0019077379256486
-0.0033233556896448
-0.0053365975618362
-0.0078111328184604
-0.0105705223977565
-0.013417131267488
-0.0161578115075826
-0.0186258051544427
-0.0206923782825469
-0.0222719274461269
-0.0233234949409961
-0.0238482449203729
-0.0238830186426639
-0.023492231965065
-0.0227589905261993
-0.0217737108469009
-0.0206226110458374
-0.0193806272000074
-0.0181068480014801
-0.0168381854891777
-0.0155849894508719
-0.0143370777368545
-0.0130789559334516
-0.0118018127977848
-0.0105060152709484
-0.0091982679441571
-0.0078874472528696
-0.0065816780552268
-0.005287985317409
-0.0040120701305568
-0.002756985835731
-0.0015237203333526
-0.0003137278254143
0.0008697566809132
0.0020217990968376
0.0031385025940835
0.0042223194614052
0.0052814781665802
0.0063207033090293
0.0073346341960132
0.0083103217184543
0.0092323422431945
0.0100862141698598
0.0108614284545183
0.0115536451339721
0.0121650490909814
0.0127031467854976
0.0131759271025657
0.0135832242667675
0.0139113068580627
0.0141343269497156
0.0142184048891067
0.0141258295625448
0.0138181298971176
0.0132586099207401
0.0124191865324974
0.0112913604825735
0.0098945936188101
0.0082779750227928
0.0065165655687451
0.0047045666724443
0.0029449521098285
0.0013359845615923
-4.1740480810403824e-05
-0.0011342777870595
-0.0019181417301297
-0.0023993914946913
-0.0026084138080477
-0.0025909859687089
-0.0024006161838769
-0.0020961137488484
-0.0017393371090292
-0.0013885609805583
-0.0010910714045166
-0.000877940095961
-0.0007598120719194
-0.0007251687347888
-0.0007439022883772
-0.0007745949551463
-0.0007724026218056
-0.0006961589679121
-0.0005132732912898
-0.0002020932734012
0.0002485094591975
0.0008419174700975
0.0015731155872344
0.0024232352152466
0.003357539884746
0.0043303277343511
0.005293658003211
0.0062070237472653
0.0070442734286189
0.0077949119731783
0.0084609892219305
0.0090530719608068
0.0095872962847352
0.0100836716592311
0.0105639696121215
0.0110463267192244
0.0115391677245497
0.0120396483689546
0.0125315729528665
0.0129775879904627
0.0133156329393386
0.0134663358330726
0.0133452750742435
0.0128762330859899
0.012002907693386
0.0106983408331871
0.0089750150218606
0.0068915458396077
0.0045497543178498
0.0020826309919357
-0.0003636945039033
-0.0026478385552763
-0.0046441536396741
-0.0062492117285728
-0.0073915757238864
-0.0080432100221514
-0.0082231052219867
-0.0079899281263351
-0.0074272993952035
-0.0066276006400585
-0.0056800236925482
-0.0046633454039692
-0.0036414479836821
-0.0026613986119627
-0.0017533255741
-0.0009309407323598
-0.0001922082155942
0.0004793973639607
0.0011131754145026
0.0017503844574093
0.002439240925014
0.003220931161195
0.0041172131896018
0.0051280311308801
0.0062334919348359
0.0073975985869765
0.0085756918415427
0.0097230272367596
0.0108000105246901
0.011774344369769
0.0126232411712408
0.0133352195844054
0.0139100076630711
0.0143563514575362
0.0146891204640269
0.014928706921637
0.0150982774794101
0.0152140399441123
0.0152774453163146
0.015277536585927
0.0151993250474333
0.0150309186428785
0.0147647447884082
0.0143928499892354
0.0139009468257427
0.0132650285959243
0.0124501688405871
0.0114124938845634
0.0101069482043385
0.008497305214405
0.0065638129599392
0.004309868440032
0.0017669913358986
-0.0010057012550532
-0.0039265407249331
-0.0068981191143393
-0.0098149674013257
-0.0125724747776985
-0.0150767602026462
-0.0172531530261039
-0.0190523210912942
-0.020453218370676
-0.0214610192924737
-0.0221024416387081
-0.0224227085709571
-0.0224830955266952
-0.0223543383181095
-0.0221055336296558
-0.0217958074063062
-0.0214710906147956
-0.0211580973118543
-0.0208549406379461
-0.0205259695649147
-0.0201045423746109
-0.0195044334977865
-0.0186356976628303
-0.0174174923449754
-0.0157861523330211
-0.0137026794254779
-0.0111615397036075
-0.0081971334293484
-0.0048850364983081
-0.0013382744509726
0.0023019248619675
0.0058794599026441
0.0092362072318792
0.0122244842350482
0.0147233633324503
0.0166556295007467
0.0179954972118139
0.0187640003859996
0.0190185643732547
0.0188433192670345
0.018339991569519
0.0176166761666536
0.0167759917676448
0.0159039739519357
0.0150606166571378
0.014277284964919
0.013560963794589
0.0128959091380238
0.0122402096167206
0.0115266218781471
0.0106725851073861
0.0095937838777899
0.0082165785133838
0.0064902771264314
0.0043988395482301
0.0019689016044139
-0.0007289042696356
-0.0035871500149369
-0.0064747924916446
-0.0092525873333215
-0.0117895510047674
-0.0139770880341529
-0.0157365016639232
-0.0170224793255329
-0.0178269445896148
-0.0181800443679094
-0.018145153298974
-0.0178090445697307
-0.0172673240303993
-0.0166096184402704
-0.0159108079969882
-0.0152268838137388
-0.0145920496433973
-0.0140174459666013
-0.013493213802576
-0.0129935834556818
-0.012483324855566
-0.0119233280420303
-0.0112744476646184
-0.0105052199214696
-0.0096037313342094
-0.0085820537060499
-0.0074709104374051
-0.0063128136098384
-0.0051552983932197
-0.0040440685115754
-0.0030200346373021
-0.0021195691078901
-0.0013730817008763
-0.0008007595315575
-0.0004089744761586
-0.000191336730495
-0.0001325423363596
-0.0002090164925903
-0.0003862029407173
-0.0006201314972713
-0.0008681827457621
-0.0011026532156392
-0.0013174565974622
-0.001527642016299
-0.0017664574552327
-0.0020808796398341
-0.0025248946622014
-0.0031510947737842
-0.004001316614449
-0.0050973673351109
-0.0064337332732975
-0.0079738087952137
-0.0096504744142293
-0.0113701364025473
-0.0130198784172534
-0.0144815221428871
-0.0156506709754467
-0.016449986025691
-0.0168315526098012
-0.0167733374983072
-0.0162768475711345
-0.015367055311799
-0.014090378768742
-0.0125085916370153
-0.0106905903667211
-0.0087057333439588
-0.0066212248057127
-0.0045027183368802
-0.0024133715778589
-0.0004069339483976
0.0014808634296059
0.0032327901571989
0.0048431735485792
0.0063141146674752
0.0076566627249121
0.0088895866647362
0.0100348899140954
0.0111152529716491
0.0121529232710599
0.013165520504117
0.0141602531075477
0.0151319317519664
0.0160650797188282
0.0169377829879522
0.0177272818982601
0.0184169318526983
0.0190027132630348
0.0194940641522407
0.0199051592499017
0.0202446170151233
0.0205133464187383
0.0207089520990848
0.0208302102982997
0.0208786968141794
0.0208586826920509
0.0207749120891094
0.0206272900104522
0.0204055793583393
0.0200859550386667
0.0196293275803327
0.018983356654644
0.0180901885032653
0.0168996974825859
0.0153828514739871
0.013538178987801
0.0113921426236629
0.008999197743833
0.0064426357857882
0.0038313502445816
0.0012886701151728
-0.0010634856298565
-0.0031199492514133
-0.0048036659136414
-0.006069560535252
-0.0069025559350848
-0.0073148617520928
-0.0073429187759757
-0.0070408657193183
-0.0064702052623033
-0.0056930622085928
-0.0047735413536429
-0.0037782732397317
-0.0027696061879396
-0.0017955964431166
-0.000882894732058
-3.7175603210926056e-05
0.0007512341253459
0.0015027252957224
0.002243414055556
0.0029979120008647
0.0037835570983588
0.0046087009832262
0.0054745003581047
0.0063775740563869
0.0073110735975205
0.0082629527896642
0.0092128962278366
0.0101328585296869
0.0109922159463167
0.0117630083113908
0.0124235274270176
0.0129617191851139
0.0133770210668444
0.0136786391958594
0.0138819236308336
0.0140043580904603
0.0140614788979291
0.0140646705403923
0.014021779410541
0.0139392260462045
0.0138243930414319
0.0136828040704131
0.0135067887604236
0.0132664814591407
0.0129121011123061
0.0123817399144172
0.0116084963083267
0.010528408922255
0.0090907281264662
0.0072673978284001
0.0050609754398465
0.0025114435702562
-0.0003033122047781
-0.0032759001478552
-0.0062827933579683
-0.009197162464261
-0.0118968114256858
-0.0142727810889482
-0.0162451583892107
-0.0177753195166587
-0.0188640411943197
-0.0195411853492259
-0.0198562052100896
-0.0198723264038562
-0.0196607187390327
-0.019291641190648
-0.0188260972499847
-0.0183122046291828
-0.0177853349596261
-0.0172685757279396
-0.016771325841546
-0.016286926344037
-0.0157927572727203
-0.0152569552883505
-0.0146514372900128
-0.0139623489230871
-0.0131905479356646
-0.012346863746643
-0.0114504285156726
-0.0105279721319675
-0.0096077192574739
-0.0087118670344352
-0.0078543974086642
-0.0070431213825941
-0.0062823807820677
-0.0055745299905538
-0.0049207508563995
-0.0043210098519921
-0.0037705367431044
-0.0032579479739069
-0.0027729580178856
-0.0023163603618741
-0.001899629831314
-0.001535297371447
-0.0012285932898521
-0.0009772945195436
-0.000778367742896
-0.000635240226984
-0.0005618473514914
-0.0005847746506333
-0.0007445374503731
-0.0010920548811554
-0.0016781780868768
-0.0025408547371625
-0.0036945967003703
-0.0051249712705612
-0.0067891217768192
-0.0086196484044194
-0.010530237108469
-0.0124228512868285
-0.014195435680449
-0.0157515835016965
-0.0170130059123039
-0.0179297272115945
-0.0184832587838172
-0.0186844281852245
-0.0185680836439132
-0.018184944987297
-0.017593489959836
-0.0168535057455301
-0.0160195734351873
-0.015137355774641
-0.0142444763332605
-0.0133702494204044
-0.0125332996249198
-0.0117407320067286
-0.0109880175441503
-0.0102586299180984
-0.0095249433070421
-0.0087509639561176
-0.0078974477946758
-0.0069299456663429
-0.0058268429711461
-0.0045838542282581
-0.0032136375084519
-0.0017410330474376
-0.0001963954418897
0.0013892636634409
0.0029840585775673
0.004553310573101
0.0060621718876063
0.0074807894416153
0.0087876040488481
0.009970779530704
0.0110282739624381
0.0119672510772943
0.0128021901473402
0.0135500188916921
0.0142246261239051
0.014833141118288
0.01537293381989
0.0158290304243564
0.0161733943969011
0.0163649152964353
0.0163487754762172
0.0160606317222118
0.0154399517923593
0.0144477505236864
0.0130811147391796
0.0113787129521369
0.0094170942902565
0.0073020495474338
0.0051562688313424
0.0031039798632264
0.0012566205114126
-0.0002963030710816
-0.0014908108860254
-0.0022899098694324
-0.0026843203231692
-0.0026925820857286
-0.0023609967902302
-0.001759517006576
-0.0009713200852274
-8.011702448129654e-05
0.0008418140932917
0.0017430121079087
0.0025962609797716
0.0033961050212383
0.004153381101787
0.0048881536349654
0.005623654462397
0.0063838278874754
0.0071915416046977
0.0080650690943002
0.0090160043910145
0.0100467652082443
0.0111441407352685
0.0122772585600614
0.0134057272225618
0.0144901871681213
0.0154987489804625
0.016408409923315
0.0172028802335262
0.01787069439888
0.0184056051075458
0.0188084226101636
0.0190883446484804
0.0192604176700115
0.0193403176963329
0.0193427540361881
0.0192827489227056
0.0191722884774208
0.019012589007616
0.0187900457531213
0.0184800811111927
0.0180536601692438
0.0174790360033512
0.0167203862220048
0.0157383773475885
0.0144930435344576
0.0129489228129386
0.0110819144174456
0.0088859675452113
0.0063787512481212
0.0036056241951882
0.000641843304038
-0.0024082532618194
-0.005422260146588
-0.0082811275497078
-0.0108869578689336
-0.0131690427660942
-0.0150818172842264
-0.0166005305945873
-0.0177197884768247
-0.0184540227055549
-0.0188346076756715
-0.0189039539545774
-0.0187099687755107
-0.0183019004762172
-0.0177284497767686
-0.0170367248356342
-0.0162681434303522
-0.0154526587575674
-0.0146074006333947
-0.013740736991167
-0.0128568541258573
-0.0119573306292295
-0.0110400915145874
-0.0100980456918478
-0.0091191949322819
-0.0080896001309156
-0.0069990940392017
-0.0058466265909373
-0.0046430476941168
-0.0034108513500541
-0.0021799451205879
-0.0009805602021515
0.0001632999628782
0.0012381263077259
0.0022403597831726
0.003169348463416
0.004020866472274
0.0047868862748146
0.0054579931311309
0.0060260682366788
0.0064875236712396
0.0068449331447482
0.0071067879907786
0.0072872187010943
0.0074037131853401
0.007470900658518
0.0074929380789399
0.0074572386220097
0.0073331044986844
0.0070779481902718
0.0066438354551792
0.0059783635661005
0.0050281332805752
0.0037505244836211
0.0021266574040055
0.0001696497201919
-0.0020707743242383
-0.0045085940510034
-0.007030174601823
-0.0095089431852102
-0.0118204401805996
-0.0138542857021093
-0.0155229251831769
-0.0167690403759479
-0.0175703205168247
-0.0179384164512157
-0.0179140157997608
-0.0175611712038517
-0.0169602576643228
-0.0161997321993112
-0.0153680443763732
-0.0145452711731195
-0.0137939071282744
-0.0131509788334369
-0.0126265063881874
-0.0122089069336652
-0.0118711609393358
-0.0115746520459651
-0.0112736318260431
-0.0109214792028069
-0.0104751419275999
-0.0098972059786319
-0.0091618644073605
-0.0082653751596808
-0.0072311498224735
-0.0061035016551613
-0.0049348138272762
-0.0037741817068308
-0.0026608051266521
-0.0016211756737902
-0.0006690612062811
0.000192442908883
0.0009677628986537
0.0016662458656355
0.0023012564051896
0.0028901463374495
0.0034547103568911
0.0040218629874289
0.0046184919774532
0.0052567017264664
0.0059208287857472
0.0065673599019646
0.0071345567703247
0.0075536193326115
0.0077560152858495
0.0076773245818912
0.0072616087272763
0.0064685679972171
0.0052833463996648
0.0037265331484377
0.0018594863358885
-0.0002189958468079
-0.002383635379374
-0.0044970866292715
-0.0064267190173268
-0.0080634597688913
-0.009335258975625
-0.0102078337222337
-0.0106763709336519
-0.0107568800449371
-0.0104817105457186
-0.009897761978209
-0.0090627316385507
-0.0080381613224744
-0.0068834042176604
-0.0056533720344305
-0.004396853968501
-0.0031513413414359
-0.0019357856363058
-0.0007472112774848
0.0004326431080698
0.0016234330832958
0.0028385892510414
0.0040887044742703
0.0053846156224608
0.0067331651225686
0.0081320768222212
0.0095700519159436
0.0110301310196518
0.0124927144497632
0.0139376362785696
0.0153460893779993
0.0167018435895442
0.0179902408272027
0.0191968753933906
0.0203089602291584
0.0213164128363132
0.0222090277820825
0.0229727439582347
0.0235902331769466
0.0240467693656682
0.0243363957852125
0.0244643352925777
0.0244464352726936
0.0243056043982505
0.0240657683461904
0.0237470269203186
0.0233627688139677
0.0229148119688034
0.0223854985088109
0.0217330157756805
0.0208957362920045
0.0198016669601202
0.0183768030256032
0.0165549907833337
0.0142933670431375
0.0115885501727461
0.008484891615808
0.0050728702917695
0.0014808273408561
-0.0021394772920757
-0.0056314393877983
-0.008850185200572
-0.0116746947169303
-0.0140162156894803
-0.0158230662345886
-0.0170816723257303
-0.0178131572902202
-0.0180681496858596
-0.0179213806986808
-0.0174621008336544
-0.0167821161448955
-0.0159666817635297
-0.0150874853134155
-0.0141963241621851
-0.0133220991119742
-0.0124728186056017
-0.0116398418322205
-0.0108031835407018
-0.0099393166601657
-0.0090280221775174
-0.0080542881041765
-0.0070075169205665
-0.0058806994929909
-0.0046727862209081
-0.0033960274886339
-0.0020790877752006
-0.0007597610820084
0.0005241862963885
0.0017394560854882
0.002859157975763
0.0038642194122076
0.004743515048176
0.0054919966496527
0.0061094635166227
0.0066018146462738
0.0069811581633985
0.0072638117708265
0.0074693225324153
0.0076198615133762
0.007736143656075
0.0078297797590494
0.0078989341855049
0.0079320715740323
0.0079145664349198
0.0078304819762706
0.0076593160629272
0.0073727536946535
0.0069339498877525
0.0062993196770548
0.0054219253361225
0.0042553981766104
0.002759919501841
0.0009116018190979
-0.001283561810851
-0.0037720771506428
-0.0064439899288117
-0.0091449059545993
-0.011701863259077
-0.0139485346153378
-0.0157452132552862
-0.0169942751526832
-0.0176509488373994
-0.017728766426444
-0.0172981061041355
-0.0164763424545526
-0.0154098086059093
-0.0142511092126369
-0.0131389945745468
-0.0121847065165638
-0.0114613426849246
-0.010994778946042
-0.0107626318931579
-0.0107050463557243
-0.0107406098395586
-0.010780144482851
-0.010737326927483
-0.0105366613715887
-0.0101202121004462
-0.0094552477821707
-0.0085404105484485
-0.0074052046984434
-0.0061024157330393
-0.0046974504366517
-0.0032585957087576
-0.0018504550680518
-0.0005291691049933
0.0006625805981457
0.0016973074525594
0.0025595496408641
0.0032438561320304
0.0037555764429271
0.004110287874937
0.0043321843259036
0.0044533130712807
0.0045118681155145
0.0045481398701667
0.0045996108092367
0.0046952185221016
0.0048493626527488
0.0050604422576725
0.0053136264905333
0.0055820783600211
0.0058266925625503
0.0059950673021376
0.0060190306976437
0.00581711018458
0.005306395702064
0.0044193021021783
0.0031196614727377
0.0014141155406832
-0.0006438600830733
-0.0029575580265372
-0.0053978259675204
-0.0078196553513407
-0.0100810267031192
-0.0120590887963771
