bvp
0.0151807200163602
0.0149914901703596
0.0148178068920969
0.0147245740517973
0.0147243198007345
0.0147885922342538
0.0148652726784348
0.0148958917707204
0.0148301143199205
0.0146349761635065
0.0142968520522117
0.0138180889189243
0.0132117699831724
0.0124950548633933
0.011683352291584
0.0107899270951747
0.0098287770524621
0.0088127376511693
0.0077472534030675
0.0066320118494331
0.0054765995591878
0.0043204249814152
0.0032418442424386
0.0023508602753281
0.0017711417749524
0.001616874244064
0.0019677830860018
0.002850797958672
0.0042357454076409
0.0060433945618569
0.0081609208136796
0.01046072691679
0.0128171099349856
0.0151146985590457
0.01724848523736
0.0191239919513463
0.0206631012260913
0.0218105502426624
0.0225370246917009
0.0228402838110923
0.0227438025176525
0.0222920216619968
0.0215441118925809
0.0205677188932895
0.019432695582509
0.0182059928774833
0.0169488918036222
0.0157153196632862
0.0145504884421825
0.0134876808151602
0.0125402240082621
0.0116950329393148
0.0109167257323861
0.0101593267172575
0.0093772672116756
0.0085335029289126
0.0076061552390456
0.0065910909324884
0.0054975822567939
0.0043412949889898
0.003139323554933
0.0019059181213378
0.0006471835076808
-0.0006432011723518
-0.0019859410822391
-0.0034182462841272
-0.0049955248832702
-0.0067848209291696
-0.0088478317484259
-0.0112223727628588
-0.0139087894931435
-0.0168619304895401
-0.019990200176835
-0.0231630224734544
-0.026225047186017
-0.0290132742375135
-0.0313738249242305
-0.0331769473850727
-0.0343288853764534
-0.0347793288528919
-0.0345234796404838
-0.033599879592657
-0.0320880189538002
-0.0301048532128334
-0.0277954246848821
-0.0253169313073158
-0.0228196009993553
-0.020429516211152
-0.0182374659925699
-0.0162947420030832
-0.0146155543625354
-0.0131855141371488
-0.0119725633412599
-0.0109357582405209
-0.0100322160869836
-0.0092225736007094
-0.0084732109680771
-0.0077600423246622
-0.0070758354850113
-0.0064320676028728
-0.0058523756451904
-0.0053640780970454
-0.0049909534864127
-0.0047480906359851
-0.0046387407928705
-0.0046516740694642
-0.0047647329047322
-0.0049619120545685
-0.0052560768090188
-0.005700634792447
-0.0063820732757449
-0.0073955417610704
-0.008813033811748
-0.0106584364548325
-0.0128969335928559
-0.0154348816722631
-0.0181246642023324
-0.0207734834402799
-0.0231571570038795
-0.0250390879809856
-0.0261927619576454
-0.0264253169298172
-0.0255996659398078
-0.0236536562442779
-0.0206141248345375
-0.0166012849658727
-0.0118199307471513
-0.006536154076457
-0.0010434389114379
0.0043683685362339
0.0094339232891798
0.0139316758140921
0.0177041795104742
0.0206702928990125
0.0228259246796369
0.0242368169128894
0.0250251945108175
0.0253493562340736
0.0253786817193031
0.0252726208418607
0.0251672677695751
0.025164833292365
0.0253260880708694
0.0256715863943099
0.0261917542666196
0.0268569774925708
0.0276216641068458
0.0284270457923412
0.0292084757238626
0.0299053583294153
0.0304691046476364
0.030867550522089
0.0310867242515087
0.0311304703354835
0.031017430126667
0.030776023864746
0.030438132584095
0.0300323162227869
0.0295795500278472
0.0290909353643655
0.0285644046962261
0.0279801003634929
0.0272943656891584
0.0264362134039402
0.0253134183585643
0.0238286703824996
0.0218993257731199
0.0194748677313327
0.0165508240461349
0.013177185319364
0.0094559732824563
0.0055285901762545
0.0015599268954247
-0.0022781393490731
-0.0058250231668353
-0.008946937508881
-0.0115430261939764
-0.0135481702163815
-0.0149417053908109
-0.0157533586025238
-0.0160554237663745
-0.0159472618252038
-0.0155405765399336
-0.0149459596723318
-0.0142604168504476
-0.0135574247688055
-0.0128821190446615
-0.0122531987726688
-0.0116685153916478
-0.0111106391996145
-0.0105526354163885
-0.0099627636373043
-0.009306319989264
-0.0085504353046417
-0.0076756253838539
-0.0066841742955148
-0.0055977650918066
-0.0044497563503682
-0.0032773474231362
-0.0021149390377104
-0.0009914888069033
6.700772792100906e-05
0.0010349508374929
0.0018899627029895
0.0026189573109149
0.0032215393148362
0.0037092622369527
0.0041034929454326
0.0044326051138341
0.0047259251587092
0.0050047473050653
0.005275678820908
0.0055300844833254
0.0057478155940771
0.005900771357119
0.0059534963220357
0.0058635212481021
0.0055889301002025
0.0051091602072119
0.0044552413746714
0.0037288609892129
0.00308733060956
0.0026989383623003
0.0026967972517013
0.0031502116471529
0.0040514674037694
0.0053097521886229
0.0067539382725954
0.0081517174839973
0.0092439614236354
0.009786169975996
0.0095881875604391
0.0085433050990104
0.0066412184387445
0.0039634201675653
0.0006636716425418
-0.0030579585582017
-0.0069785388186573
-0.0108701111748814
-0.0145125472918152
-0.0177034419029951
-0.0202705152332782
-0.022088523954153
-0.023093169555068
-0.0232873875647783
-0.0227420516312122
-0.0215901173651218
-0.0200121831148862
-0.0182135738432407
-0.0163975525647401
-0.0147442743182182
-0.0133975315839052
-0.0124544035643339
-0.0119589231908321
-0.0119033828377723
-0.0122353062033653
-0.0128674134612083
-0.0136932739987969
-0.0146072879433631
-0.0155194113031029
-0.0163599886000156
-0.0170781463384628
-0.0176386181265115
-0.0180206298828125
-0.0182178150862455
-0.0182345062494277
-0.0180791933089494
-0.0177620239555835
-0.0172981843352317
-0.0167118217796087
-0.0160376112908124
-0.0153207220137119
-0.0146149061620235
-0.0139804277569055
-0.0134845376014709
-0.0131996497511863
-0.0131912874057888
-0.0134987384080886
-0.0141206923872232
-0.0150117855519056
-0.0160867534577846
-0.0172297302633523
-0.0183079317212104
-0.0191884450614452
-0.0197568833827972
-0.0199331976473331
-0.019678795710206
-0.0189939197152853
-0.017908914014697
-0.0164772905409336
-0.0147741008549928
-0.0128923235461115
-0.0109323821961879
-0.0089882127940654
-0.0071335826069116
-0.0054126512259244
-0.0038383658975362
-0.0023969747126102
-0.0010542161762714
0.0002382583916187
0.0015349127352237
0.0028870832175016
0.0043354853987693
0.0059076361358165
0.0076191127300262
0.0094720069319009
0.0114486692473292
0.0135094160214066
0.0155988410115242
0.0176557321101427
0.0196230094879865
0.0214559081941843
0.0231257807463407
0.0246201455593109
0.0259405579417943
0.02709886059165
0.0281148999929428
0.0290154963731765
0.0298298709094524
0.0305831097066402
0.0312929414212703
0.031968105584383
0.0326045155525207
0.0331819951534271
0.0336667224764823
0.0340173318982124
0.0341881215572357
0.0341291464865207
0.0337865650653839
0.0331038832664489
0.0320252366364002
0.0305025205016136
0.0285066682845354
0.0260402113199234
0.0231447089463472
0.0199014171957969
0.0164294373244047
0.0128772305324673
0.0094031365588307
0.0061544082127511
0.0032531395554542
0.0007871817797422
-0.001194529235363
-0.0026798509061336
-0.003686680458486
-0.0042562214657664
-0.0044476641342043
-0.0043331645429134
-0.0039915731176733
-0.003500978462398
-0.0029317932203412
-0.0023395977914333
-0.0017573870718479
-0.0011943113058805
-0.0006453087553381
-0.000101919285953
0.0004455922171473
0.001010728534311
0.0016099079512059
0.0022582807578146
0.002966635627672
0.0037403139285743
0.0045773703604936
0.0054654721170663
0.0063815917819738
0.0072958432137966
0.0081753320991992
0.0089876260608434
0.0097062038257718
0.0103130163624882
0.010795148089528
0.0111419633030891
0.0113465040922164
0.0114087555557489
0.011337399482727
0.0111477952450513
0.010857836343348
0.0104856388643383
0.0100490786135196
0.0095639433711767
0.0090409386903047
0.0084847286343574
0.0078951893374323
0.0072686895728111
0.0065984427928924
0.0058712791651487
0.0050594080239534
0.0041141072288155
0.0029686111956834
0.0015492476522922
-0.0002108067274093
-0.002358928322792
-0.004911377094686
-0.0078432345762848
-0.0110835693776607
-0.01451819203794
-0.0180000122636556
-0.0213658139109611
-0.0244553592056036
-0.0271266140043735
-0.0292652547359466
-0.0307940132915973
-0.0316846407949924
-0.0319641754031181
-0.0317076370120048
-0.0310202166438102
-0.0300173480063676
-0.0288090966641902
-0.0274907536804676
-0.0261377096176147
-0.0248022563755512
-0.0235127490013837
-0.0222754254937171
-0.0210775882005691
-0.019892830401659
-0.0186876244843006
-0.017427023500204
-0.016081441193819
-0.0146354120224714
-0.0130921173840761
-0.0114691844210028
-0.0097912587225437
-0.0080863870680332
-0.0063843023963272
-0.0047125173732638
-0.0030923457816243
-0.0015383432619273
-5.9688929468393326e-05
0.0013391422107815
0.0026566525921225
0.0038911700248718
0.0050410381518304
0.0061090723611414
0.0071036480367183
0.008031235076487
0.0088879307731986
0.0096593853086233
0.010328346863389
0.0108834449201822
0.0113233430311083
0.0116543099284172
0.0118842981755733
0.0120166586712002
0.0120446551591157
0.0119477808475494
0.0116897067055106
0.0112186409533023
0.0104751428589224
0.0094077996909618
0.0079864859580993
0.0062063178047537
0.0040892101824283
0.0016901362687349
-0.0008974513038992
-0.0035456554032862
-0.0061076222918927
-0.0084405988454818
-0.0104274367913603
-0.0119888838380575
-0.0130865834653377
-0.0137206595391035
-0.0139262694865465
-0.0137698575854301
-0.0133400680497288
-0.0127317383885383
-0.0120329391211271
-0.0113228447735309
-0.0106716752052307
-0.0101337358355522
-0.0097380327060818
-0.0094830831512808
-0.0093386871740221
-0.0092545039951801
-0.0091712977737188
-0.0090306401252746
-0.0087822247296571
-0.0083889365196228
-0.0078295171260833
-0.0070999753661453
-0.00621223077178
-0.0051874993368983
-0.0040514920838177
-0.0028366982005536
-0.0015828995965421
-0.0003309664316475
0.0008838828653097
0.0020354557782411
0.0031075100414454
0.0040933396667242
0.0049951449036598
0.005823953077197
0.0065984819084405
0.007341721560806
0.0080762896686792
0.0088199628517031
0.009583119302988
0.0103697311133146
0.011178620159626
0.0119984410703182
0.0127994874492287
0.013531532138586
0.0141277471557259
0.0145101305097341
0.0145963076502084
0.0143079683184623
0.0135816186666488
0.0123820062726736
0.0107118766754865
0.0086147906258702
0.0061753718182444
0.0035151112824678
0.0007815826684236
-0.0018645338714122
-0.0042666541412472
-0.0062948232516646
-0.0078624803572893
-0.0089303143322467
-0.0095013258978724
-0.0096122091636061
-0.0093237841501832
-0.0087117878720164
-0.007857771590352
-0.0068394867703318
-0.0057227062061429
-0.0045583313331007
-0.0033837333321571
-0.0022242069244384
-0.0010933270677924
8.102506399154663e-06
0.0010900264605879
0.002162329852581
0.0032229525968432
0.0042559946887195
0.0052380547858774
0.0061458102427423
0.0069618113338947
0.0076784864068031
0.0083007346838712
0.0088478224352002
0.0093560460954904
0.0098789660260081
0.0104789249598979
0.0112124383449554
0.0121189476922154
0.0132164191454648
0.0144990887492895
0.0159341990947723
0.0174612198024988
0.0189970694482326
0.0204461514949798
0.0217120125889778
0.0227094069123268
0.0233778804540634
0.0236943662166595
0.0236773509532213
0.0233793165534734
0.0228722877800464
0.0222334284335374
0.0215335618704557
0.0208262894302606
0.0201365388929843
0.0194504279643297
0.0187086183577775
0.0178091861307621
0.0166250001639127
0.0150298066437244
0.0129231214523315
0.010250468738377
0.0070179691538214
0.0032962104305624
-0.0007892772555351
-0.00507577881217
-0.0093840919435024
-0.0135409217327833
-0.0173996333032846
-0.0208531767129898
-0.0238383710384368
-0.0263372845947742
-0.0283769331872463
-0.0300221592187881
-0.0313604846596717
-0.0324823670089244
-0.0334616228938102
-0.0343416929244995
-0.0351296029984951
-0.0357972159981727
-0.0362893752753734
-0.0365343317389488
-0.0364521816372871
-0.0359609089791774
-0.0349816605448722
-0.033446304500103
-0.0313087105751037
-0.0285623744130134
-0.0252623185515403
-0.0215330366045236
-0.0175504274666309
-0.0135080097243189
-0.0095805069431662
-0.0058917258866131
-0.0024933693930506
0.0006394269876182
0.0035954318009316
0.0065027689561247
0.0094986585900187
0.0126996878534555
0.0161785222589969
0.0199491791427135
0.0239591877907514
0.0280865393579006
0.0321447849273681
0.0359031856060028
0.0391195528209209
0.0415758155286312
0.043109368532896
0.0436338409781456
0.0431459099054336
0.0417204685509204
0.0394958704710006
0.0366503670811653
0.0333732552826404
0.0298347733914852
0.0261599440127611
0.0224134437739849
0.018600258976221
0.0146791404113173
0.0105836102738976
0.0062512196600437
0.0016578333452343
-0.0031550144776701
-0.0080692414194345
-0.0128967482596635
-0.0173990279436111
-0.0213165860623121
-0.0244056060910224
-0.0264744013547897
-0.0274123195558786
-0.0272096581757068
-0.0259645245969295
-0.0238699279725551
-0.0211856160312891
-0.0182080250233411
-0.0152429416775703
-0.0125758331269025
-0.0104396389797329
-0.0089884735643863
-0.0082870125770568
-0.0083160167559981
-0.0089858341962099
-0.0101536018773913
-0.0116433482617139
-0.0132671408355236
-0.0148460427299141
-0.0162285100668668
-0.017303679138422
-0.0180078744888305
-0.0183220896869897
-0.0182641539722681
-0.0178821459412574
-0.0172460526227951
-0.01643399707973
-0.0155190639197826
-0.014561315998435
-0.0136024095118045
-0.0126622132956981
-0.0117400102317333
-0.0108193838968873
-0.0098750777542591
-0.0088819190859794
-0.0078239906579256
-0.0066992379724979
-0.0055167926475405
-0.0042900666594505
-0.0030330333393067
-0.001763736596331
-0.0005091454368084
0.0006932276301085
0.0017939683748409
0.0027314808685332
0.0034369113855063
0.0038430020213127
0.0038925460539758
0.0035451268777251
0.0027831420302391
0.0016177711077034
9.423308074474336e-05
-0.0017078043892979
-0.0036811251193284
-0.0057017956860363
-0.007643474265933
-0.0093948449939489
-0.0108717437833547
-0.0120198298245668
-0.0128126572817564
-0.0132478894665837
-0.0133414650335907
-0.0131196286529302
-0.0126109197735786
-0.0118407122790813
-0.0108258938416838
-0.0095706954598426
-0.0080684814602136
-0.0063053630292415
-0.0042596403509378
-0.0019020978361368
0.0007928404957056
0.0038248915225267
0.0071492195129394
0.0106737976893782
0.0142707023769617
0.0177937131375074
0.0210971813648939
0.0240529850125312
0.0265626106411218
0.0285631343722343
0.0300296600908041
0.03097615391016
0.0314526855945587
0.0315378941595554
0.0313289873301982
0.0309306159615516
0.0304407849907875
0.029936283826828
0.0294652953743934
0.0290481485426425
0.0286812111735343
0.0283426828682422
0.0280006695538759
0.0276217125356197
0.0271775983273983
0.0266494620591402
0.0260285027325153
0.0253127794712781
0.0245022494345903
0.023596417158842
0.0225960686802864
0.0215040557086467
0.0203171856701374
0.0190118886530399
0.0175372585654258
0.0158218033611774
0.0137893268838524
0.0113778971135616
0.0085564078763127
0.0053351153619587
0.0017709606327116
-0.0020328173413872
-0.0059366854839026
-0.0097831357270479
-0.0134170744568109
-0.016704399138689
-0.0195444300770759
-0.0218717977404594
-0.0236537083983421
-0.0248914323747158
-0.0256214831024408
-0.0259082857519388
-0.0258303917944431
-0.0254674851894378
-0.0248923376202583
-0.0241673644632101
-0.02334307692945
-0.022455621510744
-0.0215243622660636
-0.0205541960895061
-0.0195425357669591
-0.0184845961630344
-0.0173725299537181
-0.0161922797560691
-0.0149272922426462
-0.0135698765516281
-0.0121282916516065
-0.0106223979964852
-0.0090763578191399
-0.007514820434153
-0.0059595564380288
-0.0044274600222706
-0.0029310474637895
-0.0014776727184653
-6.923847831785679e-05
0.0012941586319357
0.002610471099615
0.0038742164615541
0.0050768055953085
0.0062096863985061
0.0072655016556382
0.0082329753786325
0.009093458764255
0.0098261553794145
0.0104160793125629
0.0108582098037004
0.0111596826463937
0.0113409142941236
0.0114331301301717
0.0114711094647645
0.0114814918488264
0.0114714577794075
0.0114238951355218
0.0112987384200096
0.0110374093055725
0.0105702774599194
0.0098252519965171
0.0087332241237163
0.0072340741753578
0.005290918983519
0.0029102126136422
0.0001555373892188
-0.0028546908870339
-0.0059628984890878
-0.0089927371591329
-0.0117702903226017
-0.0141443125903606
-0.0160029530525207
-0.0172851122915744
-0.017983540892601
-0.0181375481188297
-0.0178195834159851
-0.0171241853386163
-0.0161607023328542
-0.0150444256141781
-0.0138846412301063
-0.0127718057483434
-0.011767890304327
-0.0109025295823812
-0.0101740714162588
-0.0095554832369089
-0.0090034659951925
-0.0084676230326294
-0.0078979348763823
-0.0072494437918066
-0.0064867716282606
-0.0055899675935506
-0.0045574777759611
-0.0034056920558214
-0.0021690656431019
-0.0008988392073661
0.0003440821310505
0.0014995476230978
0.0025168622378259
0.0033602276816964
0.0040106596425175
0.0044651147909462
0.004734787158668
0.0048429304733872
0.0048206616193056
0.0047003105282783
0.0045092944055795
0.0042693801224231
0.0040024849586188
0.0037347804754972
0.0034904789645224
0.0032809586264193
0.0030994252301752
0.0029199782293289
0.0026965853758156
0.0023655884433537
0.0018552754772827
0.0010976868215948
3.783191277761944e-05
-0.0013586970744654
-0.003097478300333
-0.0051480773836374
-0.0074420068413019
-0.0098757660016417
-0.0123177710920572
-0.0146221797913312
-0.0166490543633699
-0.0182823743671178
-0.0194398742169141
-0.020077034831047
-0.0201873891055583
-0.0197975877672433
-0.01895890571177
-0.0177396573126316
-0.0162189099937677
-0.0144798140972852
-0.0126033183187246
-0.0106630558148026
-0.0087205208837986
-0.006819600239396
-0.0049815541133284
-0.0032058665528893
-0.0014787409454584
0.0002185851335525
0.0019064508378505
0.003605899401009
0.0053373472765088
0.0071169510483741
0.0089524369686841
0.0108410762622952
0.0127686411142349
0.0147088915109634
0.0166261959820985
0.0184810999780893
0.0202350541949272
0.021854093298316
0.0233134254813194
0.0245982389897108
0.0256974212825298
0.0265983790159225
0.0272893793880939
0.0277650710195302
0.0280292965471744
0.0280949715524911
0.0279836505651474
0.0277240462601184
0.0273482743650674
0.0268878582864999
0.0263701155781745
0.0258147567510604
0.0252313502132892
0.024616815149784
0.0239527951925992
0.0232019629329442
0.0223034620285034
0.021174281835556
0.019721271470189
0.0178590323776006
0.0155280912294983
0.0127116115763783
0.0094468584284186
0.0058251959271728
0.001979042077437
-0.0019374160328879
-0.0057643670588731
-0.0093480311334133
-0.0125517733395099
-0.0152665115892887
-0.0174186136573553
-0.0189764499664306
-0.0199556555598974
-0.0204168893396854
-0.0204515159130096
-0.0201618820428848
-0.0196456052362918
-0.0189861226826906
-0.0182475000619888
-0.0174726620316505
-0.0166851803660392
-0.0158930085599422
-0.0150915961712598
-0.0142668057233095
-0.0133986659348011
-0.0124639403074979
-0.0114370509982109
-0.010294621810317
-0.0090264035388827
-0.007644054479897
-0.0061788838356733
-0.0046721720136702
-0.0031663915142416
-0.0016999371582642
-0.000303991837427
0.0009994176216423
0.0021984332706779
0.0032913270406425
0.0042842337861657
0.005186362657696
0.0060054995119571
0.0067483033053576
0.0074240276589989
0.0080423979088664
0.0086046643555164
0.009099943563342
0.0095117473974823
0.0098272170871496
0.0100425891578197
0.0101631637662649
0.010199025273323
0.0101606640964746
0.0100559443235397
0.0098844934254884
0.0096297152340412
0.0092545989900827
0.0087038343772292
0.007912847213447
0.0068228943273425
0.0053920205682516
0.0035978406667709
0.0014430843293666
-0.0010339338332414
-0.0037545547820627
-0.006606260780245
-0.0094566065818071
-0.0121682966127991
-0.0146136274561285
-0.0166887361556291
-0.018325226381421
-0.0194948837161064
-0.0202055424451828
-0.0204924531280994
-0.0204096864908933
-0.0200206935405731
-0.0193893276154994
-0.0185754746198654
-0.0176330767571926
-0.0166062340140342
-0.0155257266014814
-0.0144100785255432
-0.0132698453962802
-0.0121108293533325
-0.010935166850686
-0.0097417589277029
-0.0085257515311241
-0.0072755869477987
-0.0059658107347786
-0.0045486968010663
-0.0029532453045248
-0.0010946136899292
0.0011048964224755
0.003683382179588
0.0066105090081691
0.0097800269722938
0.0130231538787484
0.0161328297108411
0.0188929140567779
0.0211072750389575
0.0226224232465028
0.0233428850769996
0.023240165784955
0.0223523769527673
0.0207757875323295
0.0186533257365226
0.0161659494042396
0.0135326394811272
0.011009463109076
0.0088670589029788
0.0073431795462965
0.0065892376005649
0.006635489873588
0.0073880702257156
0.008652513846755
0.0101720616221427
0.011673773638904
0.0129153905436396
0.0137230278924107
0.0140098752453923
0.0137704303488135
0.0130580989643931
0.0119627881795167
0.0105944266542792
0.009063996374607
0.0074577797204256
0.0058150794357061
0.0041208285838365
0.0023151952773332
0.0003154873847961
-0.0019581727683544
-0.0045595169067382
-0.0074977008625864
-0.0107269780710339
-0.0141464099287986
-0.0176107510924339
-0.0209521725773811
-0.0240059494972229
-0.0266318470239639
-0.0287288706749677
-0.0302459485828876
-0.0311896800994873
-0.0316235795617103
-0.0316543541848659
-0.0314091742038726
-0.0310124326497316
-0.0305690504610538
-0.0301548279821872
-0.0298113152384758
-0.0295459553599357
-0.0293380282819271
-0.0291478186845779
-0.028925098478794
-0.0286158788949251
-0.028168749064207
-0.0275401081889867
-0.0266998633742332
-0.0256399139761924
-0.0243789199739694
-0.022956907749176
-0.0214234367012977
-0.019827015697956
-0.0182098932564258
-0.0166058521717786
-0.0150376446545124
-0.0135159697383642
-0.0120418425649404
-0.0106097795069217
-0.0092093860730528
-0.0078257750719785
-0.0064391167834401
-0.0050250943750143
-0.003562893718481
-0.0020507052540779
-0.0005162619054317
0.0009843427687883
0.0023761019110679
0.0035795345902442
0.0045267231762409
0.0051750931888818
0.0055162999778985
0.0055785402655601
0.0054223705083131
0.005131609737873
0.0048014800995588
0.0045264903455972
0.0043919552117586
0.0044703390449285
0.0048148799687623
0.0054482966661453
0.006358366459608
0.0075057111680507
0.0088354144245386
0.010287269949913
0.0118048414587974
0.0133400931954383
0.0148519184440374
0.0163056533783674
0.0176774468272924
0.0189568605273962
0.0201439000666141
0.0212458707392215
0.0222785025835037
0.0232669524848461
0.0242391228675842
0.0252139307558536
0.0261951480060815
0.0271735824644565
0.0281335022300481
0.0290596690028905
0.0299409218132495
0.0307703167200088
0.0315444283187389
0.0322603918612003
0.0329120941460132
0.0334898866713047
0.0339820235967636
0.0343757979571819
0.0346621014177799
0.0348428152501583
0.0349306091666221
0.0349373593926429
0.0348637998104095
0.0346998125314712
0.0344303809106349
0.034041441977024
0.0335242412984371
0.0328772142529487
0.0321059338748455
0.0312216281890869
0.0302365757524967
0.0291576255112886
0.0279818754643201
0.0266942605376243
0.0252664573490619
0.0236593540757894
0.0218273364007473
0.0197219606488943
0.0172989461570978
0.014531884342432
0.0114272888749837
0.00803211517632
0.0044316034764051
0.0007406640797853
-0.0029083900153636
-0.0063800956122577
-0.0095518920570611
-0.0123296417295932
-0.0146570410579442
-0.0165175143629312
-0.0179291144013404
-0.0189323965460062
-0.0195803791284561
-0.0199392978101968
-0.0200901553034782
-0.0201205611228942
-0.0201125349849462
-0.0201320815831422
-0.0202221479266881
-0.020401045680046
-0.0206642877310514
-0.0209870599210262
-0.0213286057114601
-0.0216403435915708
-0.021875699982047
-0.0219972394406795
-0.0219790805131196
-0.0218070168048143
-0.0214808490127325
-0.0210197158157825
-0.0204633343964815
-0.0198636706918478
-0.0192725844681262
-0.0187322590500116
-0.0182695426046848
-0.0178942624479532
-0.0175999160856008
-0.0173646863549947
-0.0171550586819648
-0.0169346556067466
-0.0166739374399185
-0.0163545981049537
-0.0159669108688831
-0.0155028365552425
-0.0149543322622776
-0.0143215786665678
-0.0136213898658752
-0.012887692078948
-0.0121680423617362
-0.0115205664187669
-0.0110094426199793
-0.0106996102258563
-0.0106529602780938
-0.0109222680330276
-0.0115404278039932
-0.0125098461285233
-0.0137981008738279
-0.015340082347393
-0.0170418042689561
-0.0187859702855348
-0.0204455219209194
-0.0219029635190963
-0.0230642743408679
-0.023863011971116
-0.0242590028792619
-0.0242368727922439
-0.0238055698573589
-0.0229954048991203
-0.0218509193509817
-0.0204241648316383
-0.0187720041722059
-0.0169547200202941
-0.0150330457836389
-0.0130635378882288
-0.0110917408019304
-0.009144065901637
-0.0072266934439539
-0.0053363405168056
-0.0034718662500381
-0.0016356073319911
0.000172353349626
0.0019589634612202
0.0037380354478955
0.0055254357866942
0.0073325810953974
0.0091623226180672
0.011009082198143
0.0128611400723457
0.0147026926279068
0.0165147725492715
0.0182766318321228
0.0199702121317386
0.0215824209153652
0.0230984445661306
0.0244937911629676
0.0257357377558946
0.0267918519675731
0.0276383757591247
0.0282648876309394
0.0286754760891199
0.0288881883025169
0.0289322528988122
0.0288417935371398
0.0286477692425251
0.0283710844814777
0.0280183609575033
0.0275811813771724
0.0270375683903694
0.0263506062328815
0.0254633985459804
0.0243000797927379
0.0227793101221323
0.0208330675959587
0.0184219740331172
0.0155466198921203
0.0122548760846257
0.0086427014321088
0.0048477966338396
0.0010366184869781
-0.0026128878816962
-0.0059284884482622
-0.0087584992870688
-0.0109837092459201
-0.0125244343653321
-0.0133434263989329
-0.0134504931047558
-0.0129077592864632
-0.0118262125179171
-0.0103520154953002
-0.0086489580571651
-0.0068807089701294
-0.0051944092847406
-0.0037066470831632
-0.0024914289824664
-0.0015741704264655
-0.0009375915396958
-0.000536129111424
-0.0003104633651673
-0.0001977212668862
-0.0001366996439173
-7.240485865622759e-05
3.682798705995083e-05
0.0002144431928172
0.0004670628113672
0.000790691236034
0.00117774377577
0.0016210201429203
0.0021158398594707
0.0026629271451383
0.0032706141937524
0.0039534652605652
0.0047251638025045
0.0055877207778394
0.0065240571275353
0.0074984338134527
0.0084609342738986
0.0093494933098554
0.0100921224802732
0.0106176799163222
0.0108720678836107
0.0108294328674674
0.0104958191514015
0.0099068935960531
0.0091203767806291
0.0082062613219022
0.0072377640753984
0.0062814587727189
0.0053848633542656
0.0045654540881514
0.0038065770640969
0.0030605606734752
0.0022576106712222
0.0013174498453736
0.0001588519662618
-0.0012901443988084
-0.0030779177322983
-0.0052159707993268
-0.0076708691194653
-0.0103631885722279
-0.0131753040477633
-0.0159644223749637
-0.0185756050050258
-0.020855963230133
-0.0226715262979269
-0.0239225719124078
-0.0245544388890266
-0.024563631042838
-0.0239984132349491
-0.0229555442929267
-0.0215732790529727
-0.0200159475207328
-0.0184504110366106
-0.0170223861932754
-0.0158408526331186
-0.0149731393903493
-0.0144474869593977
-0.0142606832087039
-0.0143881095573306
-0.0147901521995663
-0.0154129602015018
-0.0161863174289464
-0.0170217789709568
-0.0178128387778997
-0.0184370782226324
-0.0187654793262481
-0.0186835043132305
-0.0181125253438949
-0.0170174427330493
-0.0154020749032497
-0.0133013324812054
-0.0107756648212671
-0.0079076215624809
-0.0047969035804271
-0.0015539950691163
0.0017046525608748
0.0048614689148962
0.0078047951683402
0.0104361064732074
0.0126762324944138
0.0144703639671206
0.01578826084733
0.0166191719472408
0.0169687904417514
0.0168609842658042
0.0163396038115024
0.0154682956635952
0.0143265426158905
0.0129993353039026
0.0115644913166761
0.010084580630064
0.0086039518937468
0.0071469051763415
0.0057177362032234
0.0043067275546491
0.0029026386328041
0.0015062792226672
0.0001335637643933
-0.0011945888400077
-0.002460369374603
-0.0036460608243942
-0.0047290734946727
-0.0056836241856217
-0.0064855809323489
-0.0071142669767141
-0.0075521012768149
-0.0077855996787548
-0.0078072128817439
-0.0076170321553945
-0.0072243642061948
-0.0066463304683566
-0.0059010675176978
-0.0050002578645944
-0.0039502028375864
-0.0027605649083852
-0.0014486778527498
-3.7614256143569946e-05
0.0014432528987526
0.0029568104073405
0.0044631548225879
0.0059273093938827
0.0073223393410444
0.0086299385875463
0.0098413554951548
0.0109550133347511
0.0119722783565521
0.0128970174118876
0.0137384012341499
0.0145139265805482
0.0152487456798553
0.0159685146063566
0.0166908279061317
0.0174217130988836
0.0181569550186395
0.0188831090927124
0.0195759907364845
0.0202015824615955
0.0207219496369361
0.0211010873317718
0.0213078651577234
0.0213197786360979
0.0211284272372722
0.0207409225404262
0.020173517987132
0.0194414444267749
0.018548971042037
0.0174806173890829
0.0161987114697694
0.0146514531224966
0.0127863595262169
0.010562933050096
0.0079644257202744
0.005009067710489
0.0017567969625815
-0.0016931142890825
-0.0052126762457191
-0.0086582284420728
-0.0118839610368013
-0.0147580513730645
-0.017176941037178
-0.0190715454518795
-0.0204091053456068
-0.0211952198296785
-0.0214719418436288
-0.0213084667921066
-0.0207880064845085
-0.0199959371238946
-0.0190109070390462
-0.0178981143981218
-0.0167049337178468
-0.0154602043330669
-0.0141773838549852
-0.0128598194569349
-0.0115058869123458
-0.0101123265922069
-0.0086756572127342
-0.00719306897372
-0.0056656580418348
-0.004104474093765
-0.0025325147435069
-0.0009798670653253
0.0005214477423578
0.0019412219990044
0.0032570417970418
0.0044600339606404
0.0055546732619404
0.0065541276708245
0.0074765924364328
0.0083414977416396
0.0091623086482286
0.0099401194602251
0.0106664150953292
0.0113338837400078
0.0119407838210463
0.0124834161251783
0.0129500068724155
0.0133238183334469
0.0135886818170547
0.013730838894844
0.0137400105595588
0.0136136189103126
0.0133599741384387
0.0129962377250194
0.0125444894656538
0.0120291830971837
0.0114746615290641
0.0109019773080945
0.0103276809677481
0.0097648845985531
0.0092208292335271
0.0086869802325963
0.0081275543197989
0.0074764098972082
0.0066447723656892
0.0055354386568069
0.0040605952963232
0.0021606339141726
-0.0001821219921112
-0.0029366537928581
-0.0060209115035831
-0.0093065686523914
-0.0126343285664916
-0.0158353373408317
-0.0187487304210662
-0.0212296973913908
-0.0231539253145456
-0.0244239307940006
-0.0249741151928901
-0.0247752815485
-0.0238416250795125
-0.0222350098192691
-0.0200625136494636
-0.0174690950661897
-0.0146259907633066
-0.0117152631282806
-0.0089137814939022
-0.0063791498541831
-0.0042370897717773
-0.0025708116590976
-0.0014151185750961
-0.0007565058767795
-0.000541022978723
-0.0006911614909768
-0.0011232984252274
-0.001755413133651
-0.0025074854493141
-0.0033024274744093
-0.004070907831192
-0.0047589298337697
-0.0053333332762122
-0.0057811723090708
-0.0061040078289806
-0.006311276461929
-0.0064164991490542
-0.0064368350431323
-0.0063919741660356
-0.0062993671745061
-0.0061712693423032
-0.0060198009014129
-0.0058625903911888
-0.0057193730026483
-0.005604300647974
-0.0055216052569448
-0.0054652448743581
-0.0054206722415983
-0.0053661437705159
-0.0052750995382666
-0.005125037394464
-0.0049107605591416
-0.0046528675593435
-0.0043989033438265
-0.0042196195572614
-0.0041993935592472
-0.0044235778041183
-0.0049665579572319
-0.0058775972574949
-0.0071648322045803
-0.0087842671200633
-0.010638890787959
-0.0125888381153345
-0.0144701246172189
-0.0161165744066238
-0.0173798333853483
-0.0181463900953531
-0.0183506440371274
-0.0179800949990749
-0.0170718096196651
-0.0157002471387386
-0.0139583488926291
-0.0119439642876386
-0.0097574861720204
-0.0074990773573517
-0.0052595781162381
-0.0031121671199798
-0.0011078286916017
0.0007282383739948
0.0023973928764462
0.0039227558299899
0.0053432080894708
0.0067084981128573
0.0080723455175757
0.0094832377508282
0.010975775308907
0.012566608376801
0.0142565239220857
0.0160317718982696
0.0178607888519763
0.0196950752288103
0.0214781146496534
0.0231550931930542
0.0246793255209922
0.0260163247585296
0.0271472409367561
0.0280711501836776
0.0288022942841053
0.0293623767793178
0.0297729950398206
0.0300515349954366
0.0302105732262134
0.0302595142275095
0.0302075650542974
0.0300651863217353
0.0298411138355731
0.0295383371412754
0.0291529819369316
0.0286766327917575
0.028100861236453
0.0274185985326766
0.0266192033886909
0.0256820488721132
0.0245728977024555
0.0232427455484867
0.0216298289597034
0.0196668151766061
0.0172935016453266
0.0144745530560612
0.0112173799425363
0.0075783263891935
0.0036546436604112
-0.0004264402668923
-0.0045173862017691
-0.0084632132202386
-0.0121161565184593
-0.0153484512120485
-0.0180631186813116
-0.0202020704746246
-0.0217492412775754
-0.0227269101887941
-0.0231861695647239
-0.0231953412294387
-0.0228301975876092
-0.0221680086106061
-0.0212846044450998
-0.0202533081173896
-0.0191443748772144
-0.018020486459136
-0.0169278681278228
-0.0158890672028064
-0.014901353046298
-0.0139408055692911
-0.0129708796739578
-0.0119520416483283
-0.0108495214954018
-0.0096395593136549
-0.0083137359470129
-0.006878962740302
-0.0053549697622656
-0.0037724864669144
-0.0021701394580304
-0.0005909053143113
0.0009179762564599
0.0023069311864674
0.0035326858051121
0.0045670662075281
0.0054013566114008
0.0060467394068837
0.0065299575217068
0.0068861437030136
0.007152868900448
0.0073656747117638
0.0075531182810664
0.0077316733077168
0.0079031195491552
0.0080585470423102
0.0081893093883991
0.0082940515130758
0.0083741256967186
0.0084260134026408
0.0084384502843022
0.008392279036343
0.0082599986344575
0.008002976886928
0.0075683007016777
0.0068896086886525
0.0058924937620759
0.0045052701607346
0.0026747258380055
0.0003815060481429
-0.0023487424477934
-0.0054383007809519
-0.0087554119527339
-0.0121241137385368
-0.0153489438816905
-0.0182431638240814
-0.0206497758626937
-0.0224576592445373
-0.023613404482603
-0.0241234637796878
-0.0240459069609642
-0.0234750732779502
-0.022524457424879
-0.0213132500648498
-0.0199554525315761
-0.0185496509075164
-0.0171722210943698
-0.0158739723265171
-0.0146795827895402
-0.0135968085378408
-0.0126369362697005
-0.0118322484195232
-0.0112373922020196
-0.010914234444499
-0.0109084052965044
-0.0112272948026657
-0.0118247689679265
-0.0125955417752265
-0.0133820883929729
-0.0139937456697225
-0.0142337214201688
-0.0139303896576166
-0.0129685020074248
-0.0113092605024576
-0.0089916065335273
-0.0061232382431626
-0.0028718998655676
0.0005470183677971
0.0038938936777412
0.0069364020600914
0.0094825224950909
0.0114085702225565
0.0126744639128446
0.013323470018804
0.0134690534323453
0.0132716950029134
0.0129103576764464
0.0125556979328393
0.0123499445617198
0.0123934112489223
0.0127360438928008
0.0133704813197255
0.0142252817749977
0.0151679757982492
0.0160245262086391
0.0166069250553846
0.0167399961501359
0.0162855088710784
0.0151628945022821
0.0133629664778709
0.0109500512480735
0.0080530392006039
0.0048494762741029
0.0015444229356944
-0.00165472086519
-0.0045630084350705
-0.0070353369228541
-0.0089755672961473
-0.010342227295041
-0.0111478772014379
-0.0114480536431074
-0.0113257057964801
-0.0108775030821561
-0.01020248234272
-0.0093928836286067
-0.0085286805406212
-0.0076749492436647
-0.0068796621635556
-0.0061714220792055
-0.0055571906268596
-0.0050205206498503
-0.0045196274295449
-0.0039862487465143
-0.0033345287665724
-0.0024824244901537
-0.0013712961226701
2.660881727933884e-05
0.0017090030014514
0.003647637553513
0.0057946480810642
0.0080893747508525
0.0104647176340222
0.0128533905372023
0.0151909254491329
0.0174149069935083
0.0194660425186157
0.0212944261729717
0.0228683017194271
0.0241776276379823
0.0252258442342281
0.0260158106684684
0.0265432819724082
0.0268003270030021
0.0267815794795751
0.026488784700632
0.0259328316897153
0.0251338109374046
0.0241194069385528
0.0229214448481798
0.021572321653366
0.0201018750667572
0.0185332726687192
0.0168791525065898
0.015139790251851
0.0133034028112888
0.0113468533381819
0.0092352665960788
0.0069260564632713
0.0043830154463648
0.0015957606956362
-0.0014050700701773
-0.0045437756925821
-0.0077089499682188
-0.0107735386118292
-0.0136195374652743
-0.0161596816033124
-0.0183490067720413
-0.0201831087470054
-0.0216866098344326
-0.0228985399007797
-0.0238594859838485
-0.0246045663952827
-0.0251621380448341
-0.0255535244941711
-0.0257924906909465
-0.0258852522820234
-0.025830078870058
-0.0256166793406009
-0.0252278819680213
-0.024645360186696
-0.0238566771149635
-0.02285872772336
-0.0216579996049404
-0.020270125940442
-0.0187167581170797
-0.0170200634747743
-0.0151995364576578
-0.013275446370244
-0.0112772220745682
-0.0092465095221996
-0.0072298320010304
-0.0052674654871225
-0.0033844928257167
-0.0015859596896916
0.0001408692914992
0.0018176797311753
0.0034672766923904
0.0051106316968798
0.0067645357921719
0.008438441902399
0.0101340813562273
0.0118485912680625
0.0135773494839668
0.0153112495318055
0.0170293077826499
0.0186950750648975
0.0202612020075321
0.021678639575839
0.0229061339050531
0.023916095495224
0.0246931742876768
0.02522823959589
0.0255134273320436
0.0255366060882806
0.0252729933708906
0.024679310619831
0.0236959736794233
0.0222590025514364
0.0203187074512243
0.01785459369421
0.0148823289200663
0.0114613696932792
0.0077032856643199
0.0037694759666919
-0.0001454334706068
-0.0038391333073377
-0.0071286614984273
-0.0098718116059899
-0.0119802206754684
-0.013425525277853
-0.0142387812957167
-0.014501535333693
-0.0143297687172889
-0.0138545734807848
-0.0132035994902253
-0.012488811276853
-0.0118021555244922
-0.0112137962132692
-0.0107696214690804
-0.0104893743991851
-0.0103665441274642
-0.0103704715147614
-0.0104511771351099
-0.0105461962521076
-0.0105878375470638
-0.0105109550058841
-0.0102617116644978
-0.0098048858344554
-0.0091279754415154
-0.0082423761487007
-0.0071805506013333
-0.0059911562129855
-0.0047356546856462
-0.0034830360673367
-0.0022999672219157
-0.001241979189217
-0.0003491276875138
0.0003577042371034
0.0008806176483631
0.0012437291443347
0.0014869645237922
0.0016587823629379
0.0018084524199366
0.0019776010885834
0.0021925624459981
0.0024586115032434
