bvp
0.0152378370985388
0.0178561676293611
0.0202976036816835
0.0225424487143754
0.0245861038565635
0.0264341756701469
0.0280970111489295
0.0295854322612285
0.0309075489640235
0.0320669338107109
0.0330626741051673
0.0338917672634124
0.0345508120954036
0.0350269712507724
0.0352766998112201
0.0352121777832508
0.0347110480070114
0.0336419269442558
0.0318946540355682
0.0294099114835262
0.0262003950774669
0.022357627749443
0.0180444978177547
0.0134744513779878
0.0088810343295335
0.0044871452264487
0.0004806700162589
-0.0030005439184606
-0.0058704200200736
-0.0080884275957942
-0.0096569694578647
-0.0106196403503417
-0.011052924208343
-0.0110551621764898
-0.0107360919937491
-0.0102055929601192
-0.0095622520893812
-0.0088834483176469
-0.0082204323261976
-0.0075993528589606
-0.0070233214646577
-0.0064747515134513
-0.0059219282120466
-0.0053267148323357
-0.0046482342295348
-0.0038502477109432
-0.0029199165292084
-0.0018910099752247
-0.0008637551218271
-1.1058058589696884e-05
0.000448590144515
0.0003140494227409
-0.000527802389115
-0.0020551509223878
-0.0041013555601239
-0.0063811792060732
-0.0085417348891496
-0.0102193728089332
-0.0110890744253993
-0.010902002453804
-0.0095120957121253
-0.006894031073898
-0.0031488481909036
0.0015082277823239
0.0067762513644993
0.0123080909252166
0.0177527330815792
0.0227894429117441
0.0271470583975315
0.0306055191904306
0.0329805389046669
0.0341041050851345
0.0338220931589603
0.0320189334452152
0.0286575965583324
0.0238163173198699
0.0177086740732193
0.010675810277462
0.0031486339867115
-0.0044046640396118
-0.0115292258560657
-0.0178273469209671
-0.0229933280497789
-0.0268348157405853
-0.0292771905660629
-0.0303516648709774
-0.0301745943725109
-0.0289275981485843
-0.0268388427793979
-0.0241596326231956
-0.0211385264992713
-0.0179995168000459
-0.0149270631372928
-0.0120600620284676
-0.0094919744879007
-0.0072706276550889
-0.0053987065330147
-0.0038398629985749
-0.0025302006397396
-0.0013902968494221
-0.0003348384052515
0.0007162999827414
0.001823597587645
0.0030160832684487
0.0042871087789535
0.0055982074700295
0.0068907244130969
0.0081040039658546
0.0091946590691804
0.0101447133347392
0.010953988879919
0.0116298403590917
0.0121848154813051
0.0126380957663059
0.0130136534571647
0.0133340405300259
0.0136145129799842
0.0138617353513836
0.0140741560608148
0.0142409522086381
0.0143433474004268
0.0143579840660095
0.0142565313726663
0.0140024898573756
0.0135474419221282
0.0128232669085264
0.0117362579330801
0.0101776532828807
0.0080504920333623
0.0052994508296251
0.0019313655793666
-0.001980323344469
-0.0063027646392583
-0.0108571723103523
-0.0154406847432255
-0.0198523476719856
-0.0239147283136844
-0.0274890437722206
-0.0304833650588989
-0.032851330935955
-0.034581933170557
-0.0356898643076419
-0.0362148024141788
-0.0362228527665138
-0.0357990860939025
-0.0350322686135768
-0.034000638872385
-0.0327646806836128
-0.0313672125339508
-0.0298384595662355
-0.0282012559473514
-0.0264715254306793
-0.024656830355525
-0.0227579902857542
-0.0207709800451993
-0.0186868160963058
-0.0164936240762472
-0.0141849629580974
-0.0117717236280441
-0.0092883640900254
-0.0067892526276409
-0.0043394225649535
-0.0020034560002386
0.0001644911244511
0.0021285843104124
0.0038787219673395
0.0054335249587893
0.0068351100198924
0.0081399157643318
0.0094096586108207
0.0107022887095808
0.0120662050321698
0.013540887273848
0.015155067667365
0.0169151257723569
0.0187945012003183
0.0207357574254274
0.0226631723344326
0.0244970079511404
0.0261620599776506
0.0275883544236421
0.028705608099699
0.0294345207512378
0.0296804588288068
0.0293371863663196
0.0283039417117834
0.0265089273452758
0.0239311382174491
0.0206185355782508
0.016692891716957
0.0123316533863544
0.0077399397268891
0.003129816846922
-0.0012931330129504
-0.005342224612832
-0.0088634807616472
-0.0117475753650069
-0.0139344241470098
-0.0154108479619026
-0.0162065550684928
-0.016388613730669
-0.0160509832203388
-0.0153011931106448
-0.0142486598342657
-0.0129955979064106
-0.0116321025416255
-0.0102367969229817
-0.0088774738833308
-0.0076064560562372
-0.0064537813887
-0.0054231006652116
-0.004491607658565
-0.0036142952740192
-0.00273416377604
-0.0017944974824786
-0.0007464364171028
0.0004463531076908
0.0018025897443294
0.0033206976950168
0.0049822926521301
0.0067607732489705
0.0086262170225381
0.0105410981923341
0.0124548217281699
0.014306828379631
0.0160375535488128
0.0175979658961296
0.0189527235925197
0.0200816728174686
0.0209813006222248
0.0216632671654224
0.0221508517861366
0.0224748589098453
0.0226693712174892
0.0227677877992391
0.0228012967854738
0.0228005424141883
0.0227914154529571
0.02277840860188
0.022726934403181
0.0225566253066062
0.0221465602517128
0.0213525239378213
0.0200337022542953
0.0180802028626203
0.0154351070523262
0.0121096959337592
0.0081907585263252
0.0038365456275641
-0.0007402282208204
-0.005300254561007
-0.0096101034432649
-0.0134686883538961
-0.0167248621582984
-0.0192889608442783
-0.0211338400840759
-0.0222848653793334
-0.0228065699338912
-0.0227895677089691
-0.0223400890827178
-0.0215742215514183
-0.0206114333122968
-0.0195622146129608
-0.018513323739171
-0.0175190828740596
-0.0166033171117305
-0.0157655626535415
-0.0149831296876072
-0.0142117738723754
-0.0133952433243393
-0.0124852508306503
-0.0114569813013076
-0.0103091672062873
-0.0090558612719178
-0.0077174850739538
-0.0063129859045147
-0.0048575145192444
-0.003366500372067
-0.0018600795883685
-0.0003622692311182
0.0011043879203498
0.0025224932469427
0.0038800800684839
0.005171678494662
0.0064000692218542
0.0075737629085779
0.0086981449276208
0.0097675435245037
0.0107669383287429
0.0116789722815155
0.0124865062534809
0.013168117031455
0.0136878229677677
0.0139840561896562
0.0139664011076092
0.0135245341807603
0.0125472825020551
0.0109457187354564
0.0086739007383584
0.0057454612106084
0.002244297415018
-0.0016803643666207
-0.0058383368887007
-0.0100280474871397
-0.0140578765422105
-0.0177578367292881
-0.0209841206669807
-0.0236211065202951
-0.0255855675786733
-0.0268335826694965
-0.0273650400340557
-0.0272209364920854
-0.0264764856547117
-0.0252333097159862
-0.0236086286604404
-0.0217205677181482
-0.0196732822805643
-0.0175506863743066
-0.0154205365106463
-0.0133366733789443
-0.0113349594175815
-0.009430986829102
-0.0076211071573197
-0.005884532816708
-0.0041881785728037
-0.0024940711446106
-0.0007676919922232
0.0010144230909645
0.0028598923236131
0.0047588944435119
0.0066866506822407
0.008611106313765
0.0105022508651018
0.0123351141810417
0.014083432033658
0.0157124828547239
0.0171815939247608
0.0184562020003795
0.0195196140557527
0.0203753486275672
0.021040666848421
0.0215396117419004
0.0219003092497587
0.0221523828804492
0.0223211105912923
0.0224204137921333
0.0224432293325662
0.022348815575242
0.022057032212615
0.0214554835110902
0.0204132217913866
0.0188001450151205
0.0165168233215808
0.0135272564366459
0.0098813073709607
0.0057219052687287
0.00127481110394
-0.0031825192272663
-0.0073686465620994
-0.011046340689063
-0.0140541289001703
-0.016316931694746
-0.0178460273891687
-0.0187370479106903
-0.0191595386713743
-0.0193309336900711
-0.019482534378767
-0.0198257490992546
-0.0205200873315334
-0.0216497629880905
-0.0232167951762676
-0.0251480434089899
-0.0273121297359466
-0.0295467656105756
-0.031692735850811
-0.0336234346032142
-0.0352571457624435
-0.0365481227636337
-0.0374655686318874
-0.0379718169569969
-0.0380054414272308
-0.0374755375087261
-0.0362698696553707
-0.0342664569616317
-0.0313422456383705
-0.027384914457798
-0.0223119668662548
-0.0160990934818983
-0.0088157560676336
-0.0006522890180349
0.0080809723585844
0.0169853568077087
0.0256238617002964
0.0335778221487998
0.0405003242194652
0.0461559779942035
0.0504419207572937
0.0533870086073875
0.0551297217607498
0.0558851957321167
0.0559103637933731
0.0554664321243763
0.0547776594758033
0.053994745016098
0.0531740635633468
0.052277885377407
0.0511954948306083
0.0497797578573226
0.0478875115513801
0.0454130545258522
0.0423116981983184
0.0386137962341308
0.0344250872731208
0.0299080647528171
0.0252486113458871
0.020624665543437
0.0161900222301483
0.0120694497600197
0.008355738595128
0.0051078256219625
0.0023533320054411
9.267311543226242e-05
-0.0017010890878736
-0.0030836616642773
-0.004134003072977
-0.004941722843796
-0.0055950987152755
-0.0061716334894299
-0.0067262239754199
-0.0072833420708775
-0.0078437132760882
-0.0083965212106704
-0.0089241657406091
-0.0094025861471891
-0.0098033733665943
-0.0100978389382362
-0.0102618122473359
-0.0102801648899912
-0.010149204172194
-0.0098761515691876
-0.0094785401597619
-0.008984693326056
-0.0084306336939334
-0.0078510576859116
-0.007270285859704
-0.0067027173936367
-0.0061627700924873
-0.0056706368923187
-0.0052461475133895
-0.0049000456929206
-0.0046322233974933
-0.004433661699295
-0.0042862445116043
-0.0041650980710983
-0.0040518157184123
-0.0039557088166475
-0.0039301626384258
-0.0040744245052337
-0.0045198574662208
-0.0054029114544391
-0.0068298615515232
-0.0088490415364503
-0.0114442594349384
-0.0145405549556016
-0.0180093515664339
-0.0216778721660375
-0.0253478083759546
-0.028816970065236
-0.0319000780582428
-0.03444504737854
-0.0363409854471683
-0.0375231057405471
-0.0379771217703819
-0.0377383753657341
-0.0368843041360378
-0.0355216339230537
-0.0337708294391632
-0.0317553430795669
-0.0295984018594026
-0.0274173803627491
-0.0253101121634244
-0.0233425199985504
-0.0215445850044488
-0.0199117623269557
-0.0184100735932588
-0.0169842988252639
-0.0155689790844917
-0.0141022894531488
-0.0125371068716049
-0.0108451535925269
-0.0090165557339787
-0.0070558972656726
-0.0049764518626034
-0.0027996008284389
-0.0005608226638287
0.0016888910904526
0.0038922901730984
0.0059968996793031
0.0079609090462327
0.0097572179511189
0.0113765681162476
0.0128261521458625
0.0141236754134297
0.0152892880141735
0.0163397639989852
0.0172864980995655
0.018128028139472
0.0188347455114126
0.0193414762616157
0.0195537917315959
0.0193580165505409
0.0186357628554105
0.017289251089096
0.0152694126591086
0.0125940619036555
0.009351429529488
0.0056916093453764
0.0018086821073666
-0.0020846687257289
-0.0057824002578854
-0.0091021619737148
-0.0118958530947566
-0.0140587538480758
-0.0155342239886522
-0.0163089595735073
-0.0164070185273885
-0.0158907417207956
-0.0148584358394145
-0.013431591913104
-0.0117391571402549
-0.0099044805392622
-0.008034748956561
-0.0062123471871018
-0.0044903215020895
-0.002892886288464
-0.0014166152104735
-3.328174352645874e-05
0.0012998236343264
0.0026271501556038
0.0039896294474601
0.0054245628416538
0.0069618332199752
0.0086160134524106
0.0103816902264952
0.0122357010841369
0.0141420364379882
0.0160554889589548
0.0179247483611106
0.0196960512548685
0.021318394690752
0.0227486789226531
0.0239511094987392
0.0248928591609001
0.0255459621548652
0.0258953049778938
0.0259439907968044
0.0257141999900341
0.0252434276044368
0.0245739873498678
0.0237423032522201
0.022775650024414
0.0216914191842079
0.0204912051558494
0.0191517118364572
0.017619477584958
0.0158157330006361
0.0136543288826942
0.0110659869387745
0.0080199856311082
0.0045409719459712
0.000716105569154
-0.0033110450021922
-0.0073555572889745
-0.0112157156690955
-0.0147062083706259
-0.0176838114857673
-0.0200534798204898
-0.0217626020312309
-0.02279544621706
-0.023169508203864
-0.0229310542345047
-0.0221512466669082
-0.0209228806197643
-0.019352963194251
-0.0175519678741693
-0.0156259387731552
-0.0136713786050677
-0.0117667634040117
-0.0099610229954123
-0.0082711605355143
-0.0066938828676939
-0.0052175805903971
-0.0038252589292824
-0.0024942201562225
-0.0011986754834651
8.496642112731934e-05
0.0013740854337811
0.0026789493858814
0.0040023676119744
0.0053392415866255
0.0066790063865482
0.0080102374777197
0.0093227671459317
0.0106087429448962
0.0118651753291487
0.013091966509819
0.0142836291342973
0.0154236126691102
0.0164869651198387
0.0174472425132989
0.0182801038026809
0.0189624726772308
0.0194730386137962
0.0197962746024131
0.0199269112199544
0.0198721010237932
0.0196496061980724
0.0192815102636814
0.0187842659652233
0.0181575864553451
0.0173761062324047
0.016384981572628
0.0151012791320681
0.0134278759360313
0.0112803699448704
0.0086161401122808
0.0054537048563361
0.0018766345456242
-0.001976057421416
-0.0059264441952109
-0.0097773550078272
-0.0133332032710313
-0.0164202041923999
-0.0189047791063785
-0.0207054708153009
-0.0217938274145126
-0.0221874490380287
-0.0219444595277309
-0.0211620014160871
-0.0199700035154819
-0.0185160860419273
-0.0169478468596935
-0.0153965111821889
-0.0139617323875427
-0.0127011518925428
-0.0116295292973518
-0.0107254795730113
-0.0099419457837939
-0.0092189656570553
-0.0084949787706136
-0.0077144838869571
-0.0068328054621815
-0.0058176349848508
-0.0046521998010575
-0.0033435686491429
-0.0019267540192231
-0.0004575622733682
0.0010006818920373
0.0023900559172034
0.0036674083676189
0.0048081669956445
0.0058049466460943
0.0066633434034883
0.0073966039344668
0.0080216266214847
0.0085574341937899
0.009023318067193
0.0094374036416411
0.0098188798874616
0.010186780244112
0.0105484426021575
0.0108868479728698
0.0111536113545298
0.0112653318792581
0.0111093381419777
0.0105639956891536
0.0095255216583609
0.0079325623810291
0.0057836892083287
0.003144652582705
0.0001443857327103
-0.003041953779757
-0.0062207039445638
-0.0092081697657704
-0.0118512650951743
-0.0140416054055094
-0.015725303441286
-0.0169039610773324
-0.0176251213997602
-0.01796580478549
-0.0180148817598819
-0.0178615823388099
-0.0175892766565084
-0.0172685422003269
-0.0169512461870908
-0.0166684165596961
-0.0164296999573707
-0.0162238869816064
-0.0160230137407779
-0.0157888270914554
-0.0154770966619253
-0.0150423599407076
-0.0144472066313028
-0.0136692598462104
-0.0127008063718676
-0.0115471919998526
-0.0102271577343344
-0.0087711010128259
-0.0072156824171543
-0.0055983583442866
-0.0039550801739096
-0.0023184712044894
-0.0007138790097087
0.0008421652019023
0.0023391093127429
0.0037711763288825
0.0051392968744039
0.0064465487375855
0.0076833227649331
0.008816584944725
0.0097958147525787
0.0105698844417929
0.0111019220203161
0.0113760791718959
0.0113985482603311
0.0111959083005785
0.0108110187575221
0.0102956015616655
0.0096967937424778
0.0090372264385223
0.008297637104988
0.0074155670590698
0.0063020256347954
0.0048623350448906
0.0030136290006339
0.0007060542702674
-0.0020537269301712
-0.0051901605911552
-0.0085626943036913
-0.0119816325604915
-0.0152334570884704
-0.0181117095053195
-0.0204432811588048
-0.0221029072999954
-0.0230191312730312
-0.0231764074414968
-0.022611379623413
-0.0214002877473831
-0.0196409039199352
-0.0174417756497859
-0.0149232279509305
-0.0122156124562025
-0.0094479974359273
-0.0067357551306486
-0.0041718948632478
-0.001819659024477
0.0002938732504844
0.0021768808364868
0.0038635078817605
0.0054033584892749
0.006853749975562
0.0082726553082466
0.0097108092159032
0.0112069128081202
0.0127876857295632
0.014465351589024
0.0162294972687959
0.0180436465889215
0.0198540836572647
0.0216031782329082
0.0232370235025882
0.0247088279575109
0.0259839501231908
0.0270455479621887
0.0278958026319742
0.0285514909774065
0.0290375296026468
0.0293825268745422
0.0296159870922565
0.0297659486532211
0.0298585034906864
0.029914703220129
0.0299406554549932
0.0299227144569158
0.0298365578055381
0.0296594575047492
0.0293726455420255
0.0289510153234004
0.0283474884927272
0.0274838749319314
0.026254016906023
0.0245377905666828
0.0222242325544357
0.0192406382411718
0.0155792217701673
0.0113120237365365
0.0065884641371667
0.0016130288131535
-0.0033901797141879
-0.008209940046072
-0.0126673867926001
-0.0166248176246881
-0.0199887454509735
-0.022708835080266
-0.0247729644179344
-0.0262004397809505
-0.0270375926047563
-0.0273544769734144
-0.0272379145026206
-0.0267827585339546
-0.026084940880537
-0.0252338349819183
-0.0243019182235002
-0.0233391504734754
-0.0223778150975704
-0.0214384458959102
-0.0205291286110878
-0.0196432135999202
-0.0187590196728706
-0.0178415551781654
-0.0168482605367898
-0.0157379563897848
-0.0144793689250946
-0.0130565110594034
-0.0114704556763172
-0.0097397593781352
-0.0078998515382409
-0.0059966007247567
-0.0040742186829447
-0.0021697743795812
-0.0003190268762409
0.0014397068880498
0.0030706264078617
0.0045481533743441
0.005862305406481
0.0070201558992266
0.008043116889894
0.0089611355215311
0.009807021357119
0.0106128808110952
0.0114067960530519
0.012209746055305
0.0130318030714988
0.0138644855469465
0.0146725699305534
0.0153871988877654
0.0158986970782279
0.0160599090158939
0.0157101731747388
0.0147100482136011
0.0129723958671092
0.0104845147579908
0.007318359799683
0.003625584533438
-0.0003811435308307
-0.004455417394638
-0.0083481166511774
-0.0118357865139842
-0.0147401634603738
-0.0169386845082044
-0.0183686353266239
-0.0190264321863651
-0.0189645178616046
-0.0182861015200614
-0.0171331092715263
-0.0156664457172155
-0.0140456827357411
-0.0124135678634047
-0.010883854702115
-0.0095314132049679
-0.0083873709663748
-0.007440535351634
-0.0066439686343073
-0.0059268763288855
-0.0052094776183366
-0.0044148005545139
-0.0034746781457215
-0.0023361656349152
-0.0009749131277203
0.0005945335142314
0.0023241334129124
0.0041475794278085
0.0059942007064819
0.0077980747446417
0.0095031522214412
0.0110666202381253
0.0124617349356412
0.0136792678385972
0.0147262644022703
0.015621437691152
0.0163891296833753
0.0170561112463474
0.017650369554758
0.0181954111903905
0.0187014155089855
0.019162805750966
0.0195640716701746
0.019886715337634
0.0201134979724884
0.0202284753322601
0.0202084574848413
0.0200075022876262
0.019544817507267
0.0187051370739936
0.0173544082790613
0.0153656778857111
0.0126467244699597
0.0091673675924539
0.0049817245453596
0.0002288231626152
-0.004891665186733
-0.0101490765810012
-0.015305483713746
-0.0201376080513
-0.0244572144001722
-0.0281242504715919
-0.0310505405068397
-0.033196847885847
-0.0345666594803333
-0.0351989418268203
-0.0351618975400924
-0.034547634422779
-0.0334647074341774
-0.0320263244211673
-0.0303374491631984
-0.0284887365996837
-0.0265577677637338
-0.0246091485023498
-0.0226897727698087
-0.0208222735673189
-0.0190020781010389
-0.0172026623040437
-0.0153868971392512
-0.0135169327259063
-0.0115592051297426
-0.0094884932041168
-0.0072933128103613
-0.0049790129996836
-0.0025668200105428
-8.883979171514511e-05
0.0024207853712141
0.0049295988865196
0.007399913854897
0.0097836563363671
0.0120288301259279
0.0140913110226392
0.015943843871355
0.0175793804228305
0.0190071761608123
0.0202447175979614
0.0213124565780162
0.0222333036363124
0.0230335853993892
0.0237418450415134
0.0243842415511608
0.0249799508601427
0.0255399961024522
0.0260653980076313
0.0265390258282423
0.0269131381064653
0.0270996242761611
0.0269699022173881
0.0263683572411537
0.025136686861515
0.0231430623680353
0.0203112140297889
0.0166422612965106
0.0122223021462559
0.007216646336019
0.0018538017757236
-0.0036010863259434
-0.0088779479265213
-0.0137288998812437
-0.0179516579955816
-0.0214102789759635
-0.0240417458117008
-0.0258456971496343
-0.0268688425421714
-0.027190176770091
-0.026908291503787
-0.0261331461369991
-0.0249799117445945
-0.0235612522810697
-0.0219798535108566
-0.0203226041048765
-0.0186538696289062
-0.0170092433691024
-0.0153930438682436
-0.0137805547565221
-0.0121295480057597
-0.0103996638208627
-0.008565760217607
-0.0066202692687511
-0.0045727738179266
-0.002449054736644
-0.0002855528146028
0.0018795421347022
0.0040121581405401
0.0060827019624412
0.0080657666549086
0.0099417604506015
0.0116973835974931
0.013324299827218
0.0148192197084426
0.0161862298846244
0.0174352526664733
0.0185727067291736
0.0195932649075984
0.0204829517751932
0.0212288871407508
0.021824162453413
0.0222680047154426
0.0225665979087352
0.0227322541177272
0.0227803438901901
0.0227280277758836
0.0225944779813289
0.0224000383168458
0.0221625454723835
0.0218906439840793
0.0215749070048332
0.0211728923022747
0.0205901209264993
0.0196756664663553
0.0182455275207757
0.0161249227821826
0.0131916552782058
0.0094072539359331
0.0048308121040463
-0.0003836788237094
-0.0060052941553294
-0.0117568355053663
-0.0173497386276721
-0.0225153937935829
-0.0270310547202825
-0.0307360738515853
-0.0335345417261123
-0.0353932529687881
-0.0363426655530929
-0.0364721342921257
-0.0359145328402519
-0.0348270945250988
-0.0333715789020061
-0.0316955782473087
-0.0299219265580177
-0.0281466506421566
-0.0264369025826454
-0.0248266868293285
-0.0233157146722078
-0.0218726005405187
-0.0204425230622291
-0.0189593471586704
-0.0173566993325948
-0.0155776878818869
-0.0135876294225454
-0.0113829169422388
-0.0089887324720621
-0.0064517091959714
-0.0038333844859153
-0.0012019246350973
0.0013778670690953
0.0038512379396706
0.0061768814921379
0.0083295023068785
0.0102988127619028
0.0120847970247268
0.0136950183659791
0.0151454284787178
0.0164588540792465
0.0176575034856796
0.0187552943825721
0.0197566151618957
0.0206590853631496
0.0214561112225055
0.0221401248127222
0.0227053016424179
0.023144394159317
0.0234364792704582
0.0235305055975914
0.0233364142477512
0.0227322019636631
0.0215863566845655
0.0197894666343927
0.0172856450080871
0.0140941767022013
0.0103148911148309
0.0061161862686276
0.001711058197543
-0.0026705367490649
-0.0068066176027059
-0.0105044227093458
-0.0136162471026182
-0.0160440169274806
-0.0177362821996212
-0.0186877213418483
-0.0189399905502796
-0.0185770895332098
-0.0177152454853057
-0.0164909437298774
-0.0150461252778768
-0.0135095352306962
-0.0119828442111611
-0.010537919588387
-0.0092186965048313
-0.0080416370183229
-0.0069957561790943
-0.0060449382290244
-0.005134635604918
-0.0042017474770545
-0.0031860445160418
-0.00204161205329
-0.0007436478044837
0.0007113288156688
0.0023084455169737
0.0040174848400056
0.0057974606752395
0.0076041314750909
0.0093934265896677
0.0111183943226933
0.012730298563838
0.0141861783340573
0.0154544170945882
0.0165168829262256
0.0173707772046327
0.0180297922343015
0.0185219049453735
0.0188829507678747
0.0191493816673755
0.0193531326949596
0.0195175092667341
0.0196537710726261
0.0197627320885658
0.0198407787829637
0.0198754593729972
0.0198244750499725
0.0195974130183458
0.0190566834062337
0.0180353317409753
0.0163660459220409
0.0139159681275486
0.0106177190318703
0.0064895069226622
0.0016419626772403
-0.0037309220060706
-0.0093765575438737
-0.0150165539234876
-0.0203774161636829
-0.0252149496227502
-0.0293322931975126
-0.032593734562397
-0.0349373221397399
-0.0363792553544044
-0.036999836564064
-0.0369181297719478
-0.0362702161073684
-0.0351932644844055
-0.0338125824928283
-0.0322339758276939
-0.0305404942482709
-0.0287911035120487
-0.0270221997052431
-0.0252494812011718
-0.0234684534370899
-0.0216565895825624
-0.0197784695774316
-0.0177953634411096
-0.0156788099557161
-0.0134201822802424
-0.0110307540744543
-0.0085348021239042
-0.0059618507511913
-0.0033430675975978
-0.0007108217105269
0.0019014892168343
0.0044604381546378
0.0069360369816422
0.0093059064820408
0.0115554062649607
0.0136747881770133
0.0156590063124895
0.0175101365894079
0.0192346256226301
0.0208336450159549
0.0222968533635139
0.0236056670546531
0.0247422903776168
0.0256982147693634
0.0264766905456781
0.0270895510911941
0.0275541543960571
0.0278915558010339
0.0281228702515363
0.0282638035714626
0.0283161345869302
0.0282538346946239
0.0280105844140052
0.0274785794317722
0.026518028229475
0.024974338710308
0.0227072462439537
0.0196288153529167
0.0157360881567001
0.0111275073140859
0.0059975488111376
0.0006083701737225
-0.0047536804340779
-0.0098231276497244
-0.0143900774419307
-0.0183173902332782
-0.0215408094227314
-0.0240599885582923
-0.0259240716695785
-0.0272108316421508
-0.0280074849724769
-0.0284014623612165
-0.0284760352224111
-0.0283053275197744
-0.0279497653245925
-0.0274528823792934
-0.0268417745828628
-0.0261315684765577
-0.0253284387290477
-0.0244295597076416
-0.0234244745224714
-0.0222979336977005
-0.0210308413952589
-0.0196006745100021
-0.0179833620786666
-0.0161549244076013
-0.014095751568675
-0.0118013443425297
-0.0092901326715946
-0.0066001126542687
-0.0037802327424287
-0.0008823024109005
0.0020451722666621
0.004959883634001
0.0078268041834235
0.0106193590909242
0.013319426216185
0.0159151442348957
0.0183972492814064
0.0207551773637533
0.0229766685515642
0.0250510685145854
0.026968827471137
0.0287153739482164
0.0302670933306217
0.0315949097275733
0.0326741114258766
0.0334938466548919
0.0340602807700634
0.0343927703797817
0.0345167815685272
0.0344571992754936
0.0342316031455993
0.0338417179882526
0.0332634858787059
0.0324385054409503
0.0312732644379138
0.0296524446457624
0.0274607259780168
0.0246025957167148
0.0210224334150552
0.0167273320257663
0.0118013313040137
0.0064026685431599
0.0007469318807125
-0.0049195648171007
-0.0103510338813066
-0.0153301898390054
-0.0196873340755701
-0.0233092047274112
-0.0261384025216102
-0.0281657874584198
-0.0294192098081111
-0.0299543924629688
-0.0298548713326454
-0.0292371325194835
-0.0282459687441587
-0.0270341522991657
-0.0257369093596935
-0.0244544576853513
-0.0232470519840717
-0.0221382100135087
-0.0211196392774581
-0.0201556142419576
-0.0191903840750455
-0.018160443753004
-0.0170071311295032
-0.0156857799738645
-0.0141697544604539
-0.0124494414776563
-0.0105338152498006
-0.008458063006401
-0.0062842518091201
-0.004087880719453
-0.0019410168752074
9.907782077789308e-05
0.0019950163550674
0.0037282481789588
0.0052943918853998
0.0066995657980442
0.0079587046056985
0.0090923868119716
0.0101210959255695
0.0110617941245436
0.0119310021400451
0.0127500677481293
0.0135422935709357
0.0143203865736722
0.0150774084031581
0.0157913882285356
0.0164352189749479
0.0169778205454349
0.017376447096467
0.0175688527524471
0.0174700003117322
0.0169745720922946
0.0159682221710681
0.014349321834743
0.0120554398745298
0.009084302932024
0.0055049899965524
0.0014602420851588
-0.0028475690633058
-0.0071898391470313
-0.0113459508866071
-0.0151226464658975
-0.0183643270283937
-0.0209626536816358
-0.0228619966655969
-0.024055827409029
-0.0245780870318412
-0.0244952011853456
-0.0239002257585525
-0.0229074321687221
-0.0216424092650413
-0.0202266778796911
-0.018761608749628
-0.0173162873834371
-0.0159264560788869
-0.0146053005009889
-0.0133519377559423
-0.0121509525924921
-0.01097181905061
-0.0097746159881353
-0.0085201570764184
-0.0071777766570448
-0.0057272100821137
-0.0041593899950385
-0.0024785937275737
-0.0007015521987341
0.0011457441141828
0.0030292989686131
0.0049101342447102
0.0067521622404456
0.0085254283621907
0.0102002313360571
0.011744231916964
0.013127090409398
0.0143254045397043
0.015325610525906
0.0161253474652767
0.0167336650192737
0.0171706657856702
0.0174655765295028
0.0176522769033908
0.0177635848522186
0.017827920615673
0.017869371920824
0.0179077666252851
0.0179564356803894
0.0180151183158159
0.0180546641349792
0.0180008523166179
0.0177321620285511
0.0170951224863529
0.0159293003380298
0.0140965338796377
0.01150952745229
0.0081508532166481
0.0040803989395499
-0.000564532354474
-0.0055793528445065
-0.0107172494754195
-0.0157227404415607
-0.0203613992780447
-0.024439487606287
-0.0278171561658382
-0.0304175652563571
-0.0322256311774253
-0.0332768373191356
-0.033644001930952
-0.0334242768585681
-0.0327270366251468
-0.0316629335284233
-0.0303341560065746
-0.0288282856345176
-0.0272155348211526
-0.0255480147898197
-0.0238592326641082
-0.0221621897071599
-0.02044921182096
-0.0186949539929628
-0.0168632045388221
-0.0149194672703742
-0.0128434197977185
-0.0106339044868946
-0.0083073116838932
-0.0058915354311466
-0.003417870029807
-0.0009167566895484
0.0015806825831532
0.0040410249494016
0.0064304620027542
0.0087181851267814
0.010879062116146
0.012896011583507
0.0147636998444795
0.0164914969354867
0.0180986579507589
0.0196004658937454
0.0209977161139249
0.0222789905965328
0.023428775370121
0.0244334824383258
0.0252846162766218
0.0259799435734748
0.0265240687876939
0.0269292294979095
0.0272154156118631
0.0274079404771327
0.0275312289595603
0.0276018008589744
0.0276269875466823
0.0276061259210109
0.0275189392268657
0.0273021012544631
0.0268370993435382
0.0259633865207433
0.0245105437934398
0.0223358664661645
0.0193578489124774
0.0155801316723227
0.0110990004613995
0.0060910424217581
0.0007875914452597
-0.0045554027892649
-0.0096882358193397
-0.0143944909796118
-0.0185065921396017
-0.0219085440039634
-0.0245361644774675
-0.0263808406889438
-0.0274885930120944
-0.0279480889439582
-0.0278722997754812
-0.0273813493549823
-0.0265900995582342
-0.025598932057619
-0.0244856625795364
-0.0233005862683057
-0.0220683868974447
-0.0207952298223972
-0.0194748658686876
-0.0180922821164131
-0.0166251175105571
-0.0150431208312511
-0.013313035480678
-0.0114117534831166
-0.0093388594686985
-0.0071205906569957
-0.0048034805804491
-0.002441911958158
-8.718948811292648e-05
0.0022183218970894
0.004442483652383
0.0065622804686427
0.0085621876642107
0.0104318931698799
0.0121657801792025
0.0137651748955249
0.0152396112680435
0.0166066121309995
0.017887270078063
0.019094742834568
0.020226664841175
0.0212687868624925
0.0222014710307121
0.0230040624737739
0.0236600786447525
0.0241630896925926
0.024518197402358
0.0247374512255191
0.0248346142470836
0.0248236916959285
0.0247197337448596
0.024537056684494
0.0242827534675598
0.0239473339170217
0.0234908834099769
0.0228272303938865
0.0218234863132238
0.0203255955129861
0.0181970484554767
0.0153535287827253
0.0117861237376928
0.0075705824419856
0.0028606099076569
-0.0021332153119146
-0.0071705211885273
-0.0120073184370994
-0.0164211094379425
-0.0202336348593235
-0.0233238115906715
-0.0256278403103351
-0.0271369107067585
-0.0278985984623432
-0.028011605143547
-0.0276073329150676
-0.0268265716731548
-0.0258018560707569
-0.0246474929153919
-0.0234534945338964
-0.0222823917865753
-0.02116902731359
-0.0201217103749513
-0.0191247556358575
-0.0181432329118251
-0.0171299707144498
-0.0160329770296812
-0.0148013643920421
-0.0133925806730985
-0.0117830354720354
-0.0099764540791511
-0.0080029470846056
-0.0059098554775118
-0.0037519976031035
-0.0015865069581195
0.000529084005393
0.002540543442592
0.0044042444787919
0.0060928361490368
0.0075953598134219
0.0089151784777641
0.0100678633898496
0.011078386567533
0.0119781997054815
0.0127996364608407
0.0135671328753232
0.0142911737784743
0.0149690164253115
0.0155905960127711
0.016143811866641
0.0166156478226184
0.0169933009892702
0.0172678288072347
0.0174326822161674
0.0174710601568222
0.0173382982611656
0.0169510021805763
0.016191404312849
0.0149295506998896
0.0130561776459217
0.010509324260056
0.0072867618873715
0.0034519266337156
-0.0008652368560433
-0.0054783984087407
-0.010165718384087
-0.0146967396140098
-0.0188592374324798
-0.0224809311330318
-0.0254431031644344
-0.0276841092854738
-0.0291937924921512
-0.0300048105418682
-0.0301846750080585
-0.0298251062631607
-0.0290274024009704
-0.0278919152915477
-0.0265168193727731
-0.0249970611184835
-0.0234161540865898
-0.0218370053917169
-0.0202972497791051
-0.0188084710389375
-0.0173589941114187
-0.0159183479845523
-0.0144420489668846
-0.0128791434690356
-0.0111828818917274
-0.0093211345374584
-0.0072821900248527
-0.0050727077759802
-0.0027126763015985
-0.0002373661845922
0.0022971336729824
0.0048180688172578
0.0072495117783546
0.0095226513221859
0.0115801123902201
0.0133813908323645
0.0149092562496662
0.016172207891941
0.0172018948942422
0.0180466659367084
0.0187641978263854
0.0194147545844316
0.0200538635253906
0.0207264088094234
0.0214649699628353
0.0222869534045457
0.023186732083559
0.0241319462656974
0.0250722579658031
0.0259543992578983
0.0267303455621004
0.0273548569530248
0.0277792699635028
0.0279445797204971
0.0277724433690309
0.027160856872797
0.0259937867522239
0.0241613574326038
0.0215826518833637
0.0182308722287416
0.0141553794965147
0.009484545327723
0.004405845887959
-0.0008612924721091
-0.0060890698805451
-0.0110621377825737
-0.0155958402901887
-0.0195500049740076
-0.0228359196335077
-0.0254134908318519
-0.0272815357893705
-0.0284687262028455
-0.0290282238274812
-0.0290333703160285
-0.0285716690123081
-0.027737570926547
-0.0266248136758804
-0.0253189839422702
-0.0238934587687253
-0.0224093217402696
-0.0209146849811077
-0.0194397456943988
-0.0179904662072658
-0.0165470391511917
-0.0150698013603687
-0.0135117527097463
-0.0118329329416155
-0.0100099723786115
-0.0080391345545649
-0.0059337606653571
-0.0037180026993155
-0.0014210222288966
0.0009268838912248
0.0032938355579972
0.0056399009190499
0.0079134320840239
0.0100578628480434
0.0120236258953809
0.0137774506583809
0.0153058562427759
0.0166137646883726
0.0177212543785572
0.0186589397490024
0.0194619223475456
0.0201648063957691
0.0207988899201154
0.0213883500546216
0.02194744348526
0.0224843136966228
0.0230026468634605
0.0234938785433769
0.0239330232143402
0.0242859330028295
0.0245188940316438
0.024600762873888
0.0244937762618064
0.0241383221000432
0.0234440006315708
0.0222959537059068
0.0205764006823301
0.0181934088468551
0.015106588602066
0.0113444682210683
0.00701395701617
0.0022974959574639
-0.0025710542686283
-0.0073452414944767
-0.0118004512041807
-0.0157559588551521
-0.0190866440534591
-0.0217260625213384
-0.0236640721559524
-0.0249404534697532
-0.0256315134465694
-0.025833386927843
-0.0256521590054035
-0.0252006612718105
-0.024593262001872
-0.0239358730614185
-0.0233137253671884
-0.0227801352739334
-0.0223527904599905
-0.0220213513821363
-0.0217580497264862
-0.0215213447809219
-0.021253515034914
-0.020880676805973
-0.0203223172575235
-0.0195062197744846
-0.0183796361088752
-0.0169172249734401
-0.015127751044929
-0.0130546512082219
-0.0107688391581177
-0.0083566587418317
-0.0059042018838226
-0.0034838826395571
-0.0011541871353983
0.0010315999388694
0.0030232081189751
0.0047795744612813
0.00627579446882
0.007505933754146
0.0084799043834209
0.0092188492417335
0.0097533725202083
0.0101209469139575
0.0103606171905994
0.0105099016800522
0.0106058903038501
0.010685808956623
0.0107846511527895
0.0109321735799312
0.0111428871750831
0.011393092572689
0.0116022117435932
0.01163877453655
0.0113483313471078
0.0105892121791839
0.009264625608921
0.0073440875858068
0.0048716245219111
0.0019632959738373
-0.0012036687694489
-0.0044127339497208
-0.0074385986663401
-0.0100763710215687
-0.0121612893417477
-0.0135784829035401
-0.0142688583582639
-0.0142348511144518
-0.0135397817939519
-0.0122951148077845
-0.0106414193287491
-0.0087294755503535
-0.0067029539495706
-0.0046850806102156
-0.0027708234265446
-0.001023581251502
0.0005246270447969
0.0018705129623413
0.0030359039083123
0.0040627522394061
0.0050045978277921
0.0059177055954933
0.0068546934053301
0.0078561464324593
0.0089409388601779
0.0101023809984326
0.011311394162476
0.0125240851193666
0.0136920819059014
0.0147713758051395
0.0157258827239274
0.0165283977985382
0.0171626023948192
0.0176251046359539
0.017925176769495
0.0180831886827945
0.0181308761239051
0.0181122235953807
0.0180781558156013
0.0180757790803909
0.0181437954306602
0.0183158777654171
0.0186185967177152
0.0190559439361095
0.019589964300394
0.0201326180249452
0.0205515120178461
0.0206843297928571
0.020361378788948
0.0194353908300399
0.0178122650831937
0.0154732102528214
0.0124821588397026
0.0089801531285047
0.0051648337393999
0.0012545227073132
-0.0025473232381045
-0.0060734767466783
-0.0092006167396903
-0.0118465218693017
-0.0139628117904067
-0.0155317652970552
-0.016567900776863
-0.0171172395348548
-0.0172506254166364
-0.0170535296201705
-0.0166152492165565
-0.0160189513117074
-0.0153311975300312
-0.0145927490666508
-0.0138210542500019
-0.0130238216370344
-0.0122059425339102
-0.0113654062151908
-0.0104885445907711
-0.0095491651445627
-0.0085133910179138
-0.0073494808748364
-0.0060377060435712
-0.0045773638412356
-0.0029890937730669
-0.0013114688917994
0.0004064589738845
0.0021133478730916
0.0037619825452566
0.0053148972801864
0.0067469351924955
0.0080400854349136
0.0091775692999362
0.0101459734141826
0.0109413200989365
0.0115723293274641
0.0120590887963771
0.0124284671619534
0.0127092907205224
0.0129278860986232
0.013102781958878
0.0132381319999694
0.0133140347898006
0.0132742188870906
0.0130200311541557
0.0124190626665949
0.0113232936710119
0.0095888935029506
0.007101560011506
0.0038095507770776
-0.0002495162189006
-0.0049436362460255
-0.0100630838423967
-0.0153490602970123
-0.0205264613032341
-0.0253363382071256
-0.0295633785426616
-0.0330509543418884
-0.035702459514141
-0.0374784618616104
-0.0383927971124649
-0.0385023616254329
-0.0378963276743888
-0.0366918519139289
-0.0350289568305015
-0.0330572947859764
-0.0309170428663492
-0.028721559792757
-0.0265481397509574
-0.0244362764060497
-0.0223910827189683
-0.0203907750546932
-0.0183964669704437
-0.016362726688385
-0.0142465028911829
-0.0120125003159046
-0.0096357120200991
-0.0071035721339285
-0.0044217607937753
-0.0016215753275901
0.0012403969885781
0.0040917810983955
0.0068564405664801
0.009465005248785
0.0118625089526176
0.0140129690989851
0.0159007720649242
0.0175284706056118
0.0189129225909709
0.020082339644432
0.0210728477686643
0.0219226237386465
0.0226683318614959
0.0233459901064634
0.0239872634410858
0.0246090739965438
0.0252088196575641
0.0257693193852901
0.0262636225670576
0.0266537815332412
0.0268848873674869
0.0268768183887004
0.0265204589813947
0.0256856959313154
0.024240531027317
0.0220766086131334
0.0191357228904962
0.0154312513768672
0.0110610863193869
0.0062064253725111
0.0011072480119764
-0.0039802100509405
-0.0088227065280079
