bvp
-0.0460729263722896
-0.0463917925953865
-0.0456570498645305
-0.0440520830452442
-0.0417719483375549
-0.0390091687440872
-0.0359402932226657
-0.032714731991291
-0.0294463876634836
-0.0262088570743799
-0.0230353996157646
-0.0199226401746273
-0.0168375931680202
-0.0137292789295315
-0.0105424402281641
-0.0072295600548386
-0.0037596812471747
-0.0001233294606208
0.0036655040457844
0.0075702257454395
0.0115367183461785
0.015500720590353
0.0193946342915296
0.0231526177376508
0.0267136637121438
0.0300244055688381
0.0330429077148437
0.0357411913573741
0.0381045676767826
0.0401291437447071
0.0418200604617595
0.0431904569268226
0.0442599467933177
0.04505255818367
0.0455935262143611
0.0459058545529842
0.0460091345012187
0.0459196232259273
0.0456491969525814
0.0452047102153301
0.0445893481373786
0.0438044592738151
0.0428504236042499
0.0417268201708793
0.0404325425624847
0.0389668643474578
0.0373313128948211
0.0355304665863513
0.0335709080100059
0.0314572378993034
0.0291798468679189
0.0266928561031818
0.0238929446786642
0.020615292713046
0.016653437167406
0.0117989256978034
0.0058921873569488
-0.0011279545724391
-0.009191894903779
-0.0180933382362127
-0.0275086369365453
-0.0370360687375068
-0.0462479069828987
-0.0547442734241485
-0.0621967241168022
-0.0683735236525535
-0.0731462463736534
-0.076482705771923
-0.0784318521618843
-0.0791058465838432
-0.0786620303988456
-0.0772845745086669
-0.0751671195030212
-0.0724980607628822
-0.0694475248456001
-0.0661560744047164
-0.0627278685569763
-0.0592298991978168
-0.0556940883398056
-0.0521198436617851
-0.048479825258255
-0.0447308644652366
-0.0408269092440605
-0.0367304533720016
-0.0324205309152603
-0.0278974026441574
-0.0231857784092426
-0.0183361917734146
-0.0134225795045495
-0.0085357166826725
-0.0037735854275524
0.0007685509626753
0.0050052907317876
0.0088656451553106
0.0122971162199974
0.0152695383876562
0.017777357250452
0.0198398791253566
0.0215004887431859
0.0228247754275798
0.0238949581980705
0.0248005632311105
0.0256292521953582
0.0264595616608858
0.0273554380983114
0.0283632148057222
0.0295109003782272
0.0308088604360818
0.0322514474391937
0.0338186770677566
0.0354765467345714
0.0371770597994327
0.0388598069548606
0.0404533222317695
0.0418722927570343
0.0430090054869651
0.0437213964760303
0.0438244678080081
0.0430959500372409
0.0413036197423934
0.0382501520216465
0.0338230356574058
0.0280351042747497
0.0210434459149837
0.0131420101970434
0.0047316774725914
-0.0037256511859595
-0.0117609417065978
-0.0189509503543376
-0.0249618999660015
-0.0295759178698062
-0.0326967053115367
-0.0343393012881279
-0.0346112102270126
-0.0336892120540142
-0.0317955017089843
-0.0291770733892917
-0.0260887965559959
-0.0227778516709804
-0.0194676388055086
-0.016341395676136
-0.013528648763895
-0.0110985618084669
-0.0090610794723033
-0.0073740617372095
-0.005955119151622
-0.0046973321586847
-0.0034861343447118
-0.0022145987022668
-0.0007970902370288
0.000820790301077
0.0026593913789838
0.0047079278156161
0.0069299098104238
0.0092685669660568
0.0116511201485991
0.0139944329857826
0.0162143111228942
0.0182362254709005
0.0200027637183666
0.0214758794754743
0.0226367451250553
0.023485155776143
0.0240373872220516
0.024322435259819
0.0243776943534612
0.0242439359426498
0.0239588934928178
0.0235520917922258
0.0230442769825458
0.022449791431427
0.0217792764306068
0.0210414752364158
0.0202420782297849
0.0193760953843593
0.0184105820953845
0.0172624289989471
0.0157856754958629
0.0137791708111763
0.011014842428267
0.0072811925783753
0.0024322196841239
-0.0035703899338841
-0.0106315519660711
-0.0185198746621608
-0.0268888268619775
-0.0353172793984413
-0.0433606952428817
-0.0506028532981872
-0.0566982217133045
-0.0613976567983627
-0.0645562931895256
-0.0661277845501899
-0.0661506652832031
-0.0647324621677398
-0.0620343573391437
-0.0582555159926414
-0.0536162964999675
-0.0483415238559246
-0.0426465719938278
-0.0367274209856987
-0.0307531468570232
-0.0248608011752367
-0.0191538222134113
-0.0137037057429552
-0.0085536576807498
-0.0037233382463455
0.0007861303165555
0.0049879718571901
0.0089059825986623
0.0125691844150424
0.0160054937005043
0.0192363634705543
0.0222727600485086
0.0251139774918556
0.0277508124709129
0.0301716122776269
0.0323675312101841
0.0343338027596473
0.0360683836042881
0.037571296095848
0.0388448312878608
0.0398930236697196
0.0407208167016506
0.0413349159061908
0.0417462289333343
0.0419712699949741
0.0420309528708457
0.0419480130076408
0.0417448058724403
0.0414410009980201
0.0410507768392562
0.0405811741948127
0.0400315523147583
0.0393921956419944
0.0386421754956245
0.0377481058239936
0.0366618670523166
0.0353155918419361
0.0336191095411777
0.0314667299389839
0.0287547707557678
0.0254061501473188
0.0213945396244525
0.0167599655687809
0.0116122458130121
0.0061231711879372
0.0005082357674837
-0.0049998154863715
-0.0101791592314839
-0.0148430559784173
-0.0188567359000444
-0.022144179791212
-0.0246859230101108
-0.0265120714902877
-0.0276924781501293
-0.0283250659704208
-0.0285232104361057
-0.0284025557339191
-0.0280695166438817
-0.0276134442538023
-0.0271021854132413
-0.0265803206712007
-0.0260697659105062
-0.0255727879703044
-0.0250766687095165
-0.024558437988162
-0.0239894669502973
-0.0233400575816631
-0.0225834995508193
-0.0217005982995033
-0.0206842087209224
-0.0195401702076196
-0.018284797668457
-0.016941973939538
-0.0155402310192585
-0.0141103900969028
-0.0126840006560087
-0.0112910848110914
-0.0099576851353049
-0.0087044946849346
-0.0075460891239345
-0.0064903013408184
-0.0055376319214701
-0.0046808053739368
-0.0039054602384567
-0.003192463889718
-0.0025211377069354
-0.0018729511648416
-0.0012353220954537
-0.0006050830706954
6.15883618593216e-06
0.0005636978894472
0.0010046968236565
0.0012425566092133
0.001179777085781
0.000726536847651
-0.0001787273213267
-0.0015519419685006
-0.0033531109802424
-0.0054866736754775
-0.0078130951151251
-0.0101672476157546
-0.0123790297657251
-0.0142926722764968
-0.0157822854816913
-0.0167628228664398
-0.0171953607350587
-0.0170861631631851
-0.0164809040725231
-0.0154557190835475
-0.0141068138182163
-0.0125405201688408
-0.0108649227768182
-0.0091830408200621
-0.0075859716162085
-0.0061450330540537
-0.0049057584255933
-0.0038861918728798
-0.0030781249515712
-0.0024500549770891
-0.0019522667862474
-0.0015236036852002
-0.0010984526015818
-0.0006136749871075
-1.5897676348686218e-05
0.0007320046424865
0.0016475291922688
0.0027294717729091
0.0039617302827537
0.0053175850771367
0.0067635793238878
0.0082626370713114
0.0097763407975435
0.0112669728696346
0.0126994838938117
0.014042998664081
0.015271863900125
0.0163670927286148
0.0173176378011703
0.0181190744042396
0.0187702644616365
0.019270185381174
0.0196130014955997
0.0197796151041984
0.0197300165891647
0.0194034781306982
0.0187297128140926
0.0176468472927808
0.0161195993423461
0.0141531052067875
0.0117987226694822
0.0091511374339461
0.0063389856368303
0.0035104760900139
0.0008160909637808
-0.0016081733629107
-0.0036533428356051
-0.0052438518032431
-0.0063392305746674
-0.0069329850375652
-0.0070493277162313
-0.006738219410181
-0.0060690054669976
-0.005123465321958
-0.0039892448112368
-0.002752911299467
-0.0014924742281436
-0.000272155739367
0.0008598659187555
0.001873246859759
0.0027575008571147
0.0035216487012803
0.0041894149035215
0.0047921189107
0.005362578202039
0.0059299757704138
0.0065150940790772
0.0071273911744356
0.0077653275802731
0.0084192240610718
0.0090743517503142
0.0097131393849849
0.0103171095252037
0.0108686285093426
0.0113517604768276
0.0117530263960361
0.012063474394381
0.012280574068427
0.0124080665409564
0.0124543588608503
0.0124301696196198
0.0123459743335843
0.0122101102024316
0.0120278242975473
0.0118015734478831
0.0115319853648543
0.0112176667898893
0.0108518209308385
0.0104150399565696
0.0098681123927235
0.0091509763151407
0.0081908032298088
0.0069182366132736
0.0052873282693326
0.003291935659945
0.0009730723686516
-0.0015832604840397
-0.0042552282102406
-0.0068995556794106
-0.0093697141855955
-0.0115346442908048
-0.0132943000644445
-0.014588831923902
-0.0154002979397773
-0.0157494954764843
-0.0156900808215141
-0.0153002925217151
-0.0146735897287726
-0.013909013941884
-0.0131008028984069
-0.012328116223216
-0.0116481836885213
-0.0110947946086525
-0.0106797209009528
-0.0103943506255745
-0.0102121317759156
-0.0100930761545896
-0.009989608079195
-0.009852522984147
-0.0096364682540297
-0.0093047022819519
-0.0088327275589108
-0.0082106841728091
-0.0074444636702537
-0.0065543884411454
-0.0055714370682835
-0.004532185383141
-0.0034732448402792
-0.0024274569004774
-0.00142278871499
-0.0004816597793251
0.0003801999846473
0.0011541760759428
0.0018380698747932
0.0024351086467504
0.0029528778977692
0.003400818677619
0.0037865669000893
0.0041134259663522
0.0043778494000434
0.0045639150775969
0.0046366504393517
0.0045402948744595
0.004206848796457
0.0035741117317229
0.0026051849126815
0.0013019987381994
-0.0002896187361329
-0.0020830309949815
-0.0039600362069904
-0.0057846033014357
-0.0074200900271534
-0.0087465103715658
-0.0096738757565617
-0.0101506523787975
-0.0101673584431409
-0.009754535742104
-0.0089754182845354
-0.0079156830906867
-0.0066736922599375
-0.0053521269001066
-0.0040488275699317
-0.0028471853584051
-0.0018084739567711
-0.0009673767490312
-0.0003318667877465
0.0001134460326284
0.0004030473064631
0.0005854145856574
0.0007158194202929
0.000847345450893
0.0010232487693428
0.0012737838551402
0.0016158655053004
0.0020527467131614
0.0025749360211193
0.0031641344539821
0.0037988149560987
0.0044583585113286
0.0051239323802292
0.0057778721675276
0.006404373794794
0.0069907959550619
0.0075277057476341
0.0080088190734386
0.008431376889348
0.0087954187765717
0.0091026425361633
0.0093551883473992
0.0095528494566679
0.0096896579489111
0.0097497794777154
0.0097015034407377
0.0094936434179544
0.0090595111250877
0.0083287581801414
0.0072439271025359
0.005776650737971
0.0039394404739141
0.0017904080450534
-0.0005705099902115
-0.0030121025629341
-0.0053870002739131
-0.0075504854321479
-0.0093800043687224
-0.0107893608510494
-0.0117338811978697
-0.0122085949406027
-0.0122433761134743
-0.0118965692818164
-0.0112465117126703
-0.0103810578584671
-0.0093870665878057
-0.0083420341834425
-0.0073090596124529
-0.0063352044671773
-0.0054514701478183
-0.004672291688621
-0.0039959205314517
-0.0034076876472681
-0.0028841968160122
-0.0023964564315974
-0.00191290397197
-0.0014036004431545
-0.0008446760475635
-0.0002207118086516
0.0004752236418426
0.001241854391992
0.0020695480052381
0.0029410633724182
0.0038340846076607
0.0047244811430573
0.0055884728208184
0.0064038005657494
0.0071512479335069
0.0078159961849451
0.008388040587306
0.0088626621291041
0.0092404019087553
0.0095251370221376
0.0097222700715065
0.0098390318453311
0.0098847197368741
0.0098689226433634
0.0097989775240421
0.0096759349107742
0.0094862394034862
0.0091924974694848
0.0087322406470775
0.0080281207337975
0.0070048370398581
0.0056082098744809
0.0038231429643929
0.0016847032820805
-0.0007214852375909
-0.0032683636527508
-0.0058034742251038
-0.0081686154007911
-0.0102192088961601
-0.0118405036628246
-0.0129586588591337
-0.0135453892871737
-0.013615982607007
-0.0132222771644592
-0.0124431010335683
-0.011373839341104
-0.0101158879697322
-0.0087674343958497
-0.0074169468134641
-0.0061388574540615
-0.0049902014434337
-0.0040073869749903
-0.0032034919131547
-0.0025688598398119
-0.0020763475913554
-0.0016877753660082
-0.0013586794957518
-0.0010430687107145
-0.0006990800611674
-0.0002931146882474
0.0001984573900699
0.000788533128798
0.0014790948480367
0.0022621781099587
0.0031212458852678
0.0040331268683075
0.0049712248146533
0.0059078885242342
0.0068153534084558
0.0076676099561154
0.0084424903616309
0.0091227181255817
0.0096976328641176
0.0101645849645137
0.0105271311476826
0.0107916835695505
0.0109661566093564
0.0110605275258421
0.0110863763839006
0.0110543724149465
0.0109716681763529
0.0108397547155618
0.010650573298335
0.0103799514472484
0.009981594979763
0.0093871932476758
0.008515472523868
0.007288506720215
0.0056520802900195
0.0035951233003288
0.0011609813664108
-0.0015534110134467
-0.0044087502174079
-0.0072411727160215
-0.0098825739696621
-0.0121798496693372
-0.0140110962092876
-0.0152971679344773
-0.0160068832337856
-0.0161558948457241
-0.0158003102988004
-0.0150265814736485
-0.0139401722699403
-0.0126544730737805
-0.0112798623740673
-0.0099140992388129
-0.0086355349048972
-0.0074986424297094
-0.0065310732461512
-0.005733756814152
-0.0050857234746217
-0.0045517785474658
-0.0040895314887166
-0.0036547384224832
-0.0032055494375526
-0.0027067298069596
-0.002134253270924
-0.001478056423366
-0.0007414838764816
6.12218864262104e-05
0.0009083376498892
0.0017745168879628
0.0026343050412833
0.003464733948931
0.0042468053288757
0.0049662385135889
0.0056134015321731
0.0061824209988117
0.006670722272247
0.007079373113811
0.0074134925380349
0.0076821455731987
0.0078964997082948
0.0080666933208704
0.0082001062110066
0.0083012478426098
0.0083718849346041
0.0084112277254462
0.0084142349660396
0.00836484413594
0.0082265278324484
0.0079384427517652
0.0074222520925104
0.0065966756083071
0.0053949560970067
0.0037834788672626
0.0017774129519239
-0.0005533642834052
-0.003089752048254
-0.0056778215803205
-0.008148780092597
-0.010340366512537
-0.0121160764247179
-0.0133791388943791
-0.0140794636681675
-0.0142144123092293
-0.0138249089941382
-0.0129876798018813
-0.011804774403572
-0.0103918500244617
-0.0088669145479798
-0.007340813986957
-0.0059090731665492
-0.0046450006775557
-0.0035952448379248
-0.0027773198671638
-0.002179091097787
-0.0017635752446949
-0.0014784273225814
-0.0012646405957639
-0.0010632348712533
-0.0008215114939957
-0.000498279929161
-6.688619032502174e-05
0.0004843224305659
0.0011529419571161
0.0019234670326113
0.0027696534525603
0.0036600108724087
0.0045639872550964
0.0054554054513573
0.0063130818307399
0.0071202255785465
0.007863669656217
0.0085331946611404
0.009120606817305
0.0096187852323055
0.0100217722356319
0.0103262839838862
0.0105323623865842
0.0106402831152081
0.0106440726667642
0.0105239236727356
0.0102396635338664
0.0097290137782692
0.0089148934930562
0.0077218450605869
0.0060966801829636
0.0040273740887641
0.0015551175456494
-0.001223569503054
-0.004164713434875
-0.0070934202522039
-0.0098263071849942
-0.0121941845864057
-0.0140601322054862
-0.0153321381658315
-0.0159702487289905
-0.0159866269677877
-0.015438936650753
-0.0144201526418328
-0.0130469119176268
-0.0114477155730128
-0.009751477278769
-0.008076480589807
-0.0065212789922952
-0.005158020183444
-0.004027453251183
-0.0031366448383778
-0.0024613987188786
-0.0019537934567779
-0.0015529601369053
-0.0011961464770138
-0.0008270894177258
-0.0004002843052148
0.0001171738840639
0.0007436415180563
0.0014813463203608
0.0023172013461589
0.0032260394655168
0.004175191745162
0.0051298406906425
0.0060588223859667
0.0069392835721373
0.0077575705945491
0.0085065523162484
0.0091825854033231
0.009783936664462
0.0103096822276711
0.0107587492093443
0.0111302752047777
0.0114246187731623
0.0116433314979076
0.0117885945364832
0.011862201616168
0.0118605019524693
0.011762804351747
0.0115196080878376
0.0110511193051934
0.0102588580921292
0.0090460004284977
0.0073411278426647
0.0051200413145124
0.0024198666214942
-0.0006587950629182
-0.0039611514657735
-0.00729576125741
-0.0104581406340003
-0.01325673609972
-0.0155356349423527
-0.017189435660839
-0.0181690715253353
-0.0184812415391206
-0.0181834008544683
-0.0173731911927461
-0.016173105686903
-0.0147150317206978
-0.013127963989973
-0.0115278996527194
-0.0100092105567455
-0.008639445528388
-0.0074574202299118
-0.00647300388664
-0.0056693428196012
-0.0050080521032214
-0.0044359946623444
-0.0038928547874093
-0.0033190604299306
-0.0026628402993083
-0.0018857452087104
-0.000966168474406
9.937165305018424e-05
0.001297328621149
0.0026010973379015
0.0039761122316122
0.0053836712613701
0.0067840656265616
0.0081399111077189
0.0094184726476669
0.0105928685516119
0.0116433026269078
0.0125579871237277
0.0133332377299666
0.013972420245409
0.0144831724464893
0.0148745309561491
0.0151558630168437
0.0153365014120936
0.0154242245480418
0.0154215414077043
0.0153191713616251
0.0150872822850942
0.0146678006276488
0.0139737017452716
0.0128997489809989
0.011344064027071
0.0092352861538529
0.006557865999639
0.0033674298319965
-0.0002085346495732
-0.003983590286225
-0.0077357441186904
-0.0112372897565364
-0.0142837138846516
-0.0167147852480411
-0.018426613882184
-0.019376078620553
-0.0195781830698251
-0.0190990343689918
-0.0180468428879976
-0.0165590085089206
-0.0147857377305626
-0.0128752114251255
-0.0109623000025749
-0.0091590238735079
-0.007546548731625
-0.0061711687594652
-0.0050447862595319
-0.0041483053937554
-0.0034381260629743
-0.0028552471194416
-0.0023342445492744
-0.0018112589605152
-0.0012314310297369
-0.0005551786161959
0.000238480977714
0.0011529556941241
0.0021769108716398
0.0032862678635865
0.0044471155852079
0.0056203808635473
0.0067665325477719
0.0078500490635633
0.0088434740900993
0.0097289597615599
0.01049679890275
0.0111434087157249
0.0116706266999244
0.0120856650173664
0.0124000366777181
0.0126274237409234
0.0127817848697304
0.0128745241090655
0.0129081066697835
0.0128655647858977
0.0126989781856536
0.0123249730095267
0.0116337500512599
0.0105097163468599
0.0088586676865816
0.0066358353942632
0.0038662094157189
0.0006504016928374
-0.0028453345876187
-0.006411510054022
-0.0098234396427869
-0.0128690944984555
-0.0153723983094096
-0.0172084532678127
-0.0183116104453802
-0.0186786707490682
-0.018365278840065
-0.0174747910350561
-0.0161446165293455
-0.014533320441842
-0.0128056807443499
-0.0111144417896866
-0.0095836259424686
-0.0082983160391449
-0.0073007130995392
-0.0065902047790586
-0.0061267856508493
-0.0058382870629429
-0.0056317346170544
-0.0054072802886366
-0.0050717107951641
-0.0045505836606025
-0.0037973586004227
-0.0027961998712271
-0.0015591424889862
-0.0001215413212776
0.0014631862286478
0.0031319367699325
0.0048218565061688
0.0064762867987155
0.0080470358952879
0.0094969160854816
0.010801400989294
0.0119474828243255
0.0129317827522754
0.0137591902166605
0.0144407916814088
0.0149895874783396
0.0154120530933141
0.0156945753842592
0.0157888047397136
0.0156049663200974
0.0150213669985532
0.0139106158167123
0.0121738221496343
0.009770343080163
0.0067346938885748
0.00317919626832
-0.0007157999789342
-0.004722545389086
-0.0085943629965186
-0.012096531689167
-0.0150331771001219
-0.0172646380960941
-0.0187143329530954
-0.0193683244287967
-0.0192705523222684
-0.0185157004743814
-0.0172395128756761
-0.0156037276610732
-0.0137764923274517
-0.0119136199355125
-0.010144043713808
-0.0085595399141311
-0.0072092125192284
-0.0060995947569608
-0.0051989145576953
-0.0044441749341785
-0.0037529058754444
-0.0030392883345484
-0.0022287801839411
-0.0012667789123952
-0.0001225704327225
0.001208980102092
0.0027076611295342
0.0043310704641044
0.006021358538419
0.0077142990194261
0.0093477424234151
0.0108671765774488
0.0122291930019855
0.0134049337357282
0.0143823344260454
0.0151645597070455
0.0157650280743837
0.0162015780806541
0.0164924822747707
0.0166554953902959
0.0167084597051143
0.0166687928140163
0.0165491327643394
0.0163473151624202
0.0160318184643983
0.0155285550281405
0.0147185549139976
0.0134533010423183
0.0115856658667325
0.0090080080553889
0.0056863743811845
0.0016800046432763
-0.0028586762491613
-0.0077012656256556
-0.0125726647675037
-0.0171866975724697
-0.021281462162733
-0.0246478132903575
-0.0271469261497259
-0.0287164263427257
-0.0293663796037435
-0.0291679240763187
-0.0282387379556894
-0.0267286282032728
-0.0248052310198545
-0.0226388480514287
-0.0203874837607145
-0.0181835405528545
-0.0161235239356756
-0.014262406155467
-0.0126125523820519
-0.0111471461132168
-0.0098096150904893
-0.0085272211581468
-0.0072243269532918
-0.005833223927766
-0.0043026199564337
-0.0026036631315946
-0.000732485204935
0.0012915572151541
0.0034303087741136
0.0056319329887628
0.0078377444297075
0.0099900476634502
0.0120377540588378
0.0139394886791706
0.0156660247594118
0.0172019712626934
0.0185446143150329
0.0197007842361927
0.0206850655376911
0.0215181969106197
0.0222230441868305
0.0228202566504478
0.0233263913542032
0.0237537547945976
0.0241099204868078
0.0243962965905666
0.0246051996946334
0.0247116778045892
0.024658553302288
0.0243428386747837
0.0236156620085239
0.0223022326827049
0.0202390793710947
0.0173159763216972
0.013508572243154
0.0088946772739291
0.0036518590059131
-0.0019630929455161
-0.0076476810500025
-0.013093021698296
-0.0180217884480953
-0.0222171638160944
-0.0255369003862142
-0.027913462370634
-0.0293472185730934
-0.0298969224095344
-0.0296675376594066
-0.0287965275347232
-0.0274397730827331
-0.0257573556154966
-0.0239000394940376
-0.0219965633004903
-0.0201421491801738
-0.0183907616883516
-0.0167532861232757
-0.0152021376416087
-0.0136817535385489
-0.0121232792735099
-0.010460028424859
-0.0086393393576145
-0.0066291540861129
-0.0044209449551999
-0.0020304326899349
0.0005042324773967
0.0031273900531232
0.0057730479165911
0.0083726411685347
0.0108618754893541
0.0131854526698589
0.0152994263917207
0.0171717125922441
0.018781442195177
0.0201186258345842
0.0211847722530365
0.021993177011609
0.0225675664842128
0.0229382775723934
0.0231375750154256
0.0231968592852354
0.0231451746076345
0.0230079144239425
0.0228060483932495
0.0225558541715145
0.0222694016993045
0.021955108270049
0.0216163415461778
0.0212467983365058
0.0208203624933958
0.0202746987342834
0.0194967910647392
0.0183242857456207
0.0165688693523406
0.0140550984069705
0.0106630502268671
0.0063641648739576
0.0012407312169671
-0.0045162755995988
-0.0106294527649879
-0.0167718417942523
-0.0226103104650974
-0.0278462041169405
-0.0322464257478714
-0.0356606990098953
-0.0380238071084022
-0.0393471792340278
-0.0397068038582801
-0.0392306260764598
-0.0380843803286552
-0.0364551097154617
-0.0345323346555233
-0.0324881412088871
-0.030460150912404
-0.0285415798425674
-0.0267778076231479
-0.0251671988517045
-0.0236669555306434
-0.022204564884305
-0.0206923652440309
-0.019043244421482
-0.0171856135129928
-0.0150732742622494
-0.0126878712326288
-0.0100371669977903
-0.0071529457345604
-0.0040886672213673
-0.0009152572602033
0.0022863238118588
0.0054350029677152
0.0084584904834628
0.0112980939447879
0.0139099666848778
0.0162655562162399
0.0183523222804069
0.0201727654784917
0.021740797907114
0.0230778828263282
0.0242104772478342
0.0251675248146057
0.0259777456521987
0.0266669988632202
0.0272548589855432
0.0277518406510353
0.0281596016138792
0.028472501784563
0.0286761708557605
0.0287389624863863
0.0285964272916317
0.0281368121504783
0.0271996334195137
0.0255953967571258
0.0231436286121606
0.0197174809873104
0.0152825070545077
0.0099194888025522
0.0038248712662607
-0.0027106571942567
-0.0093385800719261
-0.0156959313899278
-0.0214481819421052
-0.0263226218521595
-0.0301269516348838
-0.0327558256685733
-0.0341893658041954
-0.0344858057796955
-0.0337704792618751
-0.0322207547724247
-0.0300463996827602
-0.0274684950709342
-0.0246991869062185
-0.0219221618026494
-0.0192755591124296
-0.0168412141501903
-0.0146433040499687
-0.0126559156924486
-0.0108163217082619
-0.0090414304286241
-0.007244982291013
-0.0053525697439908
-0.0033125076442956
-0.0011016754433512
0.0012734048068523
0.0037791724316775
0.006361206062138
0.0089534381404519
0.01148715429008
0.0138976518064737
0.0161295477300882
0.0181410759687423
0.019907034933567
0.0214199908077716
0.0226888936012983
0.0237356387078762
0.024590890854597
0.0252896249294281
0.0258672013878822
0.0263560973107814
0.0267820097506046
0.0271605718880891
0.0274971853941679
0.0277885198593139
0.028024137020111
0.0281891785562038
0.0282679758965969
0.0282470118254423
0.0281165484338998
0.0278715770691633
0.0275114029645919
0.0270362738519907
0.026440879330039
0.0257026553153991
0.0247629955410957
0.0235089305788278
0.0217699967324733
0.0193386748433113
0.0160114951431751
0.0116393081843853
0.0061707086861133
-0.0003229454159736
-0.0076453173533082
-0.0154951568692922
-0.0235032103955745
-0.0312787964940071
-0.0384581163525581
-0.0447439327836036
-0.0499281287193298
-0.0538953691720962
-0.0566133745014667
-0.0581184104084968
-0.0585019551217556
-0.0578987896442413
-0.0564735382795333
-0.0544051975011825
-0.0518720187246799
-0.0490375272929668
-0.0460371933877468
-0.0429677441716194
-0.0398828461766243
-0.036796435713768
-0.0336915701627731
-0.030531296506524
-0.0272693578153848
-0.0238608885556459
-0.0202729608863592
-0.0164925940334796
-0.0125303398817777
-0.0084197483956813
-0.0042140809819102
1.885183155536652e-05
0.0042033833451569
0.0082631837576627
0.0121271377429366
0.0157335922122001
0.0190335474908351
0.0219927988946437
0.0245929881930351
0.0268308278173208
0.0287155881524086
0.0302662104368209
0.0315086767077446
0.0324741378426551
0.0331976674497127
0.0337163358926773
0.0340666994452476
0.034282810986042
0.0343943461775779
0.0344245843589305
0.0343898683786392
0.0343007817864418
0.0341635346412658
0.0339810810983181
0.0337537266314029
0.0334790498018264
0.0331517234444618
0.0327641069889068
0.0323079153895378
0.0317760072648525
0.0311618018895387
0.0304539557546377
0.0296240765601396
0.0286077409982681
0.0272872969508171
0.0254902150481939
0.0230117961764335
0.019658263772726
0.0152953006327152
0.0098872706294059
0.0035185404121875
-0.0036080218851566
-0.0111951166763901
-0.0188910439610481
-0.0263366438448429
-0.0332091636955738
-0.0392538905143737
-0.0442994534969329
-0.048257939517498
-0.0511140674352645
-0.0529094375669956
-0.0537276268005371
-0.0536830089986324
-0.0529121868312358
-0.0515638962388038
-0.0497858449816703
-0.0477108359336853
-0.0454441905021667
-0.0430551432073116
-0.0405747070908546
-0.037999827414751
-0.0353029668331146
-0.0324447304010391
-0.0293857492506504
-0.0260963197797536
-0.0225634146481752
-0.0187949687242507
-0.0148219969123601
-0.0106972428038716
-0.0064890901558101
-0.0022729909978806
0.0018761567771434
0.0058892671950161
0.0097062774002552
0.0132775120437145
0.0165636111050844
0.0195358879864215
0.0221779011189937
0.024486182257533
0.0264683850109577
0.0281401798129081
0.0295229665935039
0.0306416358798742
0.0315214432775974
0.0321855545043945
0.0326544642448425
0.0329467207193374
0.0330800488591194
0.0330716595053672
0.0329372510313987
0.0326906442642211
0.0323444418609142
0.0319096967577934
0.0313950777053833
0.0308074261993169
0.0301534701138734
0.0294414162635803
0.0286818370223045
0.0278870835900306
0.0270685367286205
0.0262328162789344
0.0253778900951147
0.0244858246296644
0.02350789681077
0.02234698086977
0.0208505950868129
0.0188247393816709
0.0160685162991285
0.0124203814193606
0.0078030303120613
0.0022546742111444
-0.004062351770699
-0.0108772236853837
-0.0178454611450433
-0.0245969723910093
-0.0307874828577041
-0.0361396223306655
-0.0404663607478141
-0.0436775907874107
-0.0457733757793903
-0.0468287914991378
-0.0469748638570308
-0.0463783890008926
-0.0452228784561157
-0.0436913110315799
-0.0419500991702079
-0.0401353314518928
-0.0383430644869804
-0.0366235598921775
-0.0349790602922439
-0.0333673469722271
-0.0317128449678421
-0.0299222096800804
-0.0279002822935581
-0.0255651324987411
-0.0228607561439275
-0.0197656359523534
-0.016296612098813
-0.0125076975673437
-0.0084842229261994
-0.0043336232192814
-0.0001736404374241
0.0038804556243121
0.0077265701256692
0.0112822465598583
0.0144878569990396
0.017307786270976
0.0197286866605281
0.0217556022107601
0.0234083570539951
0.024717591702938
0.0257197842001914
0.026454159989953
0.0269621070474386
0.0272852946072816
0.0274616237729787
0.0275222510099411
0.0274916365742683
0.0273887533694505
0.0272274352610111
0.0270172879099845
0.0267657507210969
0.0264788325875997
0.0261600706726312
0.0258100852370262
0.0254277940839529
0.0250121336430311
0.0245629772543907
0.0240807235240936
0.023565124720335
0.0230142585933208
0.0224222242832183
0.0217717755585908
0.0210192501544952
0.0200753211975097
0.0187942720949649
0.0169850103557109
0.0144457453861832
0.0110123101621866
0.0066044460982084
0.0012562638148665
-0.0048759300261735
-0.0115290926769375
-0.0183690004050731
-0.0250380225479602
-0.0312029737979173
-0.0365931540727615
-0.0410242788493633
-0.0444059707224369
-0.0467335432767868
-0.0480703338980674
-0.0485280714929103
-0.0482495725154876
-0.0473944470286369
-0.046126402914524
-0.0446000881493091
-0.0429466664791107
-0.0412605702877044
-0.0395914651453495
-0.0379423759877681
-0.0362729094922542
-0.0345074161887168
-0.0325486622750759
-0.0302961003035306
-0.0276650674641132
-0.0246019884943962
-0.0210922807455062
-0.0171616841107606
-0.0128732593730092
-0.0083206128329038
-0.0036178277805447
0.0011120056733489
0.0057474840432405
0.0101778991520404
0.0143107939511537
0.0180772095918655
0.0214333292096853
0.0243583396077156
0.0268498547375202
0.0289195701479911
0.0305902622640132
0.0318931639194488
0.0328657552599906
0.0335504077374935
0.0339933112263679
0.0342424809932708
0.0343443155288696
0.0343398563563823
0.0342621505260467
0.0341358408331871
0.0339785031974315
0.0338018909096717
0.0336125455796718
0.0334123410284519
0.0331991389393806
0.0329671427607536
0.0327061787247657
0.0324010886251926
0.0320334061980247
0.031585119664669
0.0310421790927648
0.0303956214338541
0.029639970511198
0.0287705417722463
0.027778536081314
0.026637839153409
0.0252839066088199
0.0235982984304428
0.0214139968156814
0.0185450036078691
0.0148310083895921
0.0101818097755312
0.0046083554625511
-0.0017658211290836
-0.0087130293250083
-0.0159271117299795
-0.0230615809559822
-0.0297731719911098
-0.0357629507780075
-0.0408067405223846
-0.0447693988680839
-0.047603853046894
-0.0493395924568176
-0.0500657446682453
-0.0499130189418792
-0.0490366406738758
-0.0476007163524627
-0.0457647666335105
-0.0436721965670585
-0.0414399579167366
-0.0391514338552951
-0.0368544235825538
-0.0345625393092632
-0.0322590395808219
-0.029904743656516
-0.0274500921368598
-0.0248481500893831
-0.0220649037510156
-0.0190856661647558
-0.015917919576168
-0.0125901754945516
-0.0091477343812584
-0.005647508893162
-0.0021531102247536
0.0012694220058619
0.0045554605312645
0.0076456652022898
0.0104904556646943
0.0130542982369661
0.0153171084821224
0.0172727070748806
0.0189274400472641
0.0202992670238018
0.021414864808321
0.0223052985966205
0.0230030976235866
0.0235412884503602
0.023952692747116
0.0242677498608827
0.0245110411196947
0.0246996283531188
0.0248445346951484
0.0249522868543863
0.0250250454992055
0.0250611454248428
0.0250568445771932
0.0250083804130554
0.0249129962176084
0.0247688256204128
0.0245741978287696
0.0243261363357305
0.0240190438926219
0.0236438959836959
0.0231865625828504
0.0226233229041099
0.0219093225896358
0.0209617111831903
0.0196513328701257
0.0178149230778217
0.0152857108041644
0.0119327586144208
0.0076986961066722
0.0026257010176777
-0.0031372113153338
-0.0093468464910984
-0.0156944990158081
-0.0218433309346437
-0.0274683646857738
-0.0322945117950439
-0.0361251085996627
-0.0388544686138629
-0.0404659062623977
-0.0410206019878387
-0.0406413078308105
-0.0394946336746215
-0.0377731919288635
-0.0356766618788242
-0.0333934538066387
-0.0310855600982904
-0.0288764145225286
-0.0268418304622173
-0.0250065550208091
-0.0233486145734787
-0.0218104608356952
-0.0203136652708053
-0.018774252384901
-0.017116330564022
-0.0152814108878374
-0.0132331289350986
-0.0109601188451051
-0.008477721363306
-0.0058257346972823
-0.0030613932758569
-0.0002511953935027
0.0025350474752485
0.0052292207255959
0.0077717807143926
0.0101183308288455
0.0122412601485848
0.014128116890788
0.015780622139573
0.0172125995159149
0.0184452645480632
0.0195021741092205
0.020406074821949
0.0211779978126287
0.0218371041119098
0.0224000737071037
0.02288069576025
0.0232904478907585
0.0236387550830841
0.0239314287900924
0.0241694971919059
0.024350618943572
0.0244714021682739
0.024528769776225
0.0245208386331796
0.0244472622871398
0.0243050698190927
0.024076048284769
0.0237081311643123
0.0230997167527675
0.0220982823520898
0.0205211080610752
0.0181948132812976
0.014999870210886
0.0109059456735849
0.005989986937493
0.0004349881783127
-0.0054894341155886
-0.0114622879773378
-0.017155660316348
-0.0222770106047391
-0.0266005210578441
-0.0299844592809677
-0.0323741436004638
-0.0337927602231502
-0.0343256630003452
-0.0341028533875942
-0.0332811176776886
-0.0320267118513584
-0.0304995998740196
-0.0288398899137973
-0.0271574147045612
-0.0255255736410617
-0.0239799376577138
-0.0225205700844526
-0.0211169216781854
-0.0197157356888055
-0.018251933157444
-0.0166604313999414
-0.0148869063705205
-0.0128960665315389
-0.0106759425252676
-0.0082386061549186
-0.0056185759603977
-0.002868372015655
-5.1058828830718994e-05
0.0027673346921801
0.0055236434563994
0.0081627797335386
0.0106416782364249
0.0129304053261876
0.0150118265300989
0.0168807730078697
0.018541757017374
0.0200057961046695
0.0212878510355949
0.0224048122763633
0.0233735553920269
0.0242093540728092
0.0249251797795295
0.0255322121083736
0.0260406173765659
0.0264598969370126
0.0267986189574003
0.0270628500729799
0.0272543299943208
0.0273711308836936
0.0274102706462144
0.0273688957095146
0.0272437054663896
0.0270312801003456
0.0267288666218519
0.0263338424265384
0.0258430950343608
0.0252526588737964
0.0245536062866449
0.0237196963280439
0.0226902421563863
0.0213601440191268
0.0195871666073799
0.0172168500721454
0.0141180343925952
0.0102190123870968
0.0055341040715575
0.000174393877387
-0.005659220740199
-0.0117002725601196
-0.017652254551649
-0.0232260040938854
-0.0281736012548208
-0.0323145613074302
-0.035548273473978
-0.0378512740135192
-0.03926482796669
-0.0398792773485183
-0.0398182719945907
-0.0392232500016689
-0.038238488137722
-0.0369976237416267
-0.0356133431196212
-0.0341715514659881
-0.0327290929853916
-0.0313133746385574
-0.0299240425229072
-0.0285370200872421
-0.0271107647567987
-0.0255942493677139
-0.0239355601370334
-0.02208998426795
-0.0200265049934387
-0.0177328828722238
-0.015219347551465
-0.0125175490975379
-0.0096742771565914
-0.0067451577633619
-0.0037895417772233
-0.0008647567592561
0.0019783026073127
0.0046972753480076
0.0072593912482261
0.0096412543207407
0.0118280909955501
0.0138135589659214
0.0155989900231361
0.0171917136758565
0.01860286667943
0.019844751805067
0.0209291335195302
0.0218669287860393
0.022667733952403
0.0233391970396041
0.0238869190216064
0.024314772337675
0.0246266983449459
0.0248287804424762
0.0249288138002157
0.0249348524957895
0.024854652583599
0.024694837629795
0.02445924654603
0.0241476539522409
0.0237563867121934
0.0232808403670787
0.0227171424776315
0.0220596045255661
0.0212922655045986
0.020375944674015
0.019237283617258
0.0177687965333461
0.0158439166843891
0.0133447051048278
0.0101950727403163
0.0063882991671562
0.0020003207027912
-0.0028131240978837
-0.0078338216990232
-0.0128090772777795
-0.0174845531582832
-0.0216350853443145
-0.0250882748514413
-0.0277386382222175
-0.0295514222234487
-0.030556971207261
-0.0308388769626617
-0.030519600957632
-0.0297453273087739
-0.0286703258752822
-0.0274421777576208
-0.0261898711323738
-0.0250147692859172
-0.0239835251122713
-0.0231232829391956
-0.0224209073930978
-0.0218285229057073
-0.0212748702615499
-0.02067800052464
-0.0199562273919582
-0.0190375596284866
-0.0178676079958677
-0.0164153687655925
-0.0146767292171716
-0.012674668803811
-0.0104550756514072
-0.0080790175125002
-0.0056141945533454
-0.00312867667526
-0.0006867903284728
0.0016553706955164
0.003854275913909
0.0058810436166822
0.0077215228229761
0.0093754241243004
0.0108544342219829
0.012178698554635
0.0133719770237803
0.0144567331299185
0.0154504347592592
0.0163642354309558
0.0172036960721015
0.0179691538214683
0.0186555534601211
0.0192547366023063
0.0197593867778778
0.0201640762388706
0.0204643812030553
0.020657978951931
0.020746637135744
0.0207345001399517
0.0206199623644351
0.0203829538077116
0.0199720803648233
0.0192986764013767
0.018245942890644
0.0166934821754694
0.0145479580387473
0.0117694791406393
0.0083874128758907
0.004503889940679
0.0002851334866136
-0.0040582246147096
-0.008297735825181
-0.0122152231633663
-0.0156278312206268
-0.0184056684374809
-0.0204788222908973
-0.0218347609043121
-0.0225100275129079
-0.0225790292024612
-0.0221419762820005
-0.0213135201483964
-0.0202123597264289
-0.0189521797001361
-0.0176344029605388
-0.0163412764668464
-0.0151292262598872
-0.0140260318294167
-0.0130331562831997
-0.0121301999315619
-0.0112800393253564
-0.0104362601414322
-0.0095518305897712
-0.0085852947086095
-0.0075036492198705
-0.0062842764891684
-0.004917059559375
-0.0034054201096296
-0.0017656688578426
-2.573058009147644e-05
0.0017769853584468
0.0035995184443891
0.0053983875550329
0.0071339509449899
0.0087726060301065
0.0102878743782639
0.011662364937365
0.0128892101347446
0.0139709580689668
0.0149173140525817
0.0157434232532978
0.016467697918415
0.0171085465699434
0.0176818892359733
0.0182005390524864
0.0186737366020679
0.0191060192883014
0.0194974299520254
0.0198451802134513
0.0201444998383522
0.0203882288187742
0.0205665007233619
0.0206678360700607
0.0206817612051963
0.0206015259027481
0.020424785092473
0.0201504062861204
0.0197695828974246
0.0192512199282646
0.0185283496975898
0.0174961443990468
0.0160261560231447
0.0139933712780475
0.0113085471093654
0.0079467128962278
0.0039637442678213
-0.0005027316510677
-0.0052476287819445
