bvp
0.0276574399322271
0.0281710028648376
0.0284521132707595
0.0285348612815141
0.0284486822783947
0.0282176584005355
0.0278614964336156
0.0273972321301698
0.0268401782959699
0.0262028370052576
0.0254939533770084
0.0247191488742828
0.0238824300467968
0.0229883678257465
0.0220434013754129
0.0210500732064247
0.0199874937534332
0.018781391903758
0.0172799862921237
0.0152538008987903
0.0124281980097293
0.0085435854271054
0.00342608243227
-0.0029537267982959
-0.0104514956474304
-0.0187548398971557
-0.0274202246218919
-0.0359322875738143
-0.043773129582405
-0.0504883266985416
-0.0557383745908737
-0.0593265295028686
-0.0612000450491905
-0.0614319890737533
-0.0601949766278266
-0.0577327944338321
-0.0543316900730133
-0.0502935126423835
-0.0459120124578475
-0.0414519160985946
-0.0371312424540519
-0.0331082232296466
-0.0294728241860866
-0.0262443050742149
-0.0233772546052932
-0.0207761786878108
-0.0183167085051536
-0.0158698577433824
-0.013323338702321
-0.0105947647243738
-0.0076373983174562
-0.0044420547783374
-0.0010351054370403
0.0025284523144364
0.0061744549311697
0.0098186284303665
0.013374188914895
0.0167586337774992
0.0199007205665111
0.022746630012989
0.0252633988857269
0.0274390112608671
0.0292793288826942
0.0308033861219882
0.032039389014244
0.0330218225717544
0.0337879359722137
0.0343728885054588
0.0348057337105274
0.0351084023714065
0.0352963805198669
0.0353793762624263
0.0353621654212474
0.0352454483509063
0.0350262001156806
0.0346988476812839
0.0342580415308475
0.0337014496326446
0.033031053841114
0.0322524905204772
0.0313729681074619
0.030397180467844
0.0293154809623956
0.0280788354575634
0.0265694018453359
0.0245881974697113
0.0218743495643138
0.0181548371911048
0.0132120819762349
0.0069507742300629
-0.0005554426461458
-0.0090516936033964
-0.0181263741105794
-0.0272638853639364
-0.0359141677618026
-0.0435656011104583
-0.0498059280216693
-0.0543609224259853
-0.0571081712841987
-0.0580690428614616
-0.0573861226439476
-0.0552942641079425
-0.0520901270210742
-0.0481018908321857
-0.0436600148677825
-0.0390701368451118
-0.034590009599924
-0.0304120983928442
-0.0266542304307222
-0.0233599804341793
-0.0205065440386533
-0.0180178340524435
-0.0157816614955663
-0.0136691331863403
-0.0115550700575113
-0.0093362005427479
-0.0069417664781212
-0.0043362490832805
-0.0015189498662948
0.0014783428050577
0.0045980038121342
0.007766842842102
0.0109063107520341
0.013940691947937
0.0168036445975303
0.0194429382681846
0.0218218863010406
0.0239176359027624
0.0257194954901933
0.0272294431924819
0.0284621585160493
0.0294422078877687
0.0302002411335706
0.0307694431394338
0.0311808548867702
0.0314587689936161
0.0316190645098686
0.0316697247326374
0.0316116064786911
0.0314402058720588
0.0311479475349187
0.0307263527065515
0.0301693063229322
0.029476236552
0.0286535453051328
0.0277155563235282
0.026684233918786
0.0255852621048688
0.0244413092732429
0.0232615247368812
0.0220220759510993
0.0206400956958532
0.0189556572586298
0.0167381279170513
0.013723311945796
0.0096729025244712
0.0044377110898494
-0.0019926372915506
-0.0094652352854609
-0.0176709629595279
-0.0261806640774011
-0.0345003120601177
-0.0421345308423042
-0.0486487746238708
-0.0537194460630416
-0.0571628734469413
-0.0589412525296211
-0.0591513738036155
-0.0580036640167236
-0.0557953901588916
-0.0528789162635803
-0.0496253333985805
-0.0463855564594268
-0.0434530638158321
-0.0410332083702087
-0.039224736392498
-0.0380168631672859
-0.0373011492192745
-0.0368953272700309
-0.036574188619852
-0.0361024141311645
-0.0352656915783882
-0.0338956415653228
-0.0318855643272399
-0.0291968360543251
-0.0258573703467845
-0.0219539888203144
-0.017619039863348
-0.0130124203860759
-0.0083033442497253
-0.0036557093262672
0.0007823389023542
0.0048861820250749
0.0085618486627936
0.011752956546843
0.0144458599388599
0.0166699774563312
0.018491530790925
0.0200021062046289
0.0213042702525854
0.0224964655935764
0.0236613452434539
0.0248605515807867
0.0261345878243446
0.0275042653083801
0.0289716608822345
0.0305213797837495
0.0321226231753826
0.0337267257273197
0.0352510623633861
0.036549836397171
0.0373896285891532
0.0374527797102928
0.0363789200782775
0.0338366404175758
0.0296044573187828
0.0236384160816669
0.0161093696951866
0.0073994155973196
-0.0019424874335527
-0.0112725403159856
-0.0199349205940961
-0.0273417700082063
-0.033037781715393
-0.0367388874292373
-0.0383422188460826
-0.0379139892756938
-0.0356645844876766
-0.0319164767861366
-0.0270679220557212
-0.0215534195303916
-0.0158018879592418
-0.0101968832314014
-0.0050441324710845
-0.0005491003394126
0.0031932331621646
0.0061947535723447
0.0085579473525285
0.0104509815573692
0.0120773445814847
0.0136438924819231
0.0153339486569166
0.0172888562083244
0.019596230238676
0.0222839619964361
0.0253214221447706
0.0286282077431678
0.0320885851979255
0.0355688482522964
0.0389341004192829
0.042061410844326
0.0448488444089889
0.0472209267318248
0.0491311177611351
0.050561711192131
0.0515210330486297
0.0520391575992107
0.0521631687879562
0.0519505999982357
0.0514620169997215
0.0507555566728115
0.0498837307095527
0.0488920956850051
0.047819584608078
0.0466995872557163
0.0455614738166332
0.0444326177239418
0.0433400683104991
0.0423111952841281
0.0413730330765247
0.0405500829219818
0.0398610159754753
0.0393141619861125
0.0388968177139759
0.0385512486100196
0.0381401591002941
0.0374204479157924
0.036047950387001
0.0336223989725112
0.0297658760100603
0.0242142118513584
0.0168918911367654
0.007948737591505
-0.0022473186254501
-0.0131577961146831
-0.0241500623524189
-0.0345848500728607
-0.043897446244955
-0.0516592785716056
-0.0576110705733299
-0.0616650767624378
-0.0638836324214935
-0.0644469782710075
-0.0636198669672012
-0.0617192350327968
-0.0590829402208328
-0.0560407154262065
-0.0528886429965496
-0.0498682409524917
-0.047151256352663
-0.0448320619761943
-0.0429286174476146
-0.0413910895586013
-0.0401174575090408
-0.0389739759266376
-0.0378167070448398
-0.0365116521716117
-0.0349510237574577
-0.0330635048449039
-0.0308191142976284
-0.0282295905053615
-0.0253433361649513
-0.0222351476550102
-0.0189938619732856
-0.0157115068286657
-0.0124748013913631
-0.0093578677624464
-0.0064163357019424
-0.0036848057061433
-0.001178678125143
0.0011018086224794
0.0031677633523941
0.0050368681550025
0.006726810708642
0.00825029425323
0.0096142198890447
0.0108209941536188
0.0118692722171545
0.0127545222640037
0.0134705975651741
0.014012012630701
0.0143758542835712
0.0145624577999114
0.0145757868885993
0.0144247412681579
0.0141241885721683
0.0136941485106945
0.0131582729518413
0.0125417858362197
0.0118640176951885
0.0111187323927879
0.0102430582046508
0.0090902000665664
0.0074252188205718
0.0049532353878021
0.0013776943087577
-0.0035245493054389
-0.0098328441381454
-0.0174374505877494
-0.0260318350046873
-0.0351449474692344
-0.0442056953907012
-0.0526236221194267
-0.0598675459623336
-0.0655278265476226
-0.0693536847829818
-0.0712628215551376
-0.0713276863098144
-0.0697477534413337
-0.0668147802352905
-0.0628750473260879
-0.0582937374711036
-0.0534242615103721
-0.0485799647867679
-0.0440080724656581
-0.0398712232708931
-0.03624027967453
-0.0330986939370632
-0.0303566940128803
-0.0278721787035465
-0.025476636365056
-0.023003390058875
-0.0203119926154613
-0.0173042528331279
-0.0139314802363514
-0.0101942978799343
-0.0061371214687824
-0.0018379744142293
0.0026050712913274
0.0070859668776392
0.0114993564784526
0.0157484915107488
0.0197520516812801
0.0234477948397398
0.0267934296280145
0.0297663155943155
0.0323630161583423
0.0345979556441307
0.0365002155303955
0.03810865432024
0.0394658856093883
0.0406123958528041
0.0415823385119438
0.0424021482467651
0.0430915094912052
0.0436644367873668
0.0441295653581619
0.0444912128150463
0.0447514727711677
0.0449122712016105
0.0449760220944881
0.0449404269456863
0.0447819009423255
0.0444284006953239
0.043733924627304
0.042473804205656
0.0403720699250698
0.0371574237942695
0.0326336622238159
0.0267440639436244
0.0196105055510997
0.0115372547879815
0.0029776422306895
-0.0055295480415225
-0.0134363723918795
-0.0202553458511829
-0.025611437857151
-0.0292729809880256
-0.0311608277261257
-0.0313375294208526
-0.0299826934933662
-0.0273632295429706
-0.0238028950989246
-0.019650550559163
-0.0152478273957967
-0.0108999833464622
-0.0068522747606039
-0.0032733175903558
-0.0002481713891029
0.002217523753643
0.0041850851848721
0.0057656839489936
0.0070999795570969
0.0083360066637396
0.0096082873642444
0.0110204173251986
0.0126337883993983
0.0144655797630548
0.016494920477271
0.0186716262251138
0.0209247656166553
0.0231718830764293
0.0253276489675045
0.027310948818922
0.0290511772036552
0.0304939690977334
0.031606625765562
0.0323809683322906
0.0328307710587978
0.0329859554767608
0.0328866466879844
0.0325777158141136
0.0321039780974388
0.0315064527094364
0.0308198146522045
0.0300709288567304
0.0292782001197338
0.0284511409699916
0.0275900792330503
0.0266877170652151
0.0257330518215894
0.0247153416275978
0.0236269198358058
0.022465007379651
0.0212321300059556
0.0199350789189338
0.0185813978314399
0.0171699672937393
0.0156714748591184
0.0140014141798019
0.0120008923113346
0.0094430278986692
0.0060704946517944
0.0016547553241252
-0.0039396788924932
-0.0107037350535392
-0.0184604879468679
-0.0268766582012176
-0.0355036705732345
-0.0438376106321811
-0.0513870865106582
-0.0577361844480037
-0.062589406967163
-0.0657926425337791
-0.0673332661390304
-0.067324623465538
-0.0659787058830261
-0.0635721832513809
-0.0604125559329986
-0.0568088069558143
-0.0530470013618469
-0.0493697002530097
-0.0459589138627052
-0.042923629283905
-0.0402952507138252
-0.0380336493253707
-0.0360419265925884
-0.0341865792870521
-0.0323202386498451
-0.0303033888339996
-0.0280226077884435
-0.025403207167983
-0.0224152486771345
-0.0190745554864406
-0.0154386907815933
-0.0115964962169528
-0.0076539758592844
-0.0037210150621831
9.97050665318966e-05
0.0037214676849544
0.0070798974484205
0.0101366033777594
0.0128786917775869
0.0153146740049123
0.017469273880124
0.0193779300898313
0.021080695092678
0.0226161144673824
0.02401639893651
0.0253052935004234
0.0264985039830207
0.0276049058884382
0.0286280401051044
0.029568362981081
0.030424989759922
0.031196229159832
0.0318797305226326
0.0324725359678268
0.0329712629318237
0.0333720371127128
0.0336696282029151
0.0338568873703479
0.0339261032640934
0.0338711254298687
0.0336879342794418
0.0333746261894702
0.0329310856759548
0.0323548540472984
0.0316300280392169
0.0307074431329965
0.0294816642999649
0.0277817249298095
0.0253882128745317
0.0220742709934711
0.0176605079323053
0.012069659307599
0.0053656101226806
-0.0022333841770887
-0.010371702723205
-0.0186013523489236
-0.026444362476468
-0.0334575027227401
-0.0392854958772659
-0.0436945185065269
-0.0465843379497528
-0.0479819104075431
-0.0480207912623882
-0.0469115823507308
-0.0449101775884628
-0.0422890670597553
-0.0393131785094738
-0.0362204350531101
-0.033206719905138
-0.0304142497479915
-0.027924932539463
-0.0257608089596033
-0.0238902643322944
-0.022238340228796
-0.0207015704363584
-0.0191662199795246
-0.0175254456698894
-0.0156922712922096
-0.0136088756844401
-0.0112521015107631
-0.0086339935660362
-0.0057979924604296
-0.0028128745034337
0.0002355296164751
0.0032554173376411
0.0061604725196957
0.0088784322142601
0.0113562401384115
0.0135624557733535
0.0154866548255085
0.0171359702944755
0.0185301415622234
0.019696868956089
0.0206684060394763
0.0214782953262329
0.0221580658107996
0.0227351672947406
0.0232316739857196
0.0236633270978927
0.0240394193679094
0.0243626404553651
0.0246287938207387
0.0248278025537729
0.0249463766813278
0.024971917271614
0.0248963125050067
0.0247181393206119
0.0244424175471067
0.0240771658718585
0.0236276797950267
0.0230877324938774
0.0224236696958541
0.0215545520186424
0.0203416906297206
0.0185996685177087
0.0161309279501438
0.0127750318497419
0.0084572657942771
0.003223265055567
-0.0027481266297399
-0.0091579332947731
-0.0156253892928361
-0.0217424258589744
-0.0271300300955772
-0.0314848572015762
-0.034608244895935
-0.0364153571426868
-0.0369292981922626
-0.0362658686935901
-0.034613199532032
-0.0322100408375263
-0.0293226223438978
-0.0262179989367723
-0.0231366269290447
-0.0202711522579193
-0.0177543628960847
-0.0156545247882604
-0.013976520858705
-0.0126684363931417
-0.011633806861937
-0.0107488352805376
-0.0098817478865385
-0.0089108450338244
-0.0077388314530253
-0.0063018281944096
-0.0045725177042186
-0.0025583622045814
-0.0002970970235764
0.0021489751525223
0.0047006658278405
0.0072715547867119
0.0097773931920528
0.0121435625478625
0.0143099725246429
0.0162331480532884
0.0178860835731029
0.019257491454482
0.0203515198081731
0.0211871154606342
0.0217953957617282
0.0222141575068235
0.0224809367209672
0.0226277541369199
0.022679079324007
0.0226520746946334
0.0225575231015682
0.0224009770900011
0.0221845563501119
0.0219087302684783
0.0215726103633642
0.0211735479533672
0.0207083225250244
0.0201754011213779
0.0195756889879703
0.0189095102250576
0.0181653350591659
0.0172985028475523
0.0162099543958902
0.0147401504218578
0.0126877073198556
0.0098517183214426
0.0060851778835058
0.0013426821678876
-0.0042902654968202
-0.0105937290936708
-0.0172369945794343
-0.0238232165575027
-0.0299434438347816
-0.0352288223803043
-0.0393932722508907
-0.0422607436776161
-0.0437736511230468
-0.043984767049551
-0.0430380031466484
-0.0411426834762096
-0.0385457724332809
-0.0355060212314128
-0.0322709158062934
-0.029056642204523
-0.0260327998548746
-0.0233133137226104
-0.0209532994776964
-0.0189514588564634
-0.0172585342079401
-0.0157898627221584
-0.0144392512738704
-0.0130945704877376
-0.0116534437984228
-0.0100345481187105
-0.0081844022497534
-0.0060820132493972
-0.0037406235933303
-0.0012045921757817
0.0014585815370082
0.0041687577031552
0.0068429545499384
0.0094028301537036
0.0117806456983089
0.0139245633035898
0.0158021673560142
0.0174011643975973
0.0187280550599098
0.0198055021464824
0.0206682924181222
0.0213579703122377
0.0219165459275245
0.0223804600536823
0.0227766744792461
0.0231218915432691
0.0234240069985389
0.0236839540302753
0.0238974019885063
0.0240573585033416
0.0241576116532087
0.0241944603621959
0.0241652894765138
0.02406682446599
0.0238958168774843
0.0236514061689376
0.0233370289206504
0.0229596849530935
0.022524619475007
0.0220246110111475
0.0214227363467216
0.0206310264766216
0.0194973889738321
0.0178152918815612
0.0153590906411409
0.0119364326819777
0.0074435463175177
0.0019070049747824
-0.004499964416027
-0.0114697609096765
-0.018597736954689
-0.0254360642284154
-0.0315526127815246
-0.0365847162902355
-0.0402799323201179
-0.0425160899758338
-0.0432971864938735
-0.0427321568131446
-0.0410080067813396
-0.0383632890880107
-0.0350625179708004
-0.0313729830086231
-0.0275452136993408
-0.0237955823540687
-0.0202920995652675
-0.0171467326581478
-0.0144131779670715
-0.0120888045057654
-0.0101224798709154
-0.008427657186985
-0.0068981051445007
-0.0054240496829152
-0.003906819038093
-0.0022705430164933
-0.0004695290699601
0.0015099849551916
0.0036532902158796
0.0059230611659586
0.0082652801647782
0.0106161460280418
0.0129103641957044
0.0150885190814733
0.0171022675931453
0.018917754292488
0.0205176789313554
0.0219009481370449
0.0230790581554174
0.0240709260106086
0.0248975828289985
0.0255784131586551
0.0261306650936603
0.0265698730945587
0.0269084684550762
0.0271542575210332
0.0273108147084712
0.0273785889148712
0.0273548550903797
0.0272326096892356
0.0270003248006105
0.0266447253525257
0.0261556822806596
0.0255292579531669
0.02476785518229
0.0238802693784236
0.0228821150958538
0.0217934474349021
0.0206302925944328
0.019388061016798
0.0180194713175296
0.0164177045226097
0.0144171863794326
0.0118174795061349
0.0084269372746348
0.0041144909337162
-0.0011460790410637
-0.0072512151673436
-0.0139673519879579
-0.0209552198648452
-0.027813546359539
-0.034133143723011
-0.0395504906773567
-0.0437897816300392
-0.0466868877410888
-0.0481958389282226
-0.048381321132183
-0.0474000945687294
-0.0454753153026104
-0.0428689569234848
-0.039855919778347
-0.036700427532196
-0.0336347371339798
-0.0308406054973602
-0.0284348800778388
-0.026463109999895
-0.0249036457389593
-0.0236797742545604
-0.0226760134100914
-0.0217564292252063
-0.0207840837538242
-0.0196396019309759
-0.0182351507246494
-0.016521306708455
-0.0144877415150403
-0.0121605228632688
-0.0095963608473539
-0.0068721990101039
-0.0040727644227445
-0.0012808595784008
0.0014295047149062
0.0039992118254303
0.0063883368857204
0.0085762422531843
0.0105585195124149
0.0123443352058529
0.0139540042728185
0.0154143907129764
0.0167533382773399
0.0179952047765254
0.0191578473895788
0.0202521570026874
0.0212837923318147
0.0222547091543674
0.0231641009449958
0.0240084826946258
0.0247805714607238
0.0254697781056165
0.0260652415454387
0.0265575125813484
0.0269343312829732
0.0271666161715984
0.0271861068904399
0.0268660224974155
0.0260194763541221
0.0244237910956144
0.0218666046857833
0.0182005260139703
0.0133909052237868
0.0075429663993418
0.0009016016265377
-0.0061735669150948
-0.0132523048669099
-0.0198898278176784
-0.0256826970726251
-0.0303131937980651
-0.0335770472884178
-0.0353929214179515
-0.035794198513031
-0.0349093116819858
-0.0329393371939659
-0.0301353335380554
-0.0267740320414304
-0.0231330581009387
-0.019467694684863
-0.0159898437559604
-0.0128521472215652
-0.0101411622017622
-0.0078793298453092
-0.0060325786471366
-0.0045217266306281
-0.0032378938049077
-0.002061610110104
-0.0008825501427054
0.0003851428627967
0.0017946176230907
0.0033635962754487
0.0050760861486196
0.0068896817974746
0.0087468884885311
0.0105857346206903
0.0123468330129981
0.013977263122797
0.0154334120452404
0.0166842769831419
0.0177140105515718
0.0185218024998903
0.0191189795732498
0.0195251367986202
0.0197653658688068
0.0198686588555574
0.019866207614541
0.0197892654687166
0.0196677893400192
0.0195297598838806
0.0193993840366601
0.0192945469170808
0.0192249417304992
0.0191911235451698
0.0191852264106273
0.0191935338079929
0.0191991254687309
0.0191837195307016
0.0191300418227911
0.0190245695412158
0.018858591094613
0.018627393990755
0.018325624987483
0.0179320275783538
0.0173833388835191
0.0165505744516849
0.0152340177446603
0.0131869632750749
0.0101665602996945
0.0059969299472868
0.000625807326287
-0.0058398800902068
-0.0131297037005424
-0.020839275792241
-0.0284847244620323
-0.0355677157640457
-0.041638609021902
-0.0463477149605751
-0.0494769476354122
-0.0509490892291069
-0.0508184246718883
-0.0492481291294097
-0.0464792996644973
-0.0427984967827796
-0.0385089330375194
-0.0339052565395832
-0.0292514096945524
-0.0247637126594781
-0.0206005293875932
-0.0168575774878263
-0.0135682187974452
-0.0107090324163436
-0.0082102641463279
-0.0059701176360249
-0.0038719484582543
-0.0018019126728177
0.0003365017473697
0.0026124631986021
0.0050613968633115
0.0076827225275337
0.0104434266686439
0.0132857682183384
0.0161360092461109
0.0189140569418668
0.021544124931097
0.0239638201892375
0.0261287428438663
0.0280119739472866
0.0296011269092559
0.0308962948620319
0.0319081470370292
0.0326544046401977
0.0331560745835304
0.0334353670477867
0.0335146896541118
0.0334159582853317
0.0331602431833744
0.0327670201659202
0.0322533547878265
0.0316339880228042
0.0309224613010883
0.0301328394562006
0.0292795840650796
0.0283742267638444
0.0274224616587162
0.0264248717576265
0.0253791902214288
0.0242815762758255
0.0231273360550403
0.0219113007187843
0.0206246338784694
0.0192419476807117
0.0176977217197418
0.0158643145114183
0.0135501567274332
0.0105274282395839
0.0065827444195747
0.001574607565999
-0.0045188833028078
-0.0115739731118083
-0.0193226728588342
-0.0273809321224689
-0.0352973639965057
-0.0426130779087543
-0.0489210337400436
-0.0539134107530117
-0.057409007102251
-0.0593590438365936
-0.0598361603915691
-0.0590126812458038
-0.0571329407393932
-0.054484087973833
-0.0513681843876838
-0.048075333237648
-0.0448580719530582
-0.0419090539216995
-0.0393459759652614
-0.037208005785942
-0.035462886095047
-0.0340199023485183
-0.0327467247843742
-0.0314902700483799
-0.0300996769219636
-0.0284479819238185
-0.0264481306076049
-0.0240599736571311
-0.0212886221706867
-0.0181770827621221
-0.0147964814677834
-0.0112355398014187
-0.0075893853791058
-0.0039483509026467
-0.0003889743238687
0.0030304645188152
0.0062700174748897
0.0093066077679395
0.0121325710788369
0.0147527456283569
0.0171798504889011
0.0194298848509788
0.0215184055268764
0.023457983508706
0.0252567902207374
0.0269185472279787
0.0284441336989402
0.029833422973752
0.031086292117834
0.0322039574384689
0.0331905707716941
0.0340534374117851
0.0348010435700416
0.0354382432997226
0.0359548404812812
0.0363047681748867
0.0363829620182514
0.0360151678323745
0.0349721945822238
0.0330092273652553
0.0299207288771867
0.0255964770913124
0.0200631842017173
0.0134992850944399
0.0062196976505219
-0.0013638800010085
-0.0087977740913629
-0.0156452190130949
-0.0215384103357791
-0.0262148007750511
-0.0295332632958889
-0.0314719751477241
-0.0321139693260192
-0.031626172363758
-0.0302343852818012
-0.0281956978142261
-0.0257712621241807
-0.0232026558369398
-0.0206931643187999
-0.0183929223567247
-0.0163889471441507
-0.0147035093978047
-0.0133012514561414
-0.0121021093800663
-0.0109976315870881
-0.0098700365051627
-0.0086122741922736
-0.0071444120258092
-0.005422405898571
-0.0034389020875096
-0.0012185024097561
0.0011888490989804
0.0037149647250771
0.0062826662324368
0.0088164433836936
0.0112499445676803
0.0135285994037985
0.0156109109520912
0.0174702033400535
0.0190952159464359
0.020488291978836
0.0216612704098224
0.0226314980536699
0.0234199184924364
0.024049274623394
0.0245409049093723
0.0249117836356163
0.0251729227602481
0.0253287833184003
0.025378294289112
0.02531792037189
0.0251446664333343
0.0248572453856468
0.0244565661996603
0.0239471271634101
0.023339208215475
0.0226502679288387
0.0219042468816041
0.0211292039602994
0.0203534346073865
0.0195970106869936
0.0188540033996105
0.0180664546787738
0.0171022657305002
0.0157532319426536
0.0137616768479347
0.010872202925384
0.0068947551771998
0.0017610192298889
-0.0044409483671188
-0.0114626185968518
-0.0189215131103992
-0.026351673528552
-0.033268816769123
-0.0392366014420986
-0.0439192801713943
-0.0471126958727836
-0.0487523600459098
-0.0489014983177185
-0.0477262437343597
-0.0454662404954433
-0.0424051359295845
-0.0388427451252937
-0.0350707881152629
-0.0313518941402435
-0.0279011558741331
-0.0248716231435537
-0.0223457086831331
-0.0203335639089345
-0.0187791846692562
-0.0175738353282213
-0.0165745485574007
-0.0156248835846781
-0.014575102366507
-0.0132997706532478
-0.0117113199084997
-0.0097667230293154
-0.0074662417173385
-0.0048477500677108
-0.0019785827025771
0.001055222004652
0.0041593564674258
0.0072395345196127
0.0102091282606124
0.0129953082650899
0.015542259439826
0.0178130529820919
0.0197908170521259
0.0214772075414657
0.0228879190981388
0.0240473896265029
0.0249846763908863
0.0257314834743738
0.0263209231197834
0.0267850514501333
0.0271523594856262
0.0274461135268211
0.0276827458292245
0.0278708729892969
0.0280118938535451
0.0281022936105728
0.0281367935240268
0.028109848499298
0.0280149448662996
0.0278454348444938
0.0275980550795793
0.0272746384143829
0.0268797818571329
0.0264158062636852
0.0258711073547601
0.0251969210803508
0.0242815371602773
0.0229410082101821
0.0209378413856029
0.0180258378386497
0.0140091711655259
0.0087991328909993
0.0024537239223718
-0.0048104645684361
-0.012638121843338
-0.0205815024673938
-0.0281611923128366
-0.0349287912249565
-0.0405209846794605
-0.0446960963308811
-0.0473474897444248
-0.0484957545995712
-0.0482680089771747
-0.0468715727329254
-0.0445651561021804
-0.0416301041841506
-0.0383446663618087
-0.0349623411893844
-0.031694121658802
-0.0286956951022148
-0.0260602980852127
-0.0238169208168983
-0.0219348594546318
-0.0203348901122808
-0.0189051385968923
-0.0175200439989566
-0.0160597916692495
-0.0144258541986346
-0.0125506464391946
-0.0104018412530422
-0.0079822354018688
-0.0053262780420482
-0.0024937014095485
0.0004396187141537
0.0033917888067662
0.0062830476090312
0.009041235782206
0.0116065861657261
0.013936648145318
0.0160093419253826
0.0178225487470626
0.0193907171487808
0.0207392703741788
0.0218984615057706
0.0228988658636808
0.0237684901803731
0.024530753493309
0.0252034161239862
0.0257975272834301
0.0263161193579435
0.026754193007946
0.0271005146205425
0.0273400209844112
0.0274561326950788
0.0274340342730283
0.0272656697779893
0.0269535277038812
0.0265099294483661
0.0259519796818494
0.0252912957221269
0.0245153587311506
0.0235632583498954
0.0223087072372436
0.0205653272569179
0.0181192681193351
0.0147796217352151
0.0104310046881437
0.0050760777667164
-0.0011423425748944
-0.0079473685473203
-0.0149615854024887
-0.0217587314546108
-0.027920763939619
-0.0330899059772491
-0.037007700651884
-0.0395350717008113
-0.0406548492610454
-0.0404624752700328
-0.0391463674604892
-0.0369598194956779
-0.0341906249523162
-0.0311325527727603
-0.0280583333224058
-0.0251947529613971
-0.0227029547095298
-0.020667266100645
-0.0190942510962486
-0.0179212614893913
-0.0170324239879846
-0.0162796881049871
-0.0155062954872846
-0.0145695265382528
-0.0133586814627051
-0.0118056051433086
-0.0098877968266606
-0.0076255947351455
-0.0050749643705785
-0.0023173340596258
0.0005511082708835
0.0034298368263989
0.0062251426279544
0.0088595226407051
0.0112760113552212
0.0134388925507664
0.0153330098837614
0.0169611517339944
0.018339317291975
0.0194915607571601
0.0204453393816947
0.0212278570979833
0.0218645632266998
0.0223781149834394
0.0227869786322116
0.0231061894446611
0.0233485903590917
0.0235241632908582
0.0236398056149482
0.0237004458904266
0.0237099155783653
0.0236714985221624
0.0235884822905063
0.0234617684036493
0.0232791434973478
0.0229945685714483
0.0225041396915912
0.0216333884745836
0.0201512724161148
0.0178139694035053
0.0144239030778408
0.0098841078579425
0.0042350068688392
-0.0023337351158261
-0.0094991391524672
-0.0168449878692626
-0.0239173863083124
-0.0302847139537334
-0.0355907939374446
-0.0395917631685733
-0.0421713963150978
-0.0433365851640701
-0.0431994311511516
-0.0419522114098072
-0.0398393310606479
-0.0371291786432266
-0.0340882055461406
-0.0309586860239505
-0.0279405638575553
-0.0251779817044734
-0.022751722484827
-0.0206783544272184
-0.0189163666218519
-0.0173788629472255
-0.0159508306533098
-0.0145080238580703
-0.0129340915009379
-0.0111338049173355
-0.0090428441762924
-0.0066343108192086
-0.0039203483611345
-0.0009485790506005
0.0022046919912099
0.005443193949759
0.0086617683991789
0.0117587931454181
0.0146466745063662
0.0172585509717464
0.0195518508553504
0.0215096920728683
0.023140450939536
0.0244748480618
0.0255602821707725
0.0264535062015056
0.0272118132561445
0.0278841350227594
0.0285055879503488
0.029095958918333
0.0296605229377746
0.0301922708749771
0.0306748934090137
0.0310867093503475
0.0314048714935779
0.0316082462668418
0.0316795594990253
0.0316070467233657
0.0313848741352558
0.0310132224112749
0.0304981339722871
0.0298498384654521
0.0290787182748317
0.0281849987804889
0.027138328179717
0.0258548967540264
0.0241883061826229
0.0219438523054122
0.0189144983887672
0.0149307874962687
0.0099126240238547
0.0039075622335076
-0.0028968416154384
-0.0101897865533828
-0.0175772830843925
-0.0246358625590801
-0.0309683121740818
-0.0362506471574306
-0.0402640253305435
-0.0429087132215499
-0.0442002266645431
-0.0442520566284656
-0.0432512313127517
-0.0414312407374382
-0.0390455871820449
-0.0363446921110153
-0.03355672955513
-0.0308718886226415
-0.0284306406974792
-0.0263170227408409
-0.0245573036372661
-0.023124624043703
-0.0219498798251152
-0.0209364034235477
-0.0199755355715751
-0.0189617574214935
-0.017805965617299
-0.0164446532726287
-0.0148436669260263
-0.0129972463473677
-0.0109242461621761
-0.008662954904139
-0.0062650325708091
-0.00378896179609
-0.0012942822650074
0.0011633380781859
0.0035371677950024
0.0057925451546907
0.0079056378453969
0.0098608424887061
0.0116503154858946
0.013273574411869
0.0147348884493112
0.0160402581095695
0.0171963647007942
0.018211230635643
0.0190939716994762
0.019852802157402
0.0204935502260923
0.0210193879902362
0.0214308649301528
0.0217270571738481
0.0219082403928041
0.0219782087951898
0.0219447091221809
0.0218180585652589
0.0216086972504854
0.0213248655200004
0.0209699422121047
0.0205352399498224
0.0199839379638433
0.0192308612167835
0.0181327406316995
0.0165003761649131
0.0141323478892445
0.010861724615097
0.0066035985946655
0.0013907235115766
-0.0046125934459269
-0.0111224977299571
-0.0177706778049469
-0.0241536758840084
-0.0298853032290935
-0.0346426367759704
-0.0381989702582359
-0.0404395945370197
-0.0413600578904151
-0.0410520061850547
-0.0396833457052707
-0.0374754220247268
-0.0346782468259334
-0.0315463840961456
-0.0283167753368616
-0.0251889545470476
-0.0223095845431089
-0.0197634156793355
-0.0175707433372735
-0.0156915225088596
-0.0140377786010503
-0.0124929621815681
-0.0109327621757984
-0.009243463166058
-0.0073370188474655
-0.0051612239331007
-0.0027025584131479
1.726485788822174e-05
0.0029475390911102
0.0060164532624185
0.0091400546953082
0.0122306756675243
0.0152049772441387
0.0179915744811296
0.0205364897847175
0.0228060260415077
0.0247866325080394
0.0264807939529418
0.0279004275798797
0.0290609262883663
0.0299780406057834
0.0306671410799026
0.0311415120959281
0.0314075462520122
0.031459379941225
0.0312786325812339
0.0308420658111572
0.0301339738070964
0.0291584432125091
0.0279479343444108
0.0265651866793632
0.0250964313745498
0.0236338898539543
0.0222469083964824
0.0209484193474054
0.0196705348789691
0.0182627029716968
0.0165174920111894
0.0142176356166601
0.011190409772098
0.0073539358563721
0.0027446174062788
-0.0024782926775515
-0.0080515602603554
-0.0136462682858109
-0.018916018307209
-0.0235442258417606
-0.027281979098916
-0.0299717709422111
-0.0315553843975067
-0.0320673137903213
-0.031618908047676
-0.0303780287504196
-0.0285460203886032
-0.0263347066938877
-0.0239478796720504
-0.0215676482766866
-0.0193416103720664
-0.017370605841279
-0.0157025847584009
-0.0143347047269344
-0.0132203288376331
-0.0122793354094028
-0.0114123104140162
-0.0105168959125876
-0.0095031205564737
-0.0083051081746816
-0.0068875332362949
-0.0052468362264335
-0.0034079721663147
-0.0014179619029164
0.0006616357713937
0.0027622552588582
0.0048155197873711
0.0067598624154925
0.0085459016263484
0.0101392716169357
0.0115213012322783
0.01268807426095
0.0136477164924144
0.0144170671701431
0.0150183970108628
0.0154761020094156
0.0158142913132905
0.016055567190051
0.016219787299633
0.0163226444274187
0.0163751505315303
0.0163840055465698
0.0163524243980646
0.0162812937051057
0.0161695573478937
0.0160142257809638
0.0158119052648544
0.0155609548091888
0.0152623355388641
0.0149196833372116
0.0145386299118399
0.0141223696991801
0.013659032061696
0.0131002347916364
0.0123410886153578
0.011217912659049
0.0095304362475872
0.0070833656936883
0.0037365965545177
-0.0005499403923749
-0.0056895101442933
-0.0114665748551487
-0.0175594389438629
-0.0235823187977075
-0.0291385389864444
-0.0338736772537231
-0.0375175774097442
-0.0399089194834232
-0.0410015098750591
-0.0408548191189765
-0.0396131053566932
-0.0374795645475387
-0.0346915125846862
-0.0314984694123268
-0.0281414818018674
-0.024833358824253
-0.0217431373894214
-0.0189866442233324
-0.0166219361126422
-0.0146503066644072
-0.0130240665748715
-0.0116592003032565
-0.0104503035545349
-0.0092859119176864
-0.0080626141279935
-0.0066967294551432
-0.0051325554959475
-0.0033462834544479
-0.0013447506353259
0.0008400767110288
0.0031579053029417
0.0055467691272497
0.0079404218122363
0.0102760773152112
0.0124993808567523
0.0145658245310187
0.0164425708353519
0.0181112736463546
0.0195680670440197
0.0208204984664917
0.0218842290341854
0.0227800905704498
0.0235307812690734
0.0241582728922367
0.0246825721114873
0.0251202061772346
0.0254817716777324
0.0257701352238655
0.0259814001619815
0.0261081680655479
0.0261424928903579
0.02607730217278
0.0259064808487892
0.0256245695054531
0.0252282228320837
0.0247195623815059
0.0241082720458507
0.0234109368175268
0.0226473454385995
0.0218307580798864
0.0209495723247528
0.0199448782950639
0.0186973977833986
0.0170365907251834
0.0147721990942955
0.0117389019578695
0.0078425873070955
0.0030960803851485
-0.0023655015975236
-0.0082944966852664
-0.0143637182191014
-0.020212410017848
-0.0254923831671476
-0.0299076922237873
-0.0332448482513427
-0.0353895053267478
-0.0363275520503521
-0.0361346155405044
-0.0349603593349456
-0.0330097302794456
-0.0305208377540111
-0.0277412943542003
-0.0249060504138469
-0.0222190208733081
-0.0198390576988458
-0.0178697947412729
-0.0163553059101104
-0.0152834858745336
-0.0145949330180883
-0.01419491879642
-0.0139683913439512
-0.0137964989989995
-0.0135707715526223
-0.0132033051922917
-0.0126334801316261
-0.011830722913146
-0.0107933627441525
-0.0095451595261693
-0.0081297401338815
-0.0066021871753036
-0.0050195967778563
-0.0034343996085226
-0.0018911284860223
-0.000423522782512
0.0009489110670983
0.0022218842059373
0.0034036692231893
0.0045109167695045
0.0055649429559707
0.0065885735675692
0.0076027670875191
0.0086234398186206
0.0096597131341695
0.010713392868638
0.0117783015593886
0.0128404404968023
0.0138813108205795
0.0148826502263545
0.0158291347324848
0.0167090930044651
0.0175148285925388
0.0182422399520874
0.0188873838633298
0.0194370746612548
0.0198520738631486
0.0200477074831724
0.019885167479515
0.0191851127892732
0.0177615899592638
0.0154650285840034
0.0122241657227277
0.0080772181972861
0.0031826361082494
-0.0021943445317447
-0.0077154505997896
-0.0130150187760591
-0.0177480056881904
-0.0216312613338232
-0.0244720578193664
-0.0261811539530754
-0.0267704725265502
-0.0263394191861152
-0.0250544846057891
-0.0231254193931818
-0.0207817479968071
-0.0182515271008014
-0.015741404145956
-0.013418361544609
-0.0113960588350892
-0.0097287483513355
-0.0084134023636579
-0.0073980838060379
-0.0065939021296799
-0.0058892178349196
-0.005166049581021
-0.0043172407895326
-0.0032605957239866
-0.0019473386928439
-0.0003647254779934
0.0014659464359283
0.0034948978573083
0.0056529510766267
0.0078625464811921
0.010047297924757
0.0121382866054773
0.0140775274485349
0.0158196352422237
0.0173327177762985
0.0185996759682893
0.0196194760501384
0.0204057563096284
0.020981378853321
0.0213717855513095
0.0216014720499515
0.0216932296752929
0.0216666646301746
0.0215360298752784
0.0213093925267457
0.0209894590079784
0.0205759424716234
0.0200688950717449
0.0194720327854156
0.0187946837395429
0.0180503074079751
0.0172529444098472
0.0164143182337284
0.0155382398515939
0.0146061712875962
0.0135555043816566
0.0122631005942821
0.0105497352778911
0.008210340514779
0.0050607686862349
0.000986763741821
-0.0040170946158468
-0.0098277069628238
-0.0161977112293243
-0.0227829478681087
-0.0291882343590259
-0.0350223965942859
-0.0399500466883182
-0.0437289923429489
-0.0462280176579952
-0.0474260449409484
-0.0473982170224189
-0.0462951436638832
-0.0443192459642887
-0.041701216250658
-0.0386782325804233
-0.0354746468365192
-0.0322848744690418
-0.0292583089321851
-0.0264890640974044
-0.024013515561819
-0.0218150541186332
-0.0198334753513336
-0.0179775282740592
-0.0161403939127922
-0.0142155233770608
-0.0121094482019543
-0.0097512062638998
-0.0070992168039083
-0.0041455924510955
-0.0009162425994873
0.0025348477065563
0.0061346190050244
0.0097998790442943
0.0134459547698497
0.0169946104288101
0.0203789509832859
0.0235448535531759
0.0264515280723571
0.0290722101926803
0.0313933491706848
0.033412367105484
0.0351354554295539
0.036575648933649
0.0377501584589481
0.0386775322258472
0.039376176893711
0.0398628190159797
0.0401501804590225
0.0402472838759422
0.0401630364358425
0.0399087071418762
0.0394971594214439
0.0389405749738216
0.0382488332688808
0.0374303758144378
0.0364948734641075
0.0354547724127769
0.0343245267868042
0.0331176035106182
0.031838446855545
0.0304660256952047
0.0289327967911958
0.027111729606986
0.0248241610825061
0.0218713134527206
0.0180805642157793
0.0133536551147699
0.0077045410871505
0.0012748735025525
-0.0056781731545925
-0.0128161311149597
-0.0197654515504837
-0.0261666364967823
-0.0317183434963226
-0.0362092219293117
-0.0395313315093517
-0.0416751876473426
-0.0427137464284896
-0.0427819639444351
-0.0420554354786872
-0.0407303161919117
-0.0390049777925014
-0.0370640121400356
-0.0350656956434249
-0.0331324711441993
-0.0313440226018428
-0.0297341626137495
-0.0282928235828876
-0.0269739255309104
-0.0257083103060722
-0.0244177766144275
-0.0230275653302669
-0.0214777756482362
-0.0197322722524404
-0.0177824478596448
-0.0156461354345083
-0.013363404199481
-0.0109897647053003
-0.008587721735239
-0.0062190145254135
-0.003938605543226
-0.0017899660160765
0.0001978464133571
0.0020104115828871
0.0036461327690631
0.0051133763045072
0.0064263585954904
0.0076013309881091
0.0086548700928688
0.0096028791740536
0.0104593895375728
0.0112357344478368
0.0119406851008534
0.0125817777588963
0.0131656778976321
0.01369618345052
0.0141729237511754
0.0145931998267769
0.0149545399472117
0.0152555359527468
0.0154961366206407
0.0156784448772668
0.0158067625015974
0.015886241570115
0.0159218311309814
0.015918631106615
0.0158818885684013
0.0158128440380096
0.0156958233565092
0.0154765769839286
0.0150427781045436
0.0142219718545675
