bvp
-0.0236608795821666
-0.0227248705923557
-0.0215089321136474
-0.0201336853206157
-0.0187037270516157
-0.0173013359308242
-0.0159817263484001
-0.0147710600867867
-0.0136682959273457
-0.0126499617472291
-0.0116762900725007
-0.0106983659788966
-0.0096658896654844
-0.0085348607972264
-0.0072742253541946
-0.0058704065158963
-0.0043297661468386
-0.0026781158521771
-0.0009565311484038
0.000784458592534
0.0024906867183744
0.0041102683171629
0.0055995928123593
0.0069280699826776
0.0080798184499144
0.009052300825715
0.0098530789837241
0.0104958685114979
0.0109977154061198
0.011378102004528
0.0116587029770016
0.0118630249053239
0.0120154749602079
0.0121384896337986
0.012249594554305
0.0123611837625503
0.0124805765226483
0.012608571909368
0.0127391591668128
0.0128604117780923
0.0129527170211076
0.0129817500710487
0.0128878187388181
0.0125765800476074
0.0119180344045162
0.0107605243101716
0.0089598838239908
0.006414271891117
0.0030931234359741
-0.0009461296722292
-0.0055563347414135
-0.0105154756456613
-0.0155552318319678
-0.0203960314393043
-0.0247811861336231
-0.0285043232142925
-0.0314266495406627
-0.0334827229380607
-0.0346763245761394
-0.0350697785615921
-0.0347696915268898
-0.0339117348194122
-0.0326462015509605
-0.0311252530664205
-0.029491314664483
-0.0278654769062995
-0.0263377204537391
-0.0249613467603921
-0.0237518455833196
-0.022690299898386
-0.021730188280344
-0.0208049081265926
-0.0198360159993171
-0.0187442637979984
-0.0174626372754573
-0.0159474648535251
-0.0141839841380715
-0.0121858529746532
-0.0099902302026748
-0.0076501001603901
-0.0052264938130974
-0.0027825327124446
-0.0003787202876992
0.0019316689576953
0.0041069500148296
0.0061198705807328
0.0079574361443519
0.0096171293407678
0.01110165938735
0.0124160377308726
0.013567516580224
0.0145651521161198
0.0154173262417316
0.0161296017467975
0.0167056582868099
0.0171504393219947
0.0174716264009475
0.0176785159856081
0.0177819654345512
0.0177961941808462
0.0177395530045032
0.0176331140100955
0.0174977499991655
0.0173511262983083
0.0172062348574399
0.0170722492039203
0.0169559996575117
0.016861094161868
0.0167836248874664
0.0167032834142446
0.0165695864707231
0.0162895582616329
0.0157272294163703
0.0147206103429198
0.0131130004301667
0.010789324529469
0.007707780227065
0.0039194738492369
-0.0004289029166102
-0.0051104477606713
-0.0098467851057648
-0.0143423965200781
-0.0183192770928144
-0.021548256278038
-0.0238713361322879
-0.0252120643854141
-0.0255767479538917
-0.0250489115715026
-0.0237767472863197
-0.021955132484436
-0.0198055654764175
-0.0175553299486637
-0.0154161602258682
-0.0135647729039192
-0.0121285850182175
-0.0111775528639554
-0.0107212383300066
-0.0107112564146518
-0.0110504310578107
-0.0116085167974233
-0.0122414827346801
-0.012809682637453
-0.013192418962717
-0.0132990535348653
-0.0130753992125391
-0.0125047052279114
-0.0116049740463495
-0.0104230772703886
-0.0090255811810493
-0.0074875382706522
-0.0058809169568121
-0.0042652837000787
-0.00268309074454
-0.0011590640060603
0.0002979865530505
0.0016912957653403
0.0030313348397612
0.0043321251869201
0.0056083556264638
0.0068721184507012
0.0081304684281349
0.0093850325793027
0.0106323463842272
0.011864498257637
0.0130710555240511
0.0142407370731234
0.015361032448709
0.0164171159267425
0.0173924900591373
0.0182713475078344
0.0190406963229179
0.0196915213018655
0.020219275727868
0.0206240955740213
0.0209107585251331
0.0210874825716018
0.0211637448519468
0.0211472529917955
0.0210378170013427
0.0208182483911514
0.0204466804862022
0.0198543965816497
0.0189512055367231
0.0176386125385761
0.0158299952745437
0.0134746013209223
0.0105771124362945
0.0072054965421557
0.0034870970994234
-0.0004040962085127
-0.0042679053731262
-0.0079032350331544
-0.0111321974545717
-0.013818728737533
-0.0158789977431297
-0.0172830112278461
-0.0180505141615867
-0.0182441137731075
-0.0179600492119789
-0.0173168294131755
-0.0164426397532224
-0.0154626872390508
-0.0144880041480064
-0.0136063303798437
-0.0128754377365112
-0.0123203471302986
-0.0119349062442779
-0.011686697602272
-0.0115245468914508
-0.0113880205899477
-0.0112170036882162
-0.0109594585373997
-0.0105773694813251
-0.0100505128502845
-0.0093766935169696
-0.0085694314911961
-0.0076547339558601
-0.0066667152568697
-0.0056425686925649
-0.0046185948885977
-0.0036275358870625
-0.0026962365955114
-0.0018435606034472
-0.0010796777205541
-0.000406633131206
0.0001813063863664
0.0006968211382627
0.0011568143963813
0.0015790477627888
0.001979888882488
0.0023736516013741
0.0027726665139198
0.0031862813048064
0.0036183707416057
0.0040659019723534
0.0045207613147795
0.0049731177277863
0.0054140659049153
0.0058374283835291
0.0062403781339526
0.0066223051398992
0.0069828098639845
0.0073186429217457
0.007618420291692
0.0078564593568444
0.007987780496478
0.0079472586512565
0.0076562794856727
0.0070359269157052
0.0060247406363487
0.00459745246917
0.0027764227706938
0.0006318928208202
-0.0017255449201911
-0.0041571930050849
-0.0065119485370814
-0.0086434381082654
-0.0104259010404348
-0.0117670455947518
-0.0126164639368653
-0.0129670612514019
-0.0128491930663585
-0.0123222079128026
-0.0114671047776937
-0.0103786801919341
-0.009156241081655
-0.0078953485935926
-0.0066808597184717
-0.0055797132663428
-0.0046347198076546
-0.0038617406971752
-0.0032511427998542
-0.0027729447465389
-0.0023834584280848
-0.0020321072079241
-0.0016686662565916
-0.0012497082352638
-0.0007425360381603
-0.0001267865300178
0.0006048842333257
0.0014467902947217
0.0023820400238037
0.0033854562789201
0.0044265477918088
0.0054735508747398
0.0064976946450769
0.0074752587825059
0.0083882072940468
0.0092251719906926
0.0099817365407943
0.0106591330841183
0.0112628946080803
0.0118021825328469
0.0122880078852176
0.0127296736463904
0.013131839223206
0.0134941693395376
0.0138134071603417
0.0140859000384807
0.0143083250150084
0.0144768767058849
0.0145865147933363
0.0146310636773705
0.014604153111577
0.0145004168152809
0.0143171641975641
0.0140558294951915
0.0137214697897434
0.0133211268112063
0.0128624336794018
0.0123510835692286
0.0117859663441777
0.0111533906310796
0.0104234274476766
0.0095515493303537
0.008485946804285
0.0071785557083785
0.0055978293530642
0.0037399069406092
0.0016348520293831
-0.0006531570106744
-0.0030318475328385
-0.0053915530443191
-0.0076179709285497
-0.0096055939793586
-0.0112703926861286
-0.0125589175149798
-0.0134516898542642
-0.0139615293592214
-0.0141288675367832
-0.0140153523534536
-0.0136963743716478
-0.0132525116205215
-0.0127606485038995
-0.0122874975204467
-0.0118858655914664
-0.0115912742912769
-0.0114192850887775
-0.0113650867715477
-0.0114060072228312
-0.0115074794739484
-0.0116302799433469
-0.0117357214912772
-0.0117885880172252
-0.0117592737078666
-0.0116259530186653
-0.0113766612485051
-0.0110101290047168
-0.0105343582108616
-0.0099636502563953
-0.0093153957277536
-0.0086076222360134
-0.007858719676733
-0.0070885941386222
-0.0063178739510476
-0.0055647995322942
-0.0048428671434521
-0.0041605797596275
-0.0035221162252128
-0.002928074914962
-0.0023761885240674
-0.0018614762229844
-0.0013766939518973
-0.0009142720373347
-0.00046847370686
-3.70859052054584e-05
0.0003778286045417
0.0007721410365775
0.0011436187196522
0.0014935936778783
0.0018255787435919
0.0021433280780911
0.0024496305268257
0.0027455897070467
0.0030311488080769
0.0033073869999498
0.0035785129293799
0.0038507157005369
0.0041273673996329
0.004402675665915
0.0046561863273382
0.0048491889610886
0.0049252053722739
0.0048179840669035
0.0044653313234448
0.0038229408673942
0.0028754344675689
0.0016439089085906
0.0001877037575468
-0.0014017707435414
-0.0030136227142065
-0.004532091319561
-0.0058503057807683
-0.0068815574049949
-0.0075667621567845
-0.0078784748911857
-0.0078212963417172
-0.007428350392729
-0.006755587644875
-0.0058745332062244
-0.0048637776635587
-0.0038025388494133
-0.0027668331749737
-0.0018233926966786
-0.0010212338529527
-0.0003866823390126
7.625902071595192e-05
0.0003835223615169
0.0005680052563548
0.000673615373671
0.0007469388656318
0.0008309297263622
0.000961706507951
0.0011665397323668
0.001462688203901
0.0018571806140244
0.0023470022715628
0.002920361701399
0.0035599051043391
0.0042463792487978
0.0049605602398514
0.005683678202331
0.0063974717631936
0.0070842048153281
0.0077274595387279
0.0083143329247832
0.0088372398167848
0.0092930644750595
0.0096809975802898
0.0100019313395023
0.0102593302726745
0.0104593764990568
0.0106098940595984
0.0107190385460853
0.0107935890555381
0.0108373863622546
0.0108515601605176
0.0108364140614867
0.0107930339872837
0.0107232993468642
0.010629404336214
0.0105140320956707
0.0103797186166048
0.0102266613394021
0.0100505733862519
0.0098401615396142
0.009572222828865
0.0092068379744887
0.0086874440312385
0.0079471189528703
0.0069199479185044
0.0055557936429977
0.0038351425901055
0.0017797912005335
-0.0005441462853923
-0.0030323448590934
-0.0055550429970026
-0.0079727843403816
-0.0101529750972986
-0.0119847012683749
-0.0133893629536032
-0.0143263330683112
-0.0147936232388019
-0.0148247322067618
-0.0144833736121654
-0.0138568468391895
-0.0130482055246829
-0.012166746892035
-0.0113158728927373
-0.010580095462501
-0.0100159430876374
-0.0096490597352385
-0.0094754416495561
-0.0094649130478501
-0.0095663629472255
-0.0097138499841094
-0.009834443219006
-0.0098587917163968
-0.0097313225269317
-0.0094159860163927
-0.0088973194360733
-0.0081788152456283
-0.0072793569415807
-0.0062286192551255
-0.0050631165504455
-0.0038230875506997
-0.0025495812296867
-0.0012819529511034
-5.5410899221897125e-05
0.0011025737039744
0.0021756859496235
0.0031587965786457
0.0040547703392803
0.0048714084550738
0.005619297735393
0.0063093621283769
0.006950719282031
0.0075501361861824
0.0081125646829605
0.0086406813934445
0.0091337952762842
0.009588710963726
0.0100020645186305
0.0103715574368834
0.0106957163661718
0.0109735867008566
0.0112046301364898
0.011386489495635
0.0115080419927835
0.011539701372385
0.0114263715222477
0.0110874436795711
0.0104264253750443
0.0093496162444353
0.0077883191406726
0.0057182661257684
0.0031733210198581
0.0002503003925085
-0.002899284241721
-0.0060889758169651
-0.0091219991445541
-0.0118157174438238
-0.014022996649146
-0.0156474336981773
-0.0166497193276882
-0.0170450527220964
-0.0168949849903583
-0.0162972621619701
-0.0153739340603351
-0.014257158152759
-0.0130752176046371
-0.0119418576359748
-0.0109482873231172
-0.0101557895541191
-0.0095895938575267
-0.0092368526384234
-0.0090513275936245
-0.0089636575430631
-0.0088925892487168
-0.0087549015879631
-0.0084745166823267
-0.0079901674762368
-0.0072602154687047
-0.0062649715691804
-0.0050082951784133
-0.0035176537930965
-0.0018390342593193
-2.7045607566833496e-05
0.0018636295571923
0.0037816818803548
0.0056804148480296
0.0075190756469964
0.0092633422464132
0.0108857257291674
0.0123667689040303
0.0136953014880418
0.0148676456883549
0.0158873982727527
0.0167648401111364
0.0175144225358963
0.0181515086442232
0.0186904836446046
0.0191443786025047
0.0195246152579784
0.0198407396674156
0.0201013106852769
0.0203152187168598
0.0204907413572073
0.0206332765519619
0.0207450427114963
0.0208267718553543
0.0208791717886924
0.0209023971110582
0.0208921413868665
0.0208312757313251
0.0206787195056676
0.0203612968325614
0.0197741221636533
0.0187920816242694
0.0172918420284986
0.0151795577257871
0.0124171301722526
0.0090406909584999
0.0051655732095241
0.0009744351264089
-0.0033078452106565
-0.0074443900957703
-0.0112159363925457
-0.0144466403871774
-0.0170210376381874
-0.0188884306699037
-0.0200577192008495
-0.0205886140465736
-0.0205816440284252
-0.0201654359698295
-0.0194812044501304
-0.0186676271259784
-0.0178470890969038
-0.0171129796653985
-0.0165208932012319
-0.0160864274948835
-0.0157884899526834
-0.0155760077759623
-0.0153771806508302
-0.0151111148297786
-0.0147004881873726
-0.0140822445973753
-0.013214386999607
-0.0120792528614401
-0.0106844445690512
-0.0090614398941397
-0.0072614061646163
-0.0053486390970647
-0.0033922726288437
-0.0014577258843928
0.0003996544983237
0.0021378379315137
0.0037287510931491
0.0051572895608842
0.0064200074411928
0.0075233969837427
0.0084802964702248
0.0093056140467524
0.0100145312026143
0.0106222629547119
0.0111431218683719
0.011589647270739
0.0119719235226511
0.012296749278903
0.012568300589919
0.0127901099622249
0.0129661401733756
0.0131005104631185
0.0131964879110455
0.0132556613534688
0.0132777029648423
0.0132587496191263
0.0131848510354757
0.0130191426724195
0.0126898102462291
0.0120895244181156
0.0110891042277216
0.0095622735098004
0.0074168015271425
0.0046223327517509
0.0012251026928424
-0.0026521570980548
-0.0068226726725697
-0.0110582401975989
-0.0151186184957623
-0.018782066181302
-0.0218704435974359
-0.024265106767416
-0.0259132571518421
-0.0268258638679981
-0.0270687788724899
-0.0267499461770057
-0.0260068047791719
-0.0249938517808914
-0.0238667018711566
-0.0227635260671377
-0.021789114922285
-0.0210047084838151
-0.0204233340919017
-0.0200105905532836
-0.0196917615830898
-0.019364483654499
-0.0189143680036067
-0.0182307548820972
-0.017221076413989
-0.0158232282847166
-0.0140138287097215
-0.011811101809144
-0.0092733837664127
-0.0064925835467875
-0.003581185825169
-0.0006562629714608
0.0021734342444688
0.0048157866112887
0.0072010769508779
0.0092857796698808
0.0110534094274044
0.0125117991119623
0.013687839731574
0.0146219376474618
0.0153620596975088
0.0159561689943075
0.0164461135864257
0.0168660692870616
0.0172427035868167
0.0175941623747348
0.0179295092821121
0.0182505287230014
0.0185554437339305
0.0188423059880733
0.01910962164402
0.0193533394485712
0.0195596478879451
0.0196935795247554
0.0196869317442178
0.019432358443737
0.0187910087406635
0.0176155176013708
0.0157816279679536
0.013219503685832
0.0099368877708911
0.0060281418263912
0.0016679305117577
-0.0029087092261761
-0.0074370075017213
-0.0116579374298453
-0.0153497187420725
-0.0183491222560405
-0.020562794059515
-0.0219703633338212
-0.02261876873672
-0.0226081535220146
-0.022074045613408
-0.021170986816287
-0.0200567170977592
-0.0188751779496669
-0.0177416875958442
-0.0167334582656621
-0.0158855020999908
-0.01519141998142
-0.0146083701401948
-0.0140652507543563
-0.0134740583598613
-0.0127439647912979
-0.0117958290502429
-0.0105737773701548
-0.009050759486854
-0.0072285430505871
-0.0051357308402657
-0.002824755385518
-0.0003656148910522
0.0021628085523843
0.0046798442490398
0.0071082599461078
0.00938037969172
0.0114442333579063
0.0132664209231734
0.014831337146461
0.016138982027769
0.017201954498887
0.018040794879198
0.0186792165040969
0.0191414169967174
0.019450893625617
0.0196300148963928
0.0197003707289695
0.0196828767657279
0.0195968877524137
0.0194592997431755
0.0192841608077287
0.0190817788243293
0.0188578199595212
0.0186147950589656
0.0183549523353576
0.0180809404700994
0.01779162324965
0.0174707546830177
0.0170709509402513
0.016502559185028
0.0156361944973468
0.01432098262012
0.0124143278226256
0.0098161157220602
0.0064986888319253
0.0025235931389033
-0.0019591725431382
-0.006728358566761
-0.0115209426730871
-0.016066551208496
-0.0201201923191547
-0.0234891008585691
-0.0260490905493497
-0.0277486983686685
-0.0286047328263521
-0.0286926738917827
-0.0281329043209552
-0.0270741954445838
-0.0256764367222785
-0.0240934696048498
-0.0224571283906698
-0.0208652522414922
-0.0193751510232687
-0.0180014092475175
-0.0167176015675067
-0.0154631119221448
-0.0141556970775127
-0.0127078080549836
-0.0110427299514412
-0.0091072879731655
-0.0068800379522144
-0.004373965319246
-0.0016330471262335
0.0012749792076647
0.0042672003619372
0.0072552664205431
0.0101544307544827
0.012888959608972
0.0153948981314897
0.0176234617829322
0.0195449031889438
0.0211496651172637
0.0224455595016479
0.023453302681446
0.0242035165429115
0.0247345734387636
0.0250883847475051
0.0253058094531297
0.0254244301468133
0.0254771057516336
0.0254897065460681
0.0254790131002664
0.02545209787786
0.0254074018448591
0.0253367088735103
0.0252277366816997
0.0250672753900289
0.0248440951108932
0.0245508067309856
0.0241833571344614
0.0237376224249601
0.0232039019465446
0.0225583538413047
0.0217507071793079
0.0206933468580245
0.0192600116133689
0.0172999650239944
0.0146677140146493
0.0112602580338716
0.0070500168949365
0.0021038986742496
-0.0034163277596235
-0.009270847775042
-0.0151702892035245
-0.0208109002560377
-0.0259119626134634
-0.0302481688559055
-0.0336695276200771
-0.0361079908907413
-0.0375750064849853
-0.03815259039402
-0.0379790142178535
-0.0372307300567626
-0.0361020490527153
-0.0347849689424037
-0.0334509424865245
-0.0322346240282058
-0.0312217511236667
-0.0304444283246994
-0.0298840552568435
-0.0294804647564888
-0.0291449055075645
-0.0287744104862213
-0.0282665155827999
-0.0275329053401947
-0.0265101268887519
-0.0251673348248004
-0.0235103424638509
-0.0215791501104831
-0.0194385740906
-0.0171662513166666
-0.0148427933454513
-0.0125447455793619
-0.0103381481021642
-0.0082723814994096
-0.0063769249245524
-0.0046623572707176
-0.0031238954979926
-0.0017454900080338
-0.000503399351146
0.0006307180738076
0.001686627860181
0.0026929688174277
0.0036758738569915
0.0046577714383602
0.0056558516807854
0.0066804885864257
0.0077332365326583
0.0088053047657012
0.0098794046789407
0.0109347207471728
0.0119509808719158
0.0129093909636139
0.0137910041958093
0.0145712178200483
0.0152077041566371
0.0156262889504432
0.0157160982489585
0.0153406672179698
0.0143643086776137
0.0126874167472124
0.0102785862982273
0.0071933353319764
0.0035766754299402
-0.000351021066308
-0.0043229334987699
-0.0080612329766154
-0.0113102383911609
-0.0138632580637931
-0.0155815975740551
-0.0164038687944412
-0.016345415264368
-0.0154902078211307
-0.0139772286638617
-0.0119833946228027
-0.009704896248877
-0.0073365559801459
-0.0050508575513958
-0.0029819849878549
-0.0012170588597655
0.0002077035605907
0.0013069109991192
0.0021403860300779
0.0028012804687023
0.0033996375277638
0.00404485873878
0.0048308055847883
0.0058253724128007
0.007065431214869
0.0085572581738233
0.0102799162268638
0.0121895149350166
0.0142252584919333
0.0163177568465471
0.0183971785008907
0.0203992296010255
0.0222699288278818
0.0239691883325576
0.0254711974412202
0.0267624482512474
0.0278403237462043
0.0287121832370758
0.029393121600151
0.0299023501574993
0.0302598401904106
0.0304843839257955
0.0305921547114849
0.0305952616035938
0.0305016636848449
0.030316773802042
0.0300447139889001
0.0296879522502422
0.0292469803243875
0.0287211667746305
0.0281098820269107
0.0274134539067745
0.026633258908987
0.0257679261267185
0.0248028021305799
0.0236942302435636
0.0223556030541658
0.0206553451716899
0.0184343755245208
0.015541017986834
0.011871681548655
0.0074041690677404
0.0022160187363624
-0.0035152435302734
-0.0095316395163536
-0.0155296474695205
-0.0211998391896486
-0.0262637827545404
-0.0305046625435352
-0.0337867438793182
-0.0360608473420143
-0.0373577028512954
-0.037773847579956
-0.0374553129076957
-0.0365809425711631
-0.0353439450263977
-0.0339322537183761
-0.0325103923678398
-0.0312047749757766
-0.0300936847925186
-0.0292032398283481
-0.028510833159089
-0.0279552266001701
-0.0274498835206031
-0.0268967114388942
-0.0261999480426311
-0.0252800397574901
-0.0240841619670391
-0.022590210661292
-0.0208052955567836
-0.0187612548470497
-0.0165092498064041
-0.0141139468178153
-0.0116461087018251
-0.0091746244579553
-0.0067603853531181
-0.0044523552060127
-0.0022856649011373
-0.0002813888713717
0.0015526730567216
0.0032202252186834
0.0047338381409645
0.0061110858805477
0.0073697390034794
0.0085244998335838
0.0095867775380611
0.0105661815032362
0.0114712268114089
0.0123077761381864
0.0130772106349468
0.0137772979214787
0.0144042838364839
0.0149533301591873
0.0154188005253672
0.0157962776720523
0.0160844475030899
0.0162848606705665
0.0163985267281532
0.0164177864789962
0.016313062980771
0.0160179398953914
0.0154205551370978
0.0143702225759625
0.0127026019617915
0.0102770673111081
0.0070152450352907
0.0029303906485438
-0.0018607368692755
-0.0071460148319602
-0.01264254655689
-0.0180322527885437
-0.0230019502341747
-0.027280356734991
-0.0306654870510101
-0.0330387912690639
-0.0343667566776275
-0.0346941612660884
-0.0341318920254707
-0.0328396037220954
-0.0310049951076507
-0.0288231298327446
-0.0264775156974792
-0.0241241622716188
-0.0218798946589231
-0.0198154337704181
-0.017953610047698
-0.0162730440497398
-0.0147171206772327
-0.013206698000431
-0.0116544775664806
-0.0099796112626791
-0.0081204082816839
-0.0060421042144298
-0.0037386072799563
-0.0012298980727791
0.0014424342662096
0.0042199734598398
0.0070334137417376
0.0098113929852843
0.0124896327033638
0.0150162689387798
0.0173536092042922
0.0194782875478267
0.0213809665292501
0.0230656825006008
0.0245470106601715
0.0258447770029306
0.0269791968166828
0.0279682874679565
0.0288271158933639
0.029568113386631
0.0302011407911777
0.0307325758039951
0.031164888292551
0.0314981266856193
0.0317316018044948
0.0318641178309917
0.0318940915167331
0.0318205505609512
0.0316445529460907
0.0313702821731567
0.0310047045350074
0.0305544305592775
0.030018150806427
0.0293742287904024
0.0285672713071107
0.027500320225954
0.0260389354079961
0.0240307375788688
0.0213374160230159
0.0178707428276538
0.0136231333017349
0.008683631196618
0.0032342430204153
-0.0024706926196813
-0.0081364223733544
-0.0134661179035902
-0.0181985814124345
-0.0221366733312606
-0.0251622982323169
-0.0272396244108676
-0.0284096710383892
-0.0287784673273563
-0.0285001173615455
-0.0277566444128751
-0.0267380326986312
-0.0256241038441658
-0.0245677344501018
-0.0236816052347421
-0.0230312794446945
-0.022633321583271
-0.022456832230091
-0.0224306266754865
-0.0224569533020257
-0.0224280767142772
-0.0222419127821922
-0.0218152329325675
-0.0210928563028574
-0.02005136013031
-0.0186977479606866
-0.017064806073904
-0.015205105766654
-0.0131844468414783
-0.0110745867714285
-0.0089455479755997
-0.0068585802800953
-0.0048611927777528
-0.0029854588210582
-0.0012489741202443
0.0003436694678384
0.001799133955501
0.0031321509741246
0.0043614567257463
0.0055066384375095
0.0065866531804203
0.0076186624355614
0.0086160106584429
0.0095862075686454
0.0105302901938557
0.011444023810327
0.012320133857429
0.0131503464654088
0.0139259463176131
0.0146366069093346
0.0152668533846735
0.0157863795757293
0.0161346271634101
0.0162096247076988
0.0158719234168529
0.0149654690176248
0.0133492657914757
0.0109321838244795
0.0077019920572638
0.003739780280739
-0.0007831845432519
-0.0056235119700431
-0.0104950591921806
-0.0151051133871078
-0.0191895626485347
-0.0225401073694229
-0.0250213425606489
-0.0265767537057399
-0.0272243581712245
-0.0270463582128286
-0.0261756218969821
-0.024778326973319
-0.0230339542031288
-0.0211160518229007
-0.0191754717379808
-0.0173270180821418
-0.0156411807984113
-0.0141418073326349
-0.0128099787980318
-0.0115935131907463
-0.0104191759601235
-0.0092052947729825
-0.0078745931386947
-0.0063652638345956
-0.0046379277482628
-0.002679438330233
-0.0005041565746068
0.0018488327041268
0.0043223844841122
0.006848897319287
0.0093569885939359
0.0117789655923843
0.014059274457395
0.0161598268896341
0.0180600937455892
0.0197537690401077
0.021245177835226
0.0225471295416355
0.0236784629523754
0.0246607474982738
0.0255153216421604
0.026260957121849
0.0269128177314996
0.0274823978543281
0.0279767829924821
0.0283981151878833
0.0287445299327373
0.0290116295218467
0.0291935577988624
0.0292834471911191
0.0292742792516946
0.0291603840887546
0.0289381016045808
0.0286045372486114
0.0281517710536718
0.0275545958429574
0.026756152510643
0.0256602503359317
0.0241375286132097
0.0220466945320367
0.0192666500806808
0.0157309714704751
0.0114541668444871
0.0065427888184785
0.0011896081268787
-0.0043481979519128
-0.0097821792587637
-0.0148295881226658
-0.0192483868449926
-0.022864531725645
-0.0255847834050655
-0.0273951105773448
-0.0283507332205772
-0.0285606645047664
-0.0281690545380115
-0.0273382812738418
-0.0262353345751762
-0.025018822401762
-0.0238255616277456
-0.0227587111294269
-0.0218802466988563
-0.0212089754641056
-0.0207234062254428
-0.0203691758215427
-0.0200709216296672
-0.0197458881884813
-0.019315717741847
-0.0187157019972801
-0.0179016105830669
-0.0168527215719223
-0.0155709404498338
-0.0140781253576278
-0.0124124689027667
-0.0106232101097702
-0.0087641142308712
-0.0068868575617671
-0.0050354665145277
-0.0032434326130896
-0.0015338584780693
7.871974958106875e-05
0.001586785307154
0.0029891463927924
0.0042896522209048
0.0054954309016466
0.0066163633018732
0.0076649645343422
0.0086539238691329
0.0095916567370295
0.0104799317196011
0.0113152172416448
0.0120907435193657
0.0127976229414343
0.0134268263354897
0.0139718819409608
0.014429971575737
0.0148014659062027
0.0150897158309817
0.0153012908995151
0.0154450600966811
0.0155295049771666
0.0155589375644922
0.01552689447999
0.0154042970389127
0.0151261650025844
0.0145865669474005
0.0136493006721138
0.0121738705784082
0.010048821568489
0.007222126238048
0.003721104003489
-0.0003422023728489
-0.0047802487388253
-0.0093517750501632
-0.0137934517115354
-0.0178543962538242
-0.0213246364146471
-0.024053905159235
-0.0259610246866941
-0.027034044265747
-0.0273228008300066
-0.0269267484545707
-0.0259798057377338
-0.0246334001421928
-0.0230399202555418
-0.0213386490941047
-0.0196446049958467
-0.0180399417877197
-0.0165683794766664
-0.0152346175163984
-0.01400997210294
-0.0128424437716603
-0.0116685796529054
-0.0104251531884074
-0.0090587334707379
-0.0075328117236495
-0.0058320807293057
-0.0039625111967325
-0.0019479237962514
0.0001748348586261
0.0023603548761457
0.004558143671602
0.006716473493725
0.008787352591753
0.0107310358434915
0.0125184692442417
0.014131287112832
0.0155603643506765
0.0168049298226833
0.0178724005818367
0.0187772437930107
0.0195385292172431
0.0201767981052398
0.0207107327878475
0.0211551766842603
0.0215217843651771
0.02182013168931
0.0220564268529415
0.0222315490245819
0.0223412346094846
0.0223777070641517
0.0223314929753541
0.0221936963498592
0.0219587832689285
0.0216266568750143
0.0212025847285985
0.0206946805119514
0.0201086699962615
0.0194386560469865
0.0186545141041278
0.0176910310983657
0.0164467152208089
0.014797855168581
0.0126252127811312
0.0098447147756814
0.0064336964860558
0.0024458058178424
-0.0019890507683157
-0.0066785560920834
-0.0113928271457552
-0.015895901247859
-0.0199754480272531
-0.0234635770320892
-0.0262486934661865
-0.0282813776284456
-0.0295739993453025
-0.0301925539970397
-0.0302431248128414
-0.0298569463193416
-0.0291755981743335
-0.0283367596566677
-0.0274609588086605
-0.0266399066895246
-0.0259276218712329
-0.0253360606729984
-0.0248373337090015
-0.0243733115494251
-0.0238691791892051
-0.0232461020350456
-0.0224316231906414
-0.021368071436882
-0.0200185105204582
-0.0183701235800981
-0.016435332596302
-0.0142498780041933
-0.0118677048012614
-0.0093541601672768
-0.0067790271714329
-0.0042103789746761
-0.0017094106879085
0.0006740267854183
0.0029038747306913
0.0049575050361454
0.0068243434652686
0.008504569530487
0.0100070107728242
0.0113458950072526
0.0125376489013433
0.013599126599729
0.0145473424345254
0.0153994848951697
0.0161722190678119
0.0168801955878734
0.0175341349095106
0.018139598891139
0.0186972953379154
0.0192044768482446
0.0196566563099622
0.0200487785041332
0.0203752629458904
0.0206287465989589
0.0207954924553632
0.0208453126251697
0.0207201223820447
0.0203303191810846
0.0195640958845615
0.0183080807328224
0.0164741296321153
0.0140251014381647
0.0109916627407073
0.0074751921929419
0.0036378568038344
-0.0003170557320117
-0.0041724112816154
-0.0077263521961867
-0.0108154918998479
-0.0133290514349937
-0.0152143482118844
-0.0164742432534694
-0.0171586424112319
-0.017353668808937
-0.0171701349318027
-0.0167301520705223
-0.0161526892334222
-0.0155416149646043
-0.0149771515280008
-0.0145102236419916
-0.0141604850068688
-0.0139181297272443
-0.0137487845495343
-0.0136006344109773
-0.0134124802425503
-0.0131218321621418
-0.0126728843897581
-0.0120238158851861
-0.0111524444073438
-0.0100595401600003
-0.0087679484859108
-0.0073168901726603
-0.0057544019073247
-0.0041306815110147
-0.0024925945326685
-0.0008791154250502
0.0006812186911702
0.002169820247218
0.0035764994099736
0.0048986538313329
0.0061398749239742
0.0073075294494628
0.0084105068817734
0.0094578154385089
0.0104583781212568
0.0114208310842514
0.0123519599437713
0.0132549609988927
0.0141277546063065
0.0149612873792648
0.0157411079853773
0.016452295705676
0.0170830488204956
0.0176251679658889
0.0180729888379573
0.018422182649374
0.0186697170138359
0.0188151597976684
0.0188611652702093
0.0188098177313804
0.0186536870896816
0.0183645784854888
0.017886247485876
0.0171368960291147
0.016021816059947
0.0144523866474628
0.0123681901022791
0.0097580589354038
0.0066730515100061
0.0032267486676573
-0.0004165228456258
-0.0040624840185046
-0.0075116590596735
-0.0105825252830982
-0.0131308026611804
-0.0150635810568928
-0.0163449794054031
-0.0169928669929504
-0.0170708429068326
-0.0166785884648561
-0.0159400217235088
-0.0149884466081857
-0.0139510501176118
-0.0129370409995317
-0.0120310503989458
-0.0112895220518112
-0.010738480836153
-0.0103741213679313
-0.0101672280579805
-0.0100698200985789
-0.0100221959874033
-0.0099605675786733
-0.0098254773765802
-0.0095694782212376
-0.0091621903702616
-0.0085916807875037
-0.0078626852482557
-0.0069931591860949
-0.0060104941949248
-0.0049479948356747
-0.0038408990949392
-0.0027221089694648
-0.0016197653021663
-0.0005571330548264
0.0004471194697543
0.0013792898971587
0.0022310819476842
0.0029991681221872
0.0036838315427303
0.004287518095225
0.0048136594705283
0.0052658645436167
0.0056477445177733
0.005963216535747
0.0062173102051019
0.0064172274433076
0.0065725501626729
0.0066945641301572
0.006795251276344
0.0068857106380164
0.0069749220274388
0.0070703760720789
0.0071794199757277
0.0073091555386781
0.0074634235352277
0.0076352311298251
0.007796186953783
0.0078887762501835
0.0078265247866511
0.0075038960203528
0.0068152365274727
0.0056786867789924
0.0040577920153737
0.0019742127042263
-0.0004911292344331
-0.0032071534078568
-0.0060090627521276
-0.0087199602276086
-0.0111742950975894
-0.0132372947409749
-0.0148162934929132
-0.0158643070608377
-0.0163778588175773
-0.0163909159600734
-0.0159671958535909
-0.0151919797062873
-0.014162965118885
-0.0129806799814105
-0.0117395855486392
-0.0105197159573435
-0.0093792183324694
-0.0083497092127799
-0.0074356021359562
-0.0066173169761896
-0.0058574709109961
-0.0051080607809126
-0.004318016115576
-0.0034419414587318
-0.0024482710286974
-0.0013237679377198
-7.401127368211746e-05
0.0012786732986569
0.002698537427932
0.0041406187228858
0.0055564730428159
0.0069006998091936
0.0081358812749385
0.0092349359765648
0.0101813916116952
0.0109682623296976
0.0115962587296962
0.0120719671249389
0.0124068018049001
0.0126161379739642
0.0127172674983739
0.0127275884151458
0.0126641122624278
0.0125427637249231
0.0123773906379938
0.0121791902929544
0.0119564980268478
0.0117158079519867
0.0114636467769742
0.0112067013978958
0.010950231924653
0.0106975203379988
0.0104511249810457
0.0102134803310036
0.0099839717149734
0.0097524728626012
0.0094915423542261
0.0091495513916015
0.0086482772603631
0.0078893899917602
0.00677011301741
0.005203585140407
0.0031397852580994
0.000583435408771
-0.002397300908342
-0.0056753968819975
-0.0090800747275352
-0.0124175064265728
-0.0154936565086245
-0.0181362424045801
-0.0202127899974584
-0.0216419156640768
-0.0223964117467403
-0.0224997494369745
-0.0220191851258277
-0.0210569147020578
-0.0197389628738164
-0.0182025972753763
-0.0165831632912158
-0.0150000797584652
-0.0135435732081532
-0.0122663658112287
-0.011183088645339
-0.0102755185216665
-0.0095006339251995
-0.0087999571114778
-0.0081094531342387
-0.0073694130405783
-0.0065322937443852
-0.005566834937781
-0.0044593419879674
-0.0032131280750036
-0.001846473198384
-0.0003894413821399
0.0011209049262106
0.0026461202651262
0.0041502704843878
0.0056016161106526
0.006973479874432
0.0082442723214626
0.0093975644558668
0.0104238567873835
0.0113222645595669
0.0121001508086919
0.0127719733864068
0.0133576178923249
0.0138787440955638
0.0143541619181633
0.0147964339703321
0.0152103323489427
0.0155934384092688
0.0159382671117782
0.0162338931113481
0.0164669957011938
0.0166237093508243
0.0166916195303201
0.0166598744690418
0.0165148694068193
0.0162304490804672
0.01575761847198
0.0150213604792952
0.0139280492439866
0.0123830903321504
0.0103140529245138
0.0076920520514249
0.0045464416034519
0.000969735905528
-0.0028882347978651
-0.0068357475101947
-0.0106626953929662
-0.0141675323247909
-0.0171804130077362
-0.0195783022791147
-0.0212919097393751
-0.0223060548305511
-0.0226550046354532
-0.0224141255021095
-0.0216902010142803
-0.0206116363406181
-0.0193164646625518
-0.0179380904883146
-0.0165928993374109
-0.0153721943497657
-0.0143375704064965
-0.0135180875658988
-0.0129097811877727
-0.0124794533476233
-0.0121713075786829
-0.0119137894362211
-0.0116277011111378
-0.0112373679876327
-0.0106827272102236
-0.0099268201738595
-0.0089560057967901
-0.0077761095017194
-0.0064074965193867
-0.0048794513568282
-0.0032250955700874
-0.0014778301119804
0.0003309268504381
0.0021722605451941
0.0040186829864978
0.0058436249382793
0.0076230061240494
0.0093372454866766
0.0109720174223184
0.0125181740149855
0.0139703182503581
0.0153238857164978
0.0165732502937316
0.0177119486033916
0.0187332406640052
0.0196299776434898
0.0203953310847282
0.0210254583507776
0.0215217843651771
0.0218906961381435
0.0221418906003236
0.0222870782017707
0.0223387014120817
0.0223069563508033
0.0221929084509611
0.0219768453389406
0.021606009453535
0.0209909100085496
0.020017011091113
0.018569353967905
0.0165619496256113
0.0139634953811764
0.0108125507831573
0.0072188698686659
0.0033517484553158
-0.0005807436536997
-0.00435771048069
-0.0077732121571898
-0.0106609277427196
-0.0129108121618628
-0.014475567266345
-0.0153674632310867
-0.015649028122425
-0.0154218822717666
-0.0148147027939558
-0.013969630934298
-0.013028297573328
-0.0121196545660495
-0.0113495914265513
-0.0107912607491016
-0.0104786707088351
-0.0104068759828805
-0.0105374800041317
-0.0108063369989395
-0.0111324712634086
-0.0114281978458166
-0.0116096725687384
-0.0116066066548228
-0.0113697657361626
-0.0108750974759459
-0.0101244123652577
-0.0091428747400641
-0.007973562926054
-0.0066707646474242
-0.00529375532642
-0.0039005989674478
-0.0025419062003493
-0.0012571616098284
-7.451866986230016e-05
0.0009880438446998
0.0019209161400794
0.0027204025536775
0.0033869501203298
0.0039245774969458
0.0043407608754932
0.0046469229273498
0.0048603061586618
0.0050052632577717
0.0051107667386531
0.0052050710655748
0.0053110127337276
0.0054443213157355
0.0056153293699026
0.0058317254297435
0.0061002341099083
0.0064268177375197
0.0068142656236886
0.0072571416385471
0.0077346484176814
0.0082005187869071
0.0085736848413944
0.0087378658354282
0.0085545238107442
0.0078874872997403
0.0066323527134954
0.0047425273805856
0.0022460711188614
-0.0007510220166295
-0.0040761199779808
-0.0075130080804228
-0.0108314100652933
-0.013815825805068
-0.0162889901548624
-0.0181278996169567
-0.0192702636122703
-0.0197125896811485
-0.0195040851831436
-0.0187374725937843
-0.0175353940576314
-0.016034809872508
-0.0143731934949755
-0.012676334939897
-0.0110470978543162
-0.0095569444820284
-0.0082412995398044
-0.0070996489375829
-0.0061019398272037
-0.0051988330669701
-0.004331286996603
-0.0034392075613141
-0.0024705245159566
-0.0013896450400352
-0.0001825694926083
0.0011431192979216
0.0025621238164603
0.004036677069962
0.0055216359905898
0.0069686705246567
0.0083304494619369
0.0095659391954541
0.0106446649879217
0.0115476101636886
0.0122669320553541
0.0128067564219236
0.0131825907155871
0.0134174078702926
0.0135370604693889
0.0135677978396415
0.0135352257639169
0.0134635753929615
0.0133751919493079
0.0132892820984125
0.0132190473377704
0.0131688714027404
0.0131340017542243
0.013103655539453
0.0130655923858284
0.0130086373537778
0.0129229808226227
0.012800071388483
0.0126301972195506
0.0123946676030755
0.0120542887598276
0.0115397218614816
0.0107503272593021
0.0095666693523526
0.0078755635768175
0.0055990759283304
0.0027183345519006
-0.0007123560644686
-0.0045635872520506
-0.0086423084139823
-0.0127143282443284
-0.0165334679186344
-0.0198720954358577
-0.0225470978766679
-0.0244369972497224
-0.0254891775548458
-0.0257190186530351
-0.0252035055309534
-0.0240698922425508
-0.022479809820652
-0.0206116326153278
-0.0186432879418134
-0.0167350936681032
-0.0150138596072793
-0.0135620571672916
-0.0124138100072741
-0.0115567026659846
-0.010938529856503
-0.010478138923645
-0.0100786704570055
-0.0096406815573573
-0.0090737687423825
-0.008306598290801
-0.0072942343540489
-0.0060214353725314
-0.0045018726959824
-0.0027739917859435
-0.00089419959113
0.0010719578713178
0.0030591837130486
0.00500990729779
0.0068785627372562
0.0086333323270082
0.0102559095248579
0.0117397094145417
0.0130870100110769
0.0143050551414489
0.015402260236442
0.0163862593472003
0.0172629747539758
0.0180346928536891
0.0186986066401004
0.019248379394412
0.0196774117648601
0.0199813488870859
0.0201600007712841
0.0202180221676826
0.020160611718893
0.0199830811470747
0.0196577105671167
0.0191224198788404
0.0182768031954765
0.0169911812990903
0.0151301575824618
0.0125854928046464
0.0093083409592509
0.0053310561925172
0.0007733730599284
-0.0041666221804916
