bvp
-0.0420154854655265
-0.0433142185211181
-0.0434560105204582
-0.0426255464553833
-0.0410605706274509
-0.0390233173966407
-0.0367722027003765
-0.0345377959311008
-0.0325033292174339
-0.0307892616838216
-0.0294444188475608
-0.0284475609660148
-0.0277182348072528
-0.0271327272057533
-0.0265444405376911
-0.0258073974400758
-0.0247969925403594
-0.0234241113066673
-0.0216426029801368
-0.0194504112005233
-0.0168848559260368
-0.0140139888972043
-0.0109265986829996
-0.0077226082794368
-0.0045042871497571
-0.0013675048248842
0.001606733771041
0.0043574892915785
0.0068442532792687
0.009044935926795
0.0109537849202752
0.012579521164298
0.0139438426122069
0.0150792468339204
0.0160244405269622
0.0168190747499465
0.0175012499094009
0.0181071236729621
0.0186691023409366
0.019210685044527
0.0197360198944807
0.0202129054814577
0.0205542668700218
0.0206088498234748
0.0201721787452697
0.0190219692885875
0.0169693734496831
0.0139087764546275
0.0098516354337334
0.0049384050071239
-0.0005723486538045
-0.0063356710597872
-0.0119661223143339
-0.0170881748199462
-0.0213815197348594
-0.0246133599430322
-0.0266548115760087
-0.0274839699268341
-0.0271782539784908
-0.0258973389863967
-0.023860128596425
-0.0213195756077766
-0.0185368452221155
-0.0157554484903812
-0.0131775047630071
-0.0109451860189437
-0.0091294134035706
-0.0077274199575185
-0.0066700372844934
-0.005837146192789
-0.0050771236419677
-0.0042277164757251
-0.0031376210972666
-0.0016860673204064
0.0002024415880441
0.0025495160371065
0.0053220568224787
0.0084392772987484
0.0117847090587019
0.0152199324220418
0.0185977853834629
0.021774623543024
0.024622406810522
0.0270397458225488
0.0289591569453477
0.0303489472717046
0.0312111899256706
0.0315778031945228
0.0315044671297073
0.0310614369809627
0.0303228162229061
0.0293576326221227
0.0282244253903627
0.0269691906869411
0.0256261751055717
0.0242195054888725
0.0227644424885511
0.0212697312235832
0.0197391901165246
0.0181651394814252
0.0165097061544656
0.0146804274991154
0.0125149739906191
0.0097900843247771
0.0062609259039163
0.0017227241769433
-0.0039256801828742
-0.0106374146416783
-0.0182032417505979
-0.0262681264430284
-0.0343734845519065
-0.0420161187648773
-0.0487126857042312
-0.0540569685399532
-0.0577588230371475
-0.0596612021327018
-0.0597390122711658
-0.058085311204195
-0.054889753460884
-0.0504134707152843
-0.0449623689055442
-0.0388592667877674
-0.0324168093502521
-0.0259149130433797
-0.0195835810154676
-0.0135904364287853
-0.0080350823700428
-0.0029522776603698
0.0016774106770753
0.0059126317501068
0.0098347086459398
0.0135307498276233
0.0170776695013046
0.0205302443355321
0.0239153187721967
0.0272313114255666
0.0304515659809112
0.0335305482149124
0.0364113003015518
0.0390326790511608
0.041335891932249
0.0432700328528881
0.0447974912822246
0.0458998866379261
0.0465814545750618
0.0468668192625045
0.0467951148748397
0.0464134626090526
0.0457711368799209
0.0449156090617179
0.0438908971846103
0.0427367016673088
0.0414870455861091
0.0401690118014812
0.0388013422489166
0.0373927056789398
0.0359416976571083
0.0344390794634819
0.0328707918524742
0.0312209129333496
0.0294744428247213
0.0276179164648056
0.0256321281194686
0.0234743319451808
0.0210579484701156
0.0182440932840108
0.0148555599153041
0.0107139144092798
0.0056891683489084
-0.0002539493143558
-0.0070271771401166
-0.0144146345555782
-0.0220926366746425
-0.0296690762042999
-0.0367358848452568
-0.0429226979613304
-0.0479402318596839
-0.0516088232398033
-0.0538703203201293
-0.0547831952571868
-0.0545053482055664
-0.0532707199454307
-0.0513627007603645
-0.0490853190422058
-0.046734482049942
-0.0445722192525863
-0.0428049638867378
-0.0415671691298484
-0.0409125983715057
-0.04081442207098
-0.041174154728651
-0.0418387316167354
-0.0426237843930721
-0.0433401130139827
-0.0438187941908836
-0.0439296253025531
-0.0435907654464244
-0.0427700616419315
-0.0414801351726055
-0.0397704467177391
-0.0377174653112888
-0.0354123227298259
-0.0329472310841083
-0.030404157936573
-0.0278481859713792
-0.0253239180892705
-0.0228525400161743
-0.0204303711652755
-0.0180302932858467
-0.0156063744798302
-0.0131011502817273
-0.010453836992383
-0.0076086428016424
-0.0045225862413644
-0.0011707320809364
0.0024518240243196
0.0063290335237979
0.0104214148595929
0.0146593330428004
0.018928937613964
0.0230552721768617
0.0267971102148294
0.0298651698976755
0.0319635346531868
0.0328451469540596
0.0323673039674758
0.0305317342281341
0.0274979434907436
0.023567134514451
0.0191413685679435
0.014666324481368
0.0105705633759498
0.0072148200124502
0.0048573371022939
0.0036359447985887
0.0035665202885866
0.0045546181499958
0.0064161550253629
0.0089039131999015
0.011736050248146
0.014624360948801
0.0173024460673332
0.0195520687848329
0.0212228894233703
0.0222422257065773
0.0226158648729324
0.022422207519412
0.0217992924153804
0.0209239590913057
0.0199867747724056
0.0191686041653156
0.0186213329434394
0.0184534862637519
0.0187228471040725
0.0194367952644824
0.0205579958856105
0.0220127031207084
0.0237017758190631
0.0255154184997081
0.027348743751645
0.0291138757020235
0.0307471044361591
0.0322110280394554
0.0334936641156673
0.0346068851649761
0.0355834066867828
0.0364709421992301
0.0373237505555152
0.0381927266716957
0.0391165576875209
0.0401158705353736
0.0411904007196426
0.0423188060522079
0.043461263179779
0.0445641353726387
0.0455650612711906
0.046398214995861
0.0470000617206096
0.0473117530345916
0.0472716689109802
0.046797327697277
0.0457651987671852
0.0440024733543396
0.0413015335798263
0.0374575331807136
0.0323195457458496
0.0258399005979299
0.0181060582399368
0.0093459617346525
-9.419023990631104e-05
-0.0097939595580101
-0.0193138346076011
-0.028250478208065
-0.0362818799912929
-0.0431935153901577
-0.0488831028342247
-0.0533497110009193
-0.0566744804382324
-0.0589985363185405
-0.0605025514960289
-0.0613881945610046
-0.0618586242198944
-0.0620989091694355
-0.0622600987553596
-0.0624484047293663
-0.0627185404300689
-0.0630718246102333
-0.0634611099958419
-0.0638021677732467
-0.0639882311224937
-0.0639057680964469
-0.0634508654475212
-0.0625428855419159
-0.0611323602497577
-0.0592033267021179
-0.0567712746560573
-0.0538777150213718
-0.0505831651389598
-0.0469595864415168
-0.043082270771265
-0.0390213653445243
-0.0348349958658218
-0.0305665992200374
-0.0262467674911022
-0.0218967273831367
-0.0175309143960475
-0.0131592508405447
-0.0087905768305063
-0.0044366014190018
-0.0001143274712376
0.0041542346589267
0.0083444407209753
0.0124318478628993
0.0163948200643062
0.0202165469527244
0.0238852500915527
0.02739286608994
0.0307332910597324
0.0338994264602661
0.036879651248455
0.0396565422415733
0.0422068648040294
0.0444976612925529
0.0464742109179496
0.0480414107441902
0.0490490011870861
0.0492942072451114
0.0485483147203922
0.0466035418212413
0.0433275252580642
0.0387087129056453
0.0328801237046718
0.0261155664920806
0.0187985263764858
0.0113715380430221
0.0042790146544575
-0.002084800042212
-0.0074152150191366
-0.0115198148414492
-0.0143243335187435
-0.0158647168427705
-0.0162696950137615
-0.0157379191368818
-0.0145115926861763
-0.012847987934947
-0.0109922681003808
-0.0091544510796666
-0.0074913636781275
-0.0060952575877308
-0.0049914638511836
-0.0041451686993241
-0.0034749931655824
-0.0028710034675896
-0.0022152415476739
-0.0014009922742843
-0.0003466121852397
0.0009959619492292
0.0026364373043179
0.0045462641865015
0.0066641988232731
0.0089056845754385
0.0111742569133639
0.0133728757500648
0.015413099899888
0.0172212310135364
0.0187411084771156
0.0199338980019092
0.0207769125699996
0.0212636012583971
0.0214040912687778
0.0212238319218158
0.0207604132592678
0.020060321316123
0.0191754344850778
0.0181587282568216
0.0170606784522533
0.0159268267452716
0.0147954113781452
0.0136938784271478
0.0126310866326093
0.0115819238126277
0.0104676820337772
0.0091434922069311
0.0074054822325706
0.0050219502300024
0.001781778410077
-0.0024528913199901
-0.007704522460699
-0.0138608887791633
-0.020684003829956
-0.0278432294726371
-0.0349612161517143
-0.0416625589132308
-0.0476182475686073
-0.0525774583220481
-0.0563818588852882
-0.0589660331606864
-0.0603492334485054
-0.0606218911707401
-0.0599294900894165
-0.0584543198347091
-0.0563959032297134
-0.0539521686732769
-0.0513024628162384
-0.0485932454466819
-0.0459275729954242
-0.0433590933680534
-0.0408913604915142
-0.0384840108454227
-0.0360658392310142
-0.0335511155426502
-0.0308550056070089
-0.0279067326337099
-0.0246598534286022
-0.0210981480777263
-0.0172369852662086
-0.0131208971142768
-0.0088170450180768
-0.0044052638113498
3.187917172908783e-05
0.0044156834483146
0.0086747920140624
0.0127480616793036
0.0165879391133785
0.0201625619083642
0.0234551671892404
0.0264624617993831
0.029193140566349
0.0316651128232479
0.0339019671082496
0.0359309762716293
0.0377819836139678
0.0394854769110679
0.0410699173808097
0.0425589382648468
0.0439683943986892
0.0453035607933998
0.0465577840805053
0.0477137491106987
0.0487467870116233
0.0496289357542991
0.0503333173692226
0.0508377365767955
0.0511253774166107
0.051181174814701
0.0509826205670833
0.0504848025739192
0.0496045723557472
0.0482139140367507
0.0461512990295887
0.043251909315586
0.0393888503313064
0.0345133058726787
0.0286823529750108
0.0220665838569402
0.0149348238483071
0.0076206452213227
0.0004796786233782
-0.0061539039015769
-0.0120044779032468
-0.0168794393539428
-0.0206789299845695
-0.0233923569321632
-0.0250848159193992
-0.0258785467594862
-0.0259341020137071
-0.0254324916750192
-0.0245582517236471
-0.0234841741621494
-0.022358214482665
-0.0212929733097553
-0.0203597173094749
-0.0195884760469198
-0.0189730674028396
-0.0184792149811983
-0.0180543046444654
-0.0176369957625865
-0.0171656254678964
-0.0165856704115867
-0.0158558078110218
-0.0149511061608791
-0.0138628426939249
-0.0125963492318987
-0.0111690191552042
-0.0096080265939235
-0.0079464744776487
-0.0062195579521358
-0.0044620377011597
-0.0027061095461249
-0.000978990457952
0.0006985682994127
0.0023112734779715
0.0038465866819024
0.005292298272252
0.0066362302750349
0.0078679546713829
0.0089789219200611
0.0099607417359948
0.0108049921691417
0.0115041360259056
0.0120521625503897
0.0124455522745847
0.0126841915771365
0.0127710849046707
0.0127111272886395
0.0125102372840046
0.0121752135455608
0.0117140831425786
0.011137668043375
0.0104613089933991
0.0097045414149761
0.0088898669928312
0.0080419648438692
0.0071855969727039
0.0063424166291952
0.0055294521152973
0.0047584064304828
0.0040303748100996
0.0033227298408746
0.0025733243674039
0.0016735717654228
0.0004792753607034
-0.0011612996459007
-0.0033714920282363
-0.0062140580266714
-0.0096698449924588
-0.0136311585083603
-0.0179122928529977
-0.0222742799669504
-0.0264564771205186
-0.0302089303731918
-0.0333209857344627
-0.0356416329741478
-0.0370900183916091
-0.037656620144844
-0.0373958460986614
-0.0364127904176712
-0.0348473340272903
-0.0328577384352684
-0.0306056328117847
-0.0282430779188871
-0.0259010046720504
-0.0236796438694
-0.0216429270803928
-0.019817229360342
-0.0181941036134958
-0.0167369935661554
-0.0153907090425491
-0.0140915364027023
-0.0127764791250228
-0.0113912746310234
-0.0098967738449573
-0.0082724019885063
-0.0065164812840521
-0.0046446421183645
-0.0026867704000324
-0.0006822985014878
0.0013250740012153
0.003291584085673
0.0051765306852757
0.0069451443850994
0.0085706757381558
0.010035153478384
0.0113295037299394
0.0124528743326663
0.0134106650948524
0.0142127890139818
0.0148732140660285
0.0154092647135257
0.0158399082720279
0.0161840226501226
0.0164591968059539
0.0166804790496826
0.0168585982173681
0.0169984921813011
0.0170992668718099
0.0171556882560253
0.0171609856188297
0.0171103216707706
0.0170033983886241
0.0168444719165563
0.0166386160999536
0.01638407073915
0.0160609763115644
0.015620213933289
0.0149808572605252
0.0140415485948324
0.0127022266387939
0.0108888540416955
0.0085752923041582
0.0057977987453341
0.002657602308318
-0.0006904461770318
-0.0040592048317193
-0.0072537800297141
-0.0100950263440608
-0.0124391540884971
-0.0141911571845412
-0.0153111973777413
-0.015812698751688
-0.0157532226294279
-0.0152226574718952
-0.0143310874700546
-0.0131962206214666
-0.0119318403303623
-0.0106387827545404
-0.009397555142641
-0.0082621527835726
-0.0072566294111311
-0.0063758976757526
-0.005591528955847
-0.0048605473712086
-0.0041334731504321
-0.0033611645922064
-0.0025015939027071
-0.0015252102166414
-0.0004177195951342
0.0008189566433429
0.0021673180162906
0.0035962839610874
0.005063721910119
0.0065208114683628
0.0079193459823727
0.0092184115201234
0.0103870956227183
0.0114046642556786
0.0122605198994278
0.0129541121423244
0.0134938759729266
0.0138949770480394
0.0141763566061854
0.0143579905852675
0.0144594116136431
0.0144993318244814
0.014495694078505
0.0144650302827358
0.0144198406487703
0.0143653927370905
0.0142987389117479
0.0142108555883169
0.0140913762152194
0.0139329927042126
0.0137316975742578
0.0134844481945037
0.0131888873875141
0.0128443660214543
0.0124503215774893
0.0120004406198859
0.0114726293832063
0.0108182467520236
0.0099586574360728
0.008793968707323
0.0072222407907247
0.0051648062653839
0.0025910544209182
-0.0004657238023355
-0.0039063077419996
-0.0075753722339868
-0.0112787187099456
-0.0148056931793689
-0.0179547071456909
-0.0205567609518766
-0.0224915090948343
-0.0236949697136878
-0.0241605099290609
-0.023933783173561
-0.0231031216681003
-0.0217879004776477
-0.0201254244893789
-0.0182562302798032
-0.0163106210529804
-0.0143990358337759
-0.0126059027388691
-0.0109867583960294
-0.0095683466643095
-0.0083504663780331
-0.0073090372607111
-0.006400944199413
-0.0055716368369758
-0.0047648749314248
-0.0039320671930909
-0.0030385525897145
-0.0020659873262047
-0.001012279652059
0.0001100478693842
0.0012775273062288
0.0024598469026386
0.0036231277044862
0.0047341715544462
0.0057650227099657
0.0066953063942492
0.0075134867802262
0.0082175303250551
0.0088135739788413
0.0093140853568911
0.0097365947440266
0.01010088250041
0.0104245394468307
0.0107197891920804
0.0109922774136066
0.0112405829131603
0.0114571377635002
0.0116310762241482
0.0117508461698889
0.0118053071200847
0.0117845926433801
0.0116816004738211
0.0114937592297792
0.0112237837165594
0.0108783915638923
0.0104663483798503
0.0099972654134035
0.009479209780693
0.008911645039916
0.0082735726609826
0.0075126481242477
0.0065439101308584
0.0052629965357482
0.0035708528012037
0.001401261659339
-0.0012565844226628
-0.0043445089831948
-0.0077341394498944
-0.0112396711483597
-0.0146413221955299
-0.0177145134657621
-0.0202583819627761
-0.0221155304461717
-0.0231815073639154
-0.0234095528721809
-0.0228135697543621
-0.0214676707983016
-0.019499484449625
-0.0170769859105348
-0.0143918059766292
-0.0116412248462438
-0.0090091144666075
-0.006648282520473
-0.0046681407839059
-0.0031279989052563
-0.0020347705576568
-0.001346921082586
-0.0009861551225185
-0.0008534844964742
-0.0008438709191977
-0.0008571804501116
-0.0008071726188063
-0.0006289673037827
-0.0002832575701177
0.0002436521463096
0.0009427196346223
0.0017864224500954
0.0027348601724952
0.0037435116246342
0.0047697531990706
0.0057760225608944
0.0067303124815225
0.0076059335842728
0.0083822598680853
0.009046172723174
0.0095921559259295
0.01002031378448
0.0103336386382579
0.0105361361056566
0.0106322132050991
0.0106270462274551
0.0105283074080944
0.0103482734411954
0.0101031754165887
0.0098095880821347
0.0094816014170646
0.0091302581131458
0.0087634529918432
0.0083857383579015
0.0079992730170488
0.0076060835272073
0.0072094392962753
0.006811951752752
0.006409847177565
0.0059836902655661
0.0054878555238246
0.004845461808145
0.003956354688853
0.0027190477121621
0.0010587847791612
-0.0010479143820703
-0.0035585989244282
-0.0063642049208283
-0.0093024782836437
-0.0121804233640432
-0.0148000949993729
-0.016984237357974
-0.0185975600033998
-0.0195588320493698
-0.0198431778699159
-0.019478365778923
-0.018537763506174
-0.0171307362616062
-0.0153918853029608
-0.0134696336463093
-0.0115141673013567
-0.0096648698672652
-0.008036789484322
-0.0067081293091177
-0.0057130809873342
-0.0050421622581779
-0.0046490784734487
-0.0044608782045543
-0.0043885023333132
-0.0043374961242079
-0.0042188838124275
-0.0039584431797266
-0.0035025705583393
-0.0028212387114763
-0.001909302547574
-0.0007851221598684
0.0005131592042744
0.0019315499812364
0.0034057740122079
0.0048688356764614
0.0062581049278378
0.0075216912664473
0.0086233988404273
0.0095437578856945
0.0102771315723657
0.0108282435685396
0.01121043600142
0.0114444391801953
0.0115560963749885
0.0115732420235872
0.0115224411711096
0.0114259999245405
0.0113002080470323
0.0111555978655815
0.010998286306858
0.010830245912075
0.0106460601091384
0.010423993691802
0.0101139405742287
0.0096319820731878
0.0088692996650934
0.0077135325409471
0.0060761822387576
0.0039193844422698
0.0012749246088787
-0.0017505281139165
-0.0049860291182994
-0.0082188704982399
-0.0112225012853741
-0.013785371556878
-0.0157368555665016
-0.0169654414057731
-0.0174267031252384
-0.0171427838504314
-0.0161951389163732
-0.0147111359983682
-0.0128472112119197
-0.0107721667736768
-0.0086523406207561
-0.0066378959454596
-0.0048495172522962
-0.0033678514882922
-0.0022291964851319
-0.0014275549910962
-0.0009200498461723
-0.0006344728171825
-0.0004798378795385
-0.000359246507287
-0.0001827972009778
0.0001218942925333
0.0006034662947058
0.0012851916253566
0.0021663084626197
0.0032248692587018
0.0044224150478839
0.0057102334685623
0.0070357285439968
0.0083477161824703
0.0095999892801046
0.0107530057430267
0.0117744207382202
0.0126398894935846
0.0133342519402503
0.0138516593724489
0.0141945872455835
0.0143730919808149
0.0144039131700992
0.0143078444525599
0.014106510207057
0.0138210523873567
0.0134716611355543
0.0130764618515968
0.0126510225236415
0.0122079029679298
0.0117550818249583
0.0112929586321115
0.0108064599335193
0.0102511867880821
0.0095423208549618
0.0085576260462403
0.0071582603268325
0.0052217226475477
0.0026759137399494
-0.0004759253934025
-0.0041446601971983
-0.0081598749384284
-0.0122889699414372
-0.0162685196846723
-0.0198408532887697
-0.0227868668735027
-0.0249494574964046
-0.0262453649193048
-0.026665773242712
-0.0262690596282482
-0.0251689814031124
-0.023518867790699
-0.0214933473616838
-0.0192712284624576
-0.0170213393867015
-0.0148907043039798
-0.0129941254854202
-0.0114056393504142
-0.0101535376161336
-0.0092204054817557
-0.0085486564785242
-0.0080505339428782
-0.0076210773549973
-0.0071527082473039
-0.0065492126159369
-0.005736940074712
-0.0046727093867957
-0.003347379155457
-0.0017830813303589
-2.594664692878723e-05
0.0018618777394294
0.0038098180666565
0.0057460134848952
0.0076041887514293
0.0093303108587861
0.0108864475041627
0.0122502148151397
0.0134121142327785
0.0143731040880084
0.0151429567486047
0.0157382283359766
0.0161795932799577
0.0164907649159431
0.0166989415884017
0.0168342851102352
0.016927495598793
0.0170060731470584
0.0170911327004432
0.0171968061476945
0.0173316225409507
0.0174999199807643
0.0177026987075805
0.0179367251694202
0.0181905087083578
0.0184373054653406
0.0186244435608387
0.0186605677008628
0.018409714102745
0.0177013054490089
0.0163572616875171
0.0142288617789745
0.0112326322123408
0.0073772785253822
0.0027756816707551
-0.0023619441781193
-0.0077528553083539
-0.0130789428949356
-0.018027726560831
-0.0223296824842691
-0.0257861837744712
-0.0282834582030773
-0.0297922510653734
-0.0303574912250041
-0.0300837084650993
-0.0291199069470167
-0.0276436991989612
-0.0258434116840362
-0.0238995291292667
-0.0219687633216381
-0.02017224393785
-0.0185867417603731
-0.0172393675893545
-0.0161089692264795
-0.0151358116418123
-0.0142364734783768
-0.013319251127541
-0.0122985783964395
-0.011107581667602
-0.0097055993974208
-0.0080795465037226
-0.0062412633560597
-0.0042229103855788
-0.0020708674564957
0.0001619365066289
0.0024239136837422
0.0046708830632269
0.0068691265769302
0.0089954864233732
0.0110360300168395
0.0129842329770326
0.0148375546559691
0.0165927335619926
0.0182434450834989
0.0197815876454114
0.0211988072842359
0.0224857535213232
0.0236309356987476
0.0246218610554933
0.0254474133253097
0.0260990764945745
0.0265705324709415
0.0268571451306343
0.0269575454294681
0.0268760751932859
0.0266227200627326
0.0262113418430089
0.0256588160991668
0.024984236806631
0.0242072977125644
0.0233465023338794
0.022416103631258
0.0214197728782892
0.0203404072672128
0.0191278643906116
0.0176904685795307
0.0158993061631917
0.0136096803471446
0.0106940735131502
0.0070766191929578
0.0027603656053543
-0.0021592639386653
-0.0074986042454838
-0.0130067793652415
-0.0183984376490116
-0.0233910474926233
-0.0277397353202104
-0.0312630012631416
-0.0338559001684188
-0.0354920141398906
-0.0362171716988086
-0.0361371636390686
-0.0354014113545417
-0.0341843143105506
-0.0326663963496685
-0.0310171116143465
-0.0293799191713333
-0.0278598479926586
-0.0265146121382713
-0.0253514964133501
-0.0243322812020778
-0.0233854874968528
-0.0224219486117362
-0.0213507711887359
-0.0200937483459711
-0.0185952298343181
-0.0168268345296382
-0.0147886592894792
-0.0125074423849582
-0.0100323408842086
-0.0074294172227382
-0.0047750435769557
-0.0021484186872839
0.0003757445374503
0.0027332603931427
0.0048745959065854
0.0067671299912035
0.0083956336602568
0.0097607607021927
0.0108769200742244
0.0117702884599566
0.0124752894043922
0.0130299236625432
0.0134712178260087
0.013830286450684
0.0141285425052046
0.0143777802586555
0.0145830428227782
0.0147450789809226
0.0148620707914233
0.0149315819144248
0.0149515960365533
0.014920406974852
0.0148360058665275
0.0146916294470429
0.0144627476111054
0.0140881650149822
0.0134571623057127
0.0124147627502679
0.010788032785058
0.0084263337776064
0.0052440240979194
0.0012531653046607
-0.0034238202497363
-0.0085628507658839
-0.0138643570244312
-0.0189930349588394
-0.0236227810382843
-0.0274762474000453
-0.030352646484971
-0.0321410819888114
-0.0328201092779636
-0.0324481353163719
-0.0311494246125221
-0.0290974676609039
-0.0264960471540689
-0.0235589705407619
-0.0204902440309524
-0.0174670852720737
-0.0146263781934976
-0.0120544917881488
-0.0097833005711436
-0.0077948784455657
-0.0060330284759402
-0.0044173253700137
-0.0028569009155035
-0.0012646513059735
0.0004294216632843
0.0022696629166603
0.0042714523151516
0.0064220018684864
0.0086848586797714
0.0110062910243868
0.013322677463293
0.0155687788501381
0.0176842622458934
0.019617211073637
0.0213273018598556
0.0227889250963926
0.0239914320409297
0.0249371416866779
0.0256392881274223
0.0261197723448276
0.0264063663780689
0.0265296064317226
0.0265195667743682
0.0264033265411853
0.0262042135000228
0.0259426422417163
0.0256362278014421
0.0252982527017593
0.0249366723001003
0.0245544426143169
0.0241501480340957
0.0237188730388879
0.0232531931251287
0.0227437168359756
0.0221789926290512
0.0215439163148403
0.0208137724548578
0.0199410356581211
0.0188385695219039
0.0173707790672779
0.0153644066303968
0.0126408990472555
0.0090603977441787
0.0045637981966137
-0.0007975390180945
-0.006852401420474
-0.0133243417367339
-0.0198656283318996
-0.0261014755815267
-0.031676135957241
-0.036292977631092
-0.0397432148456573
-0.0419210419058799
-0.0428237132728099
-0.0425385236740112
-0.0412226803600788
-0.0390811562538147
-0.0363447777926921
-0.0332492254674434
-0.0300155561417341
-0.0268333423882722
-0.0238473247736692
-0.0211485177278518
-0.0187720265239477
-0.0167025346308946
-0.0148853007704019
-0.0132400523871183
-0.0116753615438938
-0.0101012457162141
-0.0084404032677412
-0.0066386298276484
-0.0046712709590792
-0.0025434670969843
-0.0002858801744878
0.0020528323948383
0.0044147255830466
0.0067395796068012
0.0089707113802433
0.0110599119216203
0.012970408424735
0.0146780051290988
0.0161710307002067
0.0174492113292217
0.0185212548822164
0.0194024220108985
0.0201129987835884
0.0206760875880718
0.021114882081747
0.0214509479701519
0.021703153848648
0.021886933594942
0.0220133699476718
0.0220878906548023
0.0221100561320781
0.022075030952692
0.0219756867736578
0.0218045245856046
0.0215551704168319
0.0212231669574975
0.0208068676292896
0.0203082226216793
0.0197320114821195
0.0190851967781782
0.0183776244521141
0.0176206771284341
0.0168189257383346
0.0159524008631706
0.0149543406441807
0.0136971697211265
0.0119998455047607
0.0096607506275177
0.0065061841160058
0.0024379091337323
-0.002532472833991
-0.0082689579576253
-0.0145199680700898
-0.0209494866430759
-0.0271823648363351
-0.0328533723950386
-0.0376519113779068
-0.0413546338677406
-0.0438411459326744
-0.0450945794582366
-0.0451910123229026
-0.0442807525396347
-0.0425649508833885
-0.0402718670666217
-0.0376344621181488
-0.0348686687648296
-0.0321537628769874
-0.0296178478747606
-0.0273300036787986
-0.025299547240138
-0.0234827753156423
-0.0217959564179182
-0.020132128149271
-0.0183804053813219
-0.0164448097348213
-0.0142576750367879
-0.0117860808968544
-0.0090331174433231
-0.0060351309366524
-0.0028555425815284
0.0004235156811773
0.0037109665572643
0.0069169849157333
0.0099609727039933
0.0127755180001258
0.0153073519468307
0.0175176672637462
0.0193833410739898
0.0208983980119228
0.0220740735530853
0.0229366235435009
0.0235235132277011
0.0238791294395923
0.0240504890680313
0.0240835901349782
0.0240208990871906
0.0238995589315891
0.0237496197223663
0.0235927887260913
0.0234427209943532
0.0233066082000732
0.0231875218451023
0.0230869334191083
0.0230061784386634
0.0229465551674366
0.0229077599942684
0.022884301841259
0.0228604208678007
0.0228014606982469
0.022639075294137
0.0222567804157733
0.0214889384806156
0.0201400965452194
0.0180219933390617
0.0149983521550893
0.0110238045454025
0.006167541258037
0.0006179506890475
-0.0053342934697866
-0.0113323517143726
-0.0169997401535511
-0.0219873264431953
-0.0260125584900379
-0.0288855545222759
-0.0305199772119522
-0.0309301950037479
-0.0302191860973835
-0.0285614188760519
-0.0261828862130641
-0.0233387071639299
-0.0202891137450933
-0.017276145517826
-0.0145028540864586
-0.0121166929602622
-0.0101994713768363
-0.008765417151153
-0.0077675990760326
-0.0071114730089902
-0.006672422401607
-0.0063147861510515
-0.0059108920395374
-0.0053571993485093
-0.004584256093949
-0.0035597663372755
-0.0022867959924042
-0.0007989244768396
0.0008471114560961
0.0025802121963351
0.004323705099523
0.0060031879693269
0.0075527345761656
0.0089195910841226
0.0100682731717824
0.0109834345057606
0.0116690592840313
0.0121434209868311
0.0124332960695028
0.0125704389065504
0.0125886546447873
0.0125194611027836
0.0123884994536638
0.0122149595990777
0.0120126232504844
0.0117907375097274
0.0115551427006721
0.0113101163879036
0.011059733107686
0.010807566344738
0.0105559490621089
0.0103063220158219
0.0100600067526102
0.0098167797550559
0.0095656476914882
0.0092649972066283
0.0088205309584736
0.0080759571865201
0.0068271830677986
0.0048600640147924
0.0020011775195598
-0.0018338439986109
-0.00660743098706
-0.0121499001979827
-0.018174210563302
-0.0243120398372411
-0.030163075774908
-0.0353477820754051
-0.0395532399415969
-0.0425636768341064
-0.0442729704082012
-0.0446826927363872
-0.043890930712223
-0.0420739650726318
-0.0394621901214122
-0.0363143868744373
-0.0328927561640739
-0.0294382162392139
-0.026149246841669
-0.0231683477759361
-0.0205749664455652
-0.0183835066854953
-0.0165481604635715
-0.0149758327752351
-0.0135449133813381
-0.0121247926726937
-0.0105933705344796
-0.0088521391153335
-0.0068361889570951
-0.0045175505802035
-0.0019045434892177
0.0009616650640964
0.0040140878409147
0.0071688834577798
0.0103344963863492
0.0134211936965584
0.0163499396294355
0.0190584789961576
0.0215042307972908
0.0236641522496938
0.0255327504128217
0.0271200984716415
0.0284485463052988
0.0295468308031559
0.0304441377520561
0.0311665311455726
0.0317354537546634
0.0321673080325126
0.0324737802147865
0.0326632633805274
0.0327423401176929
0.0327157638967037
0.032586496323347
0.0323571301996707
0.0320310518145561
0.0316127091646194
0.0311075523495674
0.0305214151740074
0.0298600420355796
0.0291286949068307
0.0283294394612312
0.0274524819105863
0.0264590997248888
0.0252603720873594
0.0237053446471691
0.0215939488261938
0.0187168791890144
0.0149084739387035
0.0100952424108982
0.0043282359838485
-0.0022078570909798
-0.0092111369594931
-0.0162999778985977
-0.023063275963068
-0.0291134342551231
-0.034131683409214
-0.0378985404968261
-0.0403072386980056
-0.0413623601198196
-0.0411678366363048
-0.0399077199399471
-0.0378213301301002
-0.0351753942668437
-0.0322370827198028
-0.0292504876852035
-0.0264174453914165
-0.0238827988505363
-0.021725358441472
-0.0199572648853063
-0.0185320954769849
-0.0173583775758743
-0.0163156744092702
-0.0152725903317332
-0.0141055025160312
-0.0127155762165784
-0.0110401017591357
-0.0090556386858224
-0.0067755123600363
-0.0042448700405657
-0.0015335530042648
0.0012736353091895
0.004087938927114
0.0068261474370956
0.0094165122136473
0.0118012642487883
0.0139379408210515
0.0158006511628627
0.0173799358308315
0.0186809655278921
0.0197217296808958
0.0205310974270105
0.0211454071104526
0.0216033868491649
0.0219404436647892
0.0221844799816608
0.0223546475172042
0.0224621780216693
0.0225118864327669
0.0225035678595304
0.0224330201745033
0.0222934428602457
0.0220779050141572
0.0217822398990392
0.0214065313339233
0.0209542382508516
0.0204302109777927
0.0198384430259466
0.0191777795553207
0.0184305384755134
0.0175420008599758
0.0164008494466543
0.0148370545357465
0.0126450350508093
0.0096275778487324
0.0056491233408451
0.0006833625957369
-0.0051598399877548
-0.0116361528635025
-0.018395172432065
-0.0250271409749984
-0.0311176478862762
-0.0362998582422733
-0.040295198559761
-0.0429374501109123
-0.0441795848309993
-0.0440860204398632
-0.0428154431283474
-0.0405978336930274
-0.0377077534794807
-0.03443618491292
-0.0310622453689575
-0.0278274063020944
-0.0249162763357162
-0.0224448554217815
-0.0204548221081495
-0.0189149715006351
-0.0177323408424854
-0.0167713016271591
-0.0158765707165002
-0.0148968417197465
-0.013704877346754
-0.0122109577059745
-0.0103692365810275
-0.0081777423620224
-0.0056735640391707
-0.0029245656915009
-1.860363408923149e-05
0.0029477076604962
0.0058787795715034
0.0086883697658777
0.0113065931946039
0.0136844664812088
0.015795137733221
0.0176316909492015
0.0192019883543252
0.020522803068161
0.0216155145317316
0.0225036162883043
0.0232115089893341
0.0237638186663389
0.024184376001358
0.0244949050247669
0.0247134938836097
0.024853128939867
0.0249217115342617
0.0249236784875392
0.0248618945479393
0.0247387364506721
0.0245560202747583
0.0243146084249019
0.0240129400044679
0.0236400235444307
0.0231581535190343
0.022478699684143
0.0214458648115396
0.019844464957714
0.0174372475594282
0.0140219312161207
0.0094882035627961
0.0038578077219426
-0.0027001183480024
-0.0098799662664532
-0.0172746740281581
-0.0244287606328725
-0.0308992750942707
-0.0363120734691619
-0.0404019430279731
-0.0430311262607574
-0.0441879406571388
-0.0439709089696407
-0.04256496950984
-0.0402149930596351
-0.0371994972229003
-0.0338053032755851
-0.030302558094263
-0.0269210506230592
-0.0238311272114515
-0.0211326833814382
-0.0188536420464515
-0.0169567298144102
-0.0153526831418275
-0.0139181576669216
-0.0125159434974193
-0.0110145863145589
-0.0093051483854651
-0.0073140487074851
-0.0050099547952413
-0.0024027777835726
0.0004631113260984
0.0035174312070012
0.0066730482503771
0.0098363822326064
0.0129177225753664
0.0158386658877134
0.018536502495408
0.0209667105227708
0.023103941231966
0.0249413922429084
0.0264877751469612
0.0277619063854217
0.0287877023220062
0.0295918993651866
0.0302029624581336
0.0306486375629901
0.0309527441859245
0.0311335027217865
0.0312039274722337
0.0311730746179819
0.0310467556118965
0.0308274999260902
0.0305150467902421
0.0301092490553855
0.0296133179217576
0.0290332175791263
0.0283744391053915
0.0276398938149213
0.0268273763358593
0.0259203724563121
0.0248678475618362
0.0235589891672134
0.0218102950602769
0.0193809829652309
0.0160178244113922
0.0115165831521153
0.0057816701009869
-0.0011326791718602
-0.0090090492740273
-0.0174837857484817
-0.0260912626981735
-0.0343256220221519
-0.0417066067457199
-0.0478371642529964
-0.0524428263306617
-0.055388867855072
-0.0566783547401428
-0.0564358383417129
-0.0548818260431289
-0.0523028075695037
-0.0490181967616081
-0.045346412807703
-0.0415749326348304
-0.037936508655548
-0.0345913991332054
-0.0316175371408462
-0.0290114302188158
-0.0266999006271362
-0.0245602894574403
-0.0224456191062927
-0.0202108807861804
-0.0177360773086547
-0.0149418665096163
-0.0117967706173658
-0.0083178263157606
-0.0045654904097318
-0.0006323829293251
0.0033721569925546
0.0073370607569813
0.0111608700826764
0.0147594595327973
0.0180709194391965
0.0210578963160514
0.0237072594463825
0.0260265227407217
0.028037978336215
0.029772512614727
0.0312632955610752
0.0325403660535812
0.0336284264922142
0.0345467552542686
0.0353089049458503
0.0359227359294891
0.0363914184272289
0.0367151238024234
0.0368925109505653
0.0369209423661232
0.0367967821657657
0.0365176349878311
0.0360850468277931
0.0355049632489681
0.0347860008478164
0.0339379198849201
0.0329714193940162
0.0318992882966995
0.0307380557060241
0.0295044854283332
0.0281979851424694
0.0267684087157249
0.0250855274498462
0.0229331068694591
0.0200386643409729
0.0161313414573669
0.0110100591555237
0.0046029733493924
-0.0029984284192323
-0.0115386489778757
-0.0206267479807138
-0.0297854654490947
-0.0385127216577529
-0.0463439673185348
-0.0529022067785263
-0.0579273886978626
-0.0612851753830909
-0.0629611834883689
-0.0630465298891067
-0.0617174133658409
-0.0592110008001327
-0.0558000728487968
-0.0517683774232864
-0.0473883002996444
-0.0429009832441806
-0.0384992845356464
-0.0343160666525363
-0.0304202381521463
-0.0268208272755146
-0.0234789010137319
-0.0203252919018268
-0.0172785557806491
-0.014259060844779
-0.0112003646790981
-0.0080587118864059
-0.0048176208510994
-0.0014860229566693
0.0019070929847657
0.0053189140744507
0.0086990622803568
0.0119950994849205
0.0151569955050945
0.0181404929608106
0.0209092907607555
0.0234357640147209
0.0257006157189607
0.0276931598782539
0.0294118151068687
0.0308630093932151
0.0320594497025013
0.0330185778439044
0.0337605960667133
0.0343068316578865
0.0346787273883819
0.0348962470889091
0.0349758341908454
0.0349295437335968
0.0347662083804607
0.0344932191073894
0.0341159254312515
0.0336325988173484
0.0330220125615596
0.0322217345237731
0.0311053600162267
0.0294762570410966
0.0270912796258926
0.023711759597063
0.0191649608314037
0.013397897593677
0.0065112588927149
-0.0012346031144261
-0.0094450367614626
-0.0176422521471977
-0.0253292806446552
-0.0320528708398342
-0.0374540835618972
-0.0412996560335159
-0.0434933900833129
-0.0440720468759536
-0.0431907474994659
-0.0410996563732624
-0.038113385438919
-0.0345769599080085
-0.0308323130011558
-0.0271870791912078
-0.0238871462643146
-0.0210957564413547
-0.0188823882490396
-0.017224607989192
-0.0160232167690992
-0.0151258008554577
-0.0143533358350396
-0.0135276848450303
-0.0124964108690619
-0.0111497053876519
-0.0094282804057002
-0.0073239826597273
-0.0048742201179265
-0.0021514128893613
0.0007502998923882
0.003728226525709
0.0066813523881137
0.009517129510641
0.0121570024639368
0.0145410830155015
0.0166302677243948
0.0184062141925096
0.0198695007711648
0.0210349708795547
0.0219259224832057
0.0225698556751012
0.0229963660240173
0.0232363194227218
0.0233212728053331
0.0232829116284847
0.0231524538248777
0.0229569692164659
0.0227059628814458
0.022365678101778
0.0218309629708528
0.0209132358431816
0.0193582363426685
0.0168938972055912
0.0132963676005601
0.0084547940641641
0.0024160463362932
-0.0046015288680791
-0.0122276544570922
-0.0199887119233608
-0.0273738987743854
-0.0339032486081123
-0.0391840860247612
-0.0429477244615554
-0.0450641922652721
-0.0455391518771648
-0.0444988757371902
-0.042166206985712
-0.0388305149972438
-0.034816313534975
-0.030453335493803
-0.0260483138263225
-0.0218593645840883
-0.0180754009634256
-0.0148039180785417
-0.0120692700147628
-0.0098203374072909
-0.0079462267458438
-0.0062987636774778
-0.0047180280089378
-0.0030561303719878
-0.0011957744136452
0.0009384537115693
0.0033753840252757
0.0060976762324571
0.0090480092912912
0.0121405096724629
0.0152745088562369
0.018348041921854
0.0212689340114593
0.0239618495106697
0.0263711772859096
0.0284605342894792
0.0302063785493373
0.0315800495445728
0.0325214564800262
0.0329222157597541
0.0326350033283233
0.0315096676349639
0.0294442288577556
0.0264362767338752
0.0226191096007823
0.0182680059224367
0.0137713272124528
0.0095744030550122
0.0061116511933505
0.0037403693422675
0.0026842236984521
0.0029892835300415
0.0044938777573406
0.0068219848908483
0.0094140172004699
0.0115975830703973
0.0126867201179265
0.0120901260524988
0.0094085074961185
0.0045047523453831
-0.0024671382270753
-0.0110826417803764
-0.0207121074199676
-0.0306136179715394
-0.0400324240326881
-0.0482894293963909
-0.0548462159931659
-0.0593411996960639
-0.0615995489060878
-0.0616245679557323
-0.0595778636634349
-0.0557511746883392
-0.0505305118858814
-0.0443544127047061
-0.0376699343323707
-0.030891440808773
-0.0243664719164371
-0.0183515697717666
-0.0129986312240362
-0.0083514526486396
-0.0043546259403228
-0.000876335427165
0.0022597927600145
0.0052430815994739
0.0082500595599412
0.0114245917648077
0.0148634603247046
0.0186087600886821
0.0226472429931163
0.0269160903990268
0.0313149392604827
0.0357208773493766
