bvp
0.0219038892537355
0.0202655121684074
0.0180324725806713
0.0150336995720863
0.0111456885933876
0.0063272211700677
0.0006396360695362
-0.0057508442550897
-0.0125880148261785
-0.0195548105984926
-0.0263111405074596
-0.0325332395732402
-0.0379467420279979
-0.0423484444618225
-0.0456176996231079
-0.0477196797728538
-0.0487007424235343
-0.0486774519085884
-0.0478207245469093
-0.0463349744677543
-0.0444342158734798
-0.0423182621598243
-0.0401517152786254
-0.0380492731928825
-0.0360697582364082
-0.0342183113098144
-0.0324550867080688
-0.0307088699191808
-0.0288942418992519
-0.026929598301649
-0.0247515216469764
-0.0223236382007598
-0.0196405090391635
-0.0167264100164175
-0.0136308651417493
-0.0104230530560016
-0.0071838651783764
-0.0039953463710844
-0.0009311395697295
0.0019498975016176
0.0046077533625066
0.0070223398506641
0.0091906860470771
0.0111224744468927
0.0128361964598298
0.0143557302653789
0.0157069638371467
0.0169151443988084
0.0180034488439559
0.0189918223768472
0.0198957417160272
0.0207263976335525
0.0214918833225965
0.0221958272159099
0.0228302907198667
0.0233630873262882
0.0237243399024009
0.0237997863441705
0.0234366506338119
0.0224629677832126
0.0207169950008392
0.0180812086910009
0.0145141137763857
0.0100724380463361
0.004917359445244
-0.0006979405879974
-0.0064575020223855
-0.0120224598795175
-0.0170727465301752
-0.0213419795036315
-0.024641228839755
-0.0268727652728557
-0.0280347950756549
-0.0282151345163583
-0.0275739021599292
-0.0263190083205699
-0.0246780086308717
-0.0228701401501894
-0.0210826769471168
-0.0194531083106994
-0.0180574841797351
-0.0169061049818992
-0.0159485880285501
-0.0150884464383125
-0.0142032448202371
-0.0131656173616647
-0.0118623999878764
-0.0102102272212505
-0.0081663383170962
-0.0057322587817907
-0.0029497602954506
0.0001077624037861
0.0033450098708271
0.0066547058522701
0.0099289463832974
0.0130706336349248
0.016000647097826
0.0186600312590599
0.0210103131830692
0.0230334997177124
0.0247309170663356
0.0261202547699213
0.0272313579916954
0.0281018894165754
0.0287735424935817
0.0292883478105068
0.0296846143901348
0.0299936309456825
0.0302388295531272
0.0304373651742935
0.0306021049618721
0.0307412538677454
0.0308534950017929
0.0309182181954383
0.0308832433074712
0.0306562148034572
0.0301065687090158
0.0290814768522977
0.0274328701198101
0.0250470265746116
0.0218688026070594
0.0179171524941921
0.0132901323959231
0.0081573165953159
0.0027403081767261
-0.0027147545479238
-0.0079673379659652
-0.0128084570169448
-0.017076801508665
-0.0206650905311107
-0.0235209893435239
-0.0256451554596424
-0.0270859710872173
-0.0279308408498764
-0.0282939858734607
-0.028300417587161
-0.0280692148953676
-0.0277001466602087
-0.0272632613778114
-0.0267913248389959
-0.0262787789106369
-0.0256878565996885
-0.0249584969133138
-0.0240204948931932
-0.0228067003190517
-0.0212647318840026
-0.0193656161427497
-0.017108405008912
-0.0145201738923788
-0.0116522843018174
-0.008573823608458
-0.005363015923649
-0.0020988648757338
0.0011448855511844
0.0043038134463131
0.0073264730162918
0.0101771317422389
0.0128355529159307
0.0152949504554271
0.0175609812140464
0.0196508858352899
0.0215900652110576
0.0234058685600757
0.0251207817345857
0.0267474092543125
0.0282854065299034
0.0297198947519063
0.0310215037316083
0.0321478843688964
0.0330477058887481
0.0336677618324756
0.0339608751237392
0.0338921584188938
0.0334432758390903
0.0326146557927131
0.0314254835247993
0.0299117993563413
0.0281215663999319
0.0261031929403543
0.0238878596574068
0.0214729309082031
0.0188147611916065
0.0158358626067638
0.0124453660100698
0.0085674002766609
0.0041710529476404
-0.000705873593688
-0.0059462264180183
-0.0113589791581034
-0.0167006719857454
-0.0217081382870674
-0.0261336285620927
-0.0297745056450366
-0.0324926525354385
-0.0342225767672061
-0.0349715203046798
-0.0348141081631183
-0.0338807292282581
-0.0323397442698478
-0.030377622693777
-0.0281809344887733
-0.0259201657027006
-0.0237346217036247
-0.0217208471149206
-0.0199280679225921
-0.018360773101449
-0.0169858634471893
-0.0157437864691019
-0.0145637644454836
-0.0133796781301498
-0.0121418060734868
-0.0108231818303465
-0.0094227343797683
-0.0079650385305285
-0.0064942887984216
-0.0050643412396311
-0.0037295720539987
-0.0025387573987245
-0.00153055973351
-0.0007283762097358
-0.0001368084922432
0.0002569314092397
0.0004788897931575
0.0005639335140585
0.0005504842847585
0.0004757931455969
0.0003738924860954
0.0002755066379904
0.0002077147364616
0.0001930817961692
0.0002497751265764
0.0003926223143935
0.0006332639604806
0.0009791767224669
0.0014333380386233
0.0019950103014707
0.0026599094271659
0.0034197233617305
0.0042627910152077
0.0051749087870121
0.006137391552329
0.0071218684315681
0.0080833416432142
0.0089535070583224
0.0096363704651594
0.0100089218467473
0.009931887499988
0.0092733278870582
0.0079390322789549
0.0058983517810702
0.0031976755708456
-4.005525261163712e-05
-0.0036279796622693
-0.0073377219960093
-0.0109280198812484
-0.014173662289977
-0.0168891754001379
-0.0189442932605743
-0.0202706381678581
-0.0208607129752635
-0.0207611490041017
-0.0200627539306879
-0.0188884660601615
-0.0173794403672218
-0.0156815610826015
-0.0139336753636598
-0.0122557701542973
-0.0107375858351588
-0.0094318836927413
-0.008355114609003
-0.0074940673075616
-0.006815758999437
-0.0062777390703558
-0.0058360514231026
-0.0054499972611665
-0.0050843134522438
-0.0047103273682296
-0.0043073939159512
-0.0038636857643723
-0.0033754352480173
-0.0028446782380342
-0.0022754976525902
-0.0016702683642506
-0.0010279943235218
-0.0003448775969445
0.0003845286555588
0.0011668731458485
0.0020100874826312
0.0029236744157969
0.0039185811765491
0.0050051878206431
0.0061896494589746
0.0074712201021611
0.0088416188955307
0.0102850664407014
0.011779049411416
0.0132965389639139
0.0148081742227077
0.0162830278277397
0.0176881868392229
0.0189868453890085
0.0201339181512594
0.0210691429674625
0.0217107813805341
0.0219561345875263
0.0216929521411657
0.0208203848451375
0.0192743726074695
0.0170500762760639
0.0142146088182926
0.010906764306128
0.0073228082619607
0.0036915091332048
0.0002451068721711
-0.0028086802922189
-0.0053092809394001
-0.0071570426225662
-0.0083182351663708
-0.008821845985949
-0.0087495073676109
-0.0082226507365703
-0.0073883929289877
-0.0064032180234789
-0.0054164631292223
-0.0045559615828096
-0.003916666842997
-0.0035539986565709
-0.0034822365269064
-0.0036764051765203
-0.004078360274434
-0.0046072220429778
-0.005170714110136
-0.0056751975789666
-0.0060347374528646
-0.0061781210824847
-0.0060529448091983
-0.0056284945458173
-0.0048971455544233
-0.0038723284378647
-0.0025843977928161
-0.0010763956233859
0.0006006769835948
0.0023931572213768
0.0042491662316024
0.0061209625564515
0.0079655330628156
0.0097450455650687
0.0114277377724647
0.0129885263741016
0.0144088193774223
0.0156755857169628
0.0167800895869731
0.0177169740200042
0.0184845626354217
0.0190854743123054
0.0195257328450679
0.0198130272328853
0.0199550576508045
0.019958171993494
0.0198274105787277
0.019567871466279
0.0191861372441053
0.0186916701495647
0.0180972460657358
0.0174162536859512
0.0166559275239706
0.0158074535429477
0.0148374149575829
0.0136862145736813
0.0122745288535952
0.0105176176875829
0.0083475764840841
0.0057371165603399
0.002715275157243
-0.0006295149214565
-0.0041590072214603
-0.0077043394558131
-0.0110897179692983
-0.0141556207090616
-0.016777342185378
-0.0188759472221136
-0.0204199999570846
-0.0214191582053899
-0.0219139326363801
-0.0219653062522411
-0.0216454584151506
-0.0210293121635913
-0.0201870799064636
-0.0191801395267248
-0.0180602334439754
-0.0168679393827915
-0.0156299620866775
-0.0143590327352285
-0.0130570093169808
-0.0117191653698682
-0.0103387925773859
-0.0089110601693391
-0.0074353916570544
-0.0059167016297578
-0.0043663391843438
-0.0028031910769641
-0.0012534239795058
0.0002516258973628
0.0016777091659605
0.002990098670125
0.004157212562859
0.0051544541493058
0.0059665767475962
0.0065882988274097
0.0070239705964922
0.0072869043797254
0.0073986058123409
0.0073876162059605
0.0072872568853199
0.0071329097263514
0.0069592823274433
0.0067965346388518
0.0066663264296948
0.0065796785056591
0.0065362644381821
0.0065249865874648
0.0065260902047157
0.0065141133964061
0.0064619365148246
0.0063456981442868
0.0061473501846194
0.005854470655322
0.0054606851190328
0.0049658296629786
0.0043731583282351
0.0036840755492448
0.0028908578678965
0.0019689528271555
0.0008732629939913
-0.0004582712426781
-0.0020921705290675
-0.0040793106891214
-0.0064334673807024
-0.0091157192364335
-0.0120298257097601
-0.0150303002446889
-0.0179407726973295
-0.0205779001116752
-0.0227755196392536
-0.0244053266942501
-0.0253911223262548
-0.0257138274610042
-0.0254080593585968
-0.0245531015098094
-0.0232605952769517
-0.0216612424701452
-0.0198919624090194
-0.0180834010243415
-0.0163485445082187
-0.0147741287946701
-0.0134147750213742
-0.0122892074286937
-0.0113805485889315
-0.0106418738141655
-0.0100055485963821
-0.0093945916742086
-0.008733713068068
-0.0079582082107663
-0.0070205917581915
-0.005895079113543
-0.00458046188578
-0.003100314643234
-0.0014983275905251
0.000169753562659
0.0018442394211888
0.0034677400253713
0.0049888268113136
0.0063643711619079
0.0075613660737872
0.0085574407130479
0.0093406988307833
0.0099096996709704
0.0102728763595223
0.0104480469599366
0.0104621900245547
0.0103485090658068
0.0101413987576961
0.0098742730915546
0.009580741636455
0.009295692667365
0.0090540722012519
0.008886151947081
0.0088094510138034
0.0088192019611597
0.0088801579549908
0.0089247794821858
0.0088614821434021
0.0085904756560921
0.0080225970596075
0.0070985881611704
0.0058054961264133
0.0041845832020044
0.0023277746513485
0.0003648791462182
-0.0015547890216112
-0.0032829400151968
-0.0046912329271435
-0.0056853704154491
-0.0062123602256178
-0.0062619568780064
-0.0058648930862545
-0.005087986588478
-0.0040253764018416
-0.0027863681316375
-0.001481357961893
-0.0002087848260998
0.0009538391605019
0.0019547306001186
0.0027702441439032
0.0034043220803141
0.0038843313232064
0.004255318082869
0.0045726569369435
0.0048921694979071
0.0052606789395213
0.0057101058773696
0.006255111657083
0.0068935742601752
0.0076089291833341
0.0083730686455965
0.0091498736292123
0.0098997494205832
0.0105845825746655
0.0111722508445382
0.0116395680233836
0.0119734238833189
0.0121705029159784
0.0122358119115233
0.0121810780838131
0.0120235383510589
0.0117842555046081
0.0114864008501172
0.0111549235880374
0.0108166504651308
0.0104985795915126
0.0102237462997436
0.0100070852786302
0.0098548252135515
0.0097668003290891
0.0097382254898548
0.0097602773457765
0.0098192961886525
0.0098926723003387
0.0099419001489877
0.0099066458642482
0.0097039686515927
0.0092353001236915
0.0084005016833543
0.0071164718829095
0.0053384415805339
0.0030786758288741
0.0004139094380661
-0.0025216089561581
-0.0055533712729811
-0.0084896497428417
-0.0111469505354762
-0.0133730247616767
-0.0150626357644796
-0.0161638390272855
-0.016676003113389
-0.0166431907564401
-0.0161452013999223
-0.0152868591248989
-0.0141869271174073
-0.0129679217934608
-0.0117464354261755
-0.0106231505051255
-0.0096738841384649
-0.0089437337592244
-0.0084447590634226
-0.008158097974956
-0.0080407876521348
-0.0080338362604379
-0.008069566451013
-0.0080800298601388
-0.0080066826194524
-0.0078084920533001
-0.0074656060896813
-0.0069785988889634
-0.0063651162199676
-0.0056548053398728
-0.0048833778128027
-0.0040868576616048
-0.0032963482663035
-0.0025335999671369
-0.001807820983231
-0.0011144676245748
-0.0004364945925772
0.0002521509304642
0.0009811352938413
0.0017776819877326
0.0026615890674293
0.0036418999079614
0.0047157602384686
0.0058691566810011
0.0070771984755992
0.008303478360176
0.0095005547627806
0.0106123015284538
0.0115781584754586
0.0123400557786226
0.0128512438386678
0.0130827352404594
0.0130236903205513
0.0126771908253431
0.0120521113276481
0.0111499531194567
0.0099515169858932
0.0084120025858283
0.0064693763852119
0.0040642297826707
0.0011636816198006
-0.0022193384356796
-0.0060163689777255
-0.010103415697813
-0.0143100395798683
-0.0184371918439865
-0.0222799330949783
-0.0256494171917438
-0.0283905044198036
-0.030392799526453
-0.0315954647958278
-0.0319886058568954
-0.0316120870411396
-0.0305502768605947
-0.0289224330335855
-0.0268714390695095
-0.0245532039552927
-0.0221254341304302
-0.0197350792586803
-0.0175071004778146
-0.0155379045754671
-0.0138932475820183
-0.0126080829650163
-0.0116869267076253
-0.0111041013151407
-0.0108047723770141
-0.0107077900320291
-0.0107092857360839
-0.0106882061809301
-0.0105170644819736
-0.0100760459899902
-0.0092648286372423
-0.0080100391060113
-0.0062702484428882
-0.0040388870984315
-0.0013433340936899
0.0017594415694475
0.0051884185522794
0.0088439472019672
0.0126140490174293
0.0163837037980556
0.0200459957122802
0.0235112309455871
0.0267123449593782
0.0296060889959335
0.0321706533432006
0.0344023816287517
0.0363119170069694
0.0379189439117908
0.0392472669482231
0.0403219610452652
0.0411664769053459
0.0417954251170158
0.0422030091285705
0.0423531867563724
0.0421771928668022
0.0415802970528602
0.0404585301876068
0.0387233234941959
0.036326415836811
0.0332778766751289
0.0296548493206501
0.0255993381142616
0.0213037878274917
0.016987919807434
0.0128726065158844
0.0091550555080175
0.0059885527007281
0.0034692699555307
0.0016309638740494
0.000446876627393
-0.0001627103192731
-0.0003190987627021
-0.0001707793417153
0.0001235213712789
0.0004115698393434
0.0005615120753645
0.0004731880035251
8.599832653999329e-05
-0.0006194147281348
-0.0016257669776678
-0.0028871477115899
-0.0043369443155825
-0.005894006229937
-0.0074689136818051
-0.0089712273329496
-0.0103136021643877
-0.0114116966724395
-0.0121860969811677
-0.0125685073435306
-0.0125076379626989
-0.0119728045538067
-0.0109560899436473
-0.009472525678575
-0.0075581297278404
-0.005268232896924
-0.0026773354038596
0.0001237876713275
0.0030373241752386
0.0059689711779356
0.0088323727250099
0.0115471333265304
0.0140354093164205
0.0162208825349807
0.0180313363671302
0.0194033421576023
0.0202859640121459
0.0206425059586763
0.0204496979713439
0.0196942258626222
0.0183701366186141
0.0164779368788003
0.0140215549618005
0.0110026858747005
0.0074166133999824
0.0032539833337068
-0.0014884937554597
-0.0067904107272624
-0.0125900190323591
-0.0187724158167839
-0.0251668207347393
-0.0315544456243515
-0.0376858599483966
-0.0433055907487869
-0.0481796115636825
-0.0521193705499172
-0.0549976453185081
-0.0567551925778389
-0.057399608194828
-0.0569996014237403
-0.0556771866977214
-0.053597018122673
-0.0509508848190307
-0.0479378700256347
-0.0447440519928932
-0.0415266677737236
-0.0384049862623214
-0.0354564301669597
-0.0327154286205768
-0.0301750376820564
-0.0277930330485105
-0.0255014803260564
-0.0232184529304504
-0.0208628997206687
-0.018369710072875
-0.0156971998512744
-0.0128246210515499
-0.0097447969019413
-0.0064570722170174
-0.0029648458585143
0.0007178885862231
0.0045528775081038
0.0084663210436701
0.0123482663184404
0.0160637237131595
0.0194706954061985
0.0224383492022752
0.024862065911293
0.0266765467822551
0.0278638564050197
0.0284500978887081
0.0284936055541038
0.0280716177076101
0.027267538011074
0.0261613205075263
0.0248254537582397
0.023324342444539
0.021713638678193
0.0200392305850982
0.0183376464992761
0.016637485474348
0.0149601129814982
0.0133200706914067
0.0117259873077273
0.0101828379556536
0.0086958315223455
0.007273169234395
0.0059252399951219
0.0046619442291557
0.0034922319464385
0.0024269991554319
0.0014818982454016
0.0006785930600017
4.59522707387805e-05
-0.000380519661121
-0.0005645864875987
-0.0004799836315214
-0.0001206601737067
0.0004942375817336
0.0013213406782597
0.0022981856018304
0.003350019454956
0.0043965084478259
0.005358921829611
0.0061691179871559
0.0067786783911287
0.0071648014709353
0.0073322346433997
0.007311743684113
0.0071554272435605
0.0069308532401919
0.0067146993242204
0.0065837050788104
0.0066024684347212
0.0068122688680887
0.0072271581739187
0.0078393220901489
0.0086284661665558
0.0095691196620464
0.0106346756219863
0.0117983911186456
0.0130304703488945
0.0142924170941114
0.0155319776386022
0.0166809726506471
0.0176568143069744
0.0183684322983026
0.0187255647033453
0.0186490043997764
0.0180815011262893
0.0169990248978137
0.0154171334579586
0.0133858639746904
0.0109729003161191
0.0082428585737943
0.0052420580759644
0.0019936058670282
-0.0014970982447266
-0.0052292244508862
-0.0091905994340777
-0.0133440000936388
-0.0176182705909013
-0.0219047721475362
-0.0260597690939903
-0.0299123190343379
-0.0332761369645595
-0.0359657444059848
-0.0378171578049659
-0.0387100353837013
-0.0385861322283744
-0.0374592617154121
-0.0354144684970378
-0.0325966104865074
-0.0291916579008102
-0.0254065748304128
-0.0214499570429325
-0.0175124108791351
-0.0137486681342124
-0.0102652665227651
-0.0071164271794259
-0.004308657720685
-0.0018114006379619
0.0004302668385207
0.0024832696653902
0.0044153784401714
0.0062857903540134
0.008138176985085
0.0099970530718564
0.0118663199245929
0.0137278353795409
0.0155412647873163
0.0172486715018749
0.0187838301062583
0.0200821831822395
0.0210889521986246
0.0217657927423715
0.0220956020057201
0.0220837499946355
0.0217522475868463
0.02112552896142
0.020213546231389
0.0190006773918867
0.0174450911581516
0.0154886497184634
0.0130748637020587
0.0101709151640534
0.0067880284041166
0.0029935352504253
-0.0010896027088165
-0.0052943243645131
-0.0094284433871507
-0.0132987331598997
-0.0167352948337793
-0.0196086168289184
-0.0218367557972669
-0.0233858805149793
-0.0242662299424409
-0.0245247669517993
-0.0242372602224349
-0.0235002972185611
-0.0224220287054777
-0.0211124811321496
-0.0196739211678504
-0.018190773203969
-0.016722172498703
-0.0153013737872242
-0.0139412246644496
-0.0126413414254784
-0.0113938683643937
-0.0101869376376271
-0.0090063950046896
-0.0078372452408075
-0.0066654589027166
-0.0054799253121018
-0.0042740972712635
-0.0030462557915598
-0.0017973298672586
-0.0005266950465738
0.0007717984262853
0.0021110328380018
0.0035081221722066
0.0049792481586337
0.0065341643057763
0.0081719253212213
0.0098784212023019
0.0116258505731821
0.0133729269728064
0.0150660639628767
0.0166437719017267
0.0180425010621547
0.0191990491002798
0.0200487691909074
0.0205230899155139
0.0205512791872024
0.0200708881020545
0.0190456584095954
0.0174836795777082
0.015447880141437
0.013054197654128
0.0104582123458385
0.007834973745048
0.0053561399690806
0.0031678406521677
0.0013734888052567
2.506771124899388e-05
-0.0008761273929849
-0.001370946294628
-0.0015289643779397
-0.0014336758758872
-0.0011699199676513
-0.0008151375222951
-0.0004338775761425
-7.539935177192092e-05
0.0002260476467199
0.0004496446345001
0.0005865756538696
0.0006396944518201
0.0006222667871043
0.0005540995625779
0.0004580873937811
0.0003592080320231
0.0002835751511156
0.0002560574794188
0.0002976675459649
0.0004230272024869
0.0006376188248395
0.0009368879254907
0.001308443956077
0.0017342896899208
0.0021916048135608
0.0026549978647381
0.0031012299004942
0.003513712901622
0.0038839811459183
0.0042096595279872
0.0044909976422786
0.0047284602187573
0.0049221129156649
0.0050713424570858
0.005173715762794
0.0052250372245907
0.0052222148515284
0.0051657063886523
0.0050588669255375
0.0049060895107686
0.0047106579877436
0.004470617044717
0.0041731921955943
0.0037893620319664
0.0032695666886866
0.0025447686202824
0.0015377858653664
0.0001830239780247
-0.0015527084469795
-0.0036550245713442
-0.0060568349435925
-0.0086451973766088
-0.0112776281312108
-0.013801671564579
-0.0160729885101318
-0.0179710090160369
-0.0194112844765186
-0.0203519240021705
-0.0207928568124771
-0.0207693297415971
-0.0203424803912639
-0.019589927047491
-0.0185969285666942
-0.0174477957189083
-0.0162194930016994
-0.0149780884385108
-0.0137756904587149
-0.012647658586502
-0.0116112539544701
-0.0106660462915897
-0.0097962822765111
-0.0089747728779912
-0.008167752996087
-0.0073401285335421
-0.0064598927274346
-0.0055017261765897
-0.0044501945376396
-0.0033013117499649
-0.0020612603984773
-0.0007438138127326
0.0006309757009148
0.0020376974716782
0.0034481389448046
0.0048344368115067
0.0061710416339337
0.0074358200654387
0.0086114425212144
0.0096860723569989
0.0106520783156156
0.0115050040185451
0.0122436117380857
0.0128684751689434
0.0133799314498901
0.0137782096862792
0.0140652172267436
0.0142450928688049
0.0143222715705633
0.0142994839698076
0.0141787342727184
0.0139651410281658
0.013669523410499
0.0133055672049522
0.0128821674734354
0.012395448051393
0.0118244439363479
0.0111314058303833
0.0102668842300772
0.0091808624565601
0.0078384838998317
0.0062341457232832
0.0043984469957649
0.00239715189673
0.0003239793004468
-0.0017105733277276
-0.0035932147875428
-0.0052230702713131
-0.0065230755135416
-0.0074447486549615
-0.0079694669693708
-0.0081082265824079
-0.007898760959506
-0.0074000884778797
-0.0066854655742645
-0.0058340011164546
-0.004922826308757
-0.004021574743092
-0.0031871965620666
-0.002458197530359
-0.0018510571680963
-0.0013605894055217
-0.0009638722985982
-0.000626620138064
-0.000309774884954
2.511171624064445e-05
0.0004109262954443
0.0008706322405487
0.0014142714207991
0.0020366713870316
0.002716455142945
0.0034189117141067
0.0041027953848242
0.0047273943200707
0.005256999284029
0.005663288757205
0.0059278742410242
0.0060455822385847
0.0060260123573243
0.00589056359604
0.0056655826047062
0.0053763915784657
0.0050444356165826
0.0046854838728904
0.0043089077807962
0.0039197197183966
0.0035225730389356
0.0031241890974342
0.0027318587526679
0.0023494395427405
0.0019724993035197
0.0015829936601221
0.0011459664674475
0.0006126213120296
-6.956688594073057e-05
-0.000943632912822
-0.0020304978825151
-0.0033199344761669
-0.004768026061356
-0.0063013988547027
-0.007826680317521
-0.0092434324324131
-0.0104581452906131
-0.0113964108750224
-0.012010782957077
-0.0122832749038934
-0.0122229717671871
-0.0118601648136973
-0.0112396534532308
-0.0104155959561467
-0.0094478763639926
-0.0083983242511749
-0.0073259570635855
-0.0062823602929711
-0.0053080497309565
-0.0044298870489001
-0.0036599040031433
-0.0029951282776892
-0.0024186791852116
-0.0019024035427719
-0.0014101781416684
-0.000902707921341
-0.0003445711918175
0.0002889093011617
0.0010072793811559
0.00180306925904
0.0026531456969678
0.0035239511635154
0.0043781762942671
0.0051796128973364
0.0058951554819941
0.0064957812428474
0.0069583682343363
0.0072679808363318
0.0074193738400936
0.0074170394800603
0.0072743901982903
0.0070125553756952
0.0066580632701516
0.0062395352870225
0.0057844668626785
0.0053163347765803
0.004852888174355
0.0044072032906115
0.0039899670518934
0.0036088849883526
0.0032655112445354
0.0029534811619669
0.0026582521386444
0.002355606527999
0.0020089959725737
0.0015689898282289
0.0009779887041077
0.0001812136470107
-0.000858160550706
-0.0021453378722071
-0.0036468158941715
-0.0052914582192897
-0.0069793071597814
-0.0085956891998648
-0.0100265694782137
-0.0111723793670535
-0.0119589287787675
-0.0123443668708205
-0.0123219741508364
-0.01191858202219
-0.0111884512007236
-0.0102044101804494
-0.0090486537665128
-0.0078048589639365
-0.0065521094948053
-0.0053590331226587
-0.0042776027694344
-0.0033393241465091
-0.0025556506589055
-0.0019210539758205
-0.0014168284833431
-0.0010148496367037
-0.0006808843463659
-0.0003783176653087
-7.312512025237083e-05
0.0002614953555166
0.0006424011662602
0.0010757511481642
0.0015584779903292
0.0020812065340578
0.0026308218948543
0.0031922010239213
0.0037498387973755
0.004289879463613
0.0048020519316196
0.0052807638421654
0.0057241492904722
0.0061314669437706
0.0065020094625651
0.0068356469273567
0.0071329507045447
0.0073954830877482
0.0076262578368186
0.0078294007107615
0.0080097177997231
0.0081728128716349
0.0083253039047122
0.0084743266925215
0.0086255623027682
0.0087805856019258
0.0089358743280172
0.0090838866308331
0.0092136058956384
0.0093086371198296
0.0093430569395422
0.0092767914757132
0.0090541187673807
0.0086091579869389
0.0078788511455059
0.0068187783472239
0.005416308529675
0.0036989161744713
0.0017359682824462
-0.0003681723028421
-0.0024881463032215
-0.0044946218840777
-0.0062710777856409
-0.0077269077301025
-0.0088043455034494
-0.0094805480912327
-0.009766113013029
-0.0096993632614612
-0.0093398075550794
-0.0087631894275546
-0.0080539239570498
-0.007295249029994
-0.0065619787201285
-0.0059155272319912
-0.0053993868641555
-0.0050357882864773
-0.0048248395323753
-0.0047472771257162
-0.0047698421403765
-0.0048509072512388
-0.0049454281106591
-0.0050095943734049
-0.00500557012856
-0.0049054250121116
-0.0046932087279856
-0.0043649934232234
-0.0039263744838535
-0.0033887415193021
-0.0027669391129165
-0.0020787306129932
-0.0013446519151329
-0.0005864016711711
0.0001755668781697
0.0009227730333805
0.0016388171352446
0.0023109305184334
0.0029315263964235
0.0034979267511516
0.0040109562687575
0.0044738724827766
0.0048920148983597
0.0052722701802849
0.0056214211508631
0.0059443656355142
0.0062440475448966
0.0065231043845415
0.0067843636497855
0.0070268157869577
0.0072379107587039
0.0073865009471774
0.0074198944494128
0.0072678667493164
0.0068547744303941
0.0061162840574979
0.0050152880139648
0.0035530040040612
0.0017731225816532
-0.0002412097528576
-0.0023767065722495
-0.0045040627010166
-0.0064936894923448
-0.0082295900210738
-0.0096199735999107
-0.0106050204485654
-0.0111619625240564
-0.0113054439425468
-0.0110823633149266
-0.0105640208348631
-0.0098376721143722
-0.0089974142611026
-0.0081344284117221
-0.0073269829154014
-0.0066321035847067
-0.0060816989280283
-0.0056823417544364
-0.0054166154004633
-0.0052468664944171
-0.0051223360933363
-0.0049874177202582
-0.0047883111983537
-0.004478866700083
-0.0040263338014483
-0.0034148157574236
-0.0026459237560629
-0.0017372998408973
-0.000718489754945
0.0003748591989278
0.0015068133361637
0.0026460466906428
0.0037679518572986
0.0048537589609622
0.0058896271511912
0.0068670231848955
0.0077827703207731
0.0086378371343016
0.0094352476298809
0.0101776551455259
0.0108661176636815
0.0115009825676679
0.0120826177299022
0.0126105546951293
0.0130820889025926
0.013489494100213
0.0138143952935934
0.0140207465738058
0.0140499789267778
0.0138224735856056
0.0132481083273887
0.0122449696063995
0.0107614547014236
0.0087947305291891
0.0063993651419878
0.0036833714693784
0.0007940845098346
-0.002099968958646
-0.004828467965126
-0.0072396975010633
-0.0092176450416445
-0.0106915114447474
-0.0116378683596849
-0.012077085673809
-0.0120658408850431
-0.0116881495341658
-0.011045548133552
-0.0102459909394383
-0.0093933530151844
-0.0085795409977436
-0.0078778443858027
-0.0073353019542992
-0.0069666453637182
-0.0067546674981713
-0.0066560734994709
-0.0066090528853237
-0.0065424591302871
-0.0063863988034427
-0.0060811536386609
-0.0055828695185482
-0.0048676310107111
-0.0039340043440461
-0.0028019705787301
-0.0015088110230863
-0.0001039672642946
0.001357520930469
0.0028227320872247
0.004246836528182
0.005595913156867
0.0068472791463136
0.0079884175211191
0.0090157780796289
0.0099336877465248
0.0107527300715446
0.0114867929369211
0.0121490024030208
0.0127488439902663
0.0132916895672678
0.0137792583554983
0.0142093924805521
0.0145751954987645
0.0148654459044337
0.0150662772357463
0.0151593359187245
0.0151139590889215
0.0148787340149283
0.014378941617906
0.0135226240381598
0.0122160455211997
0.0103864334523677
0.0080051645636558
0.0051029515452682
0.0017732612323015
-0.0018352691549807
-0.0055359820835292
-0.0091279987245798
-0.012420761398971
-0.0152542479336261
-0.017512921243906
-0.0191324464976787
-0.0200991090387105
-0.0204442385584115
-0.0202367007732391
-0.0195743758231401
-0.0185739882290363
-0.0173588190227746
-0.0160456448793411
-0.0147335184738039
-0.013495473191142
-0.0123734520748257
-0.0113776959478855
-0.0104915900155901
-0.0096801267936825
-0.0088977580890059
-0.0080942558124661
-0.0072211073711514
-0.0062391925603151
-0.0051251873373985
-0.0038745051715523
-0.0025005633942782
-0.0010305647738277
0.0005004866980016
0.0020542498677968
0.0035922748502343
0.0050798607990145
0.0064888168126344
0.0077976156026124
0.0089911110699176
0.0100616225972771
0.0110090347006917
0.0118382219225168
0.0125565323978662
0.0131727633997797
0.0136957904323935
0.0141320787370204
0.0144836725667119
0.0147482370957732
0.0149207832291722
0.0149962492287158
0.0149719091132283
0.0148479100316762
0.0146252308040857
0.0143001349642872
0.013853957876563
0.0132421301677823
0.0123905884101986
0.0112040201202034
0.0095844324678182
0.0074556204490363
0.0047872932627797
0.0016118544153869
-0.0019705169834196
-0.0057988679036498
-0.0096692405641078
-0.013360546901822
-0.0166631396859884
-0.0194040089845657
-0.0214644260704517
-0.0227875206619501
-0.0233758557587862
-0.0232826508581638
-0.0226014256477355
-0.021455680951476
-0.019986905157566
-0.018340716138482
-0.0166527274996042
-0.0150363277643918
-0.0135741280391812
-0.0123127410188317
-0.0112607330083847
-0.0103909205645322
-0.0096476804465055
-0.0089585576206445
-0.0082474388182163
-0.0074460301548242
-0.0065020299516618
-0.0053837113082408
-0.0040814159438014
-0.0026067241560667
-0.00098911463283
0.0007297280244529
0.0025023212656378
0.0042808461003005
0.0060206875205039
0.0076823206618428
0.0092331897467374
0.0106489788740873
0.0119120553135871
0.0130086382851004
0.0139279998838901
0.0146637614816427
0.01521473005414
0.0155841074883937
0.0157789029181003
0.0158108491450548
0.0156965907663106
0.015455569140613
0.0151072954759001
0.0146673200652003
0.0141384806483984
0.013498768210411
0.0126929618418216
0.0116357468068599
0.0102285547181963
0.0083849541842937
0.0060570947825908
0.003256929339841
6.685499101877213e-05
-0.0033643401693552
-0.0068398462608456
-0.010141659528017
-0.0130595508962869
-0.0154172722250223
-0.0170914717018604
-0.0180208403617143
-0.0182062052190303
-0.0177045445889234
-0.01661928743124
-0.0150879835709929
-0.0132685378193855
-0.011324374936521
-0.0094081899151206
-0.0076449778862297
-0.0061180097982287
-0.0048630451783537
-0.0038719521835446
-0.0031019495800137
-0.0024867819156497
-0.0019473658176138
-0.0014018774963915
-0.0007772780954837
-2.030725590884685e-05
0.0008964764419943
0.0019743889570236
0.0031926613301038
0.0045151123777031
0.0058972714468836
0.0072923176921904
0.008654911071062
0.0099439164623618
0.01112518645823
0.0121732568368315
0.0130716580897569
0.0138124972581863
0.0143947787582874
0.0148222129791975
0.0151019301265478
0.0152434613555669
0.0152575094252824
0.0151554653421044
0.0149495899677276
0.0146530298516154
0.0142789231613278
0.0138376886025071
0.0133314449340105
0.0127446204423904
0.0120332296937704
0.0111197102814912
0.0098988283425569
0.0082556782290339
0.0060923602432012
0.0033566216006875
6.466079503297806e-05
-0.0036891526542603
-0.0077390819787979
-0.0118683893233537
-0.0158365983515977
-0.0194093808531761
-0.0223885513842105
-0.0246356856077909
-0.0260828230530023
-0.0267301592975854
-0.0266351178288459
-0.0258980616927146
-0.0246493481099605
-0.0230385232716798
-0.021221974864602
-0.0193470437079668
-0.0175360236316919
-0.0158746410161256
-0.0144066037610173
-0.0131337381899356
-0.0120212882757186
-0.0110078556463122
-0.010018796660006
-0.00898078083992
-0.0078332796692848
-0.006534525193274
-0.0050636632367968
-0.0034207876306027
-0.0016249129548668
0.0002899137325584
0.0022790876682847
0.0042909327894449
0.0062699075788259
0.0081614796072244
0.0099177286028862
0.0115007348358631
0.0128835784271359
0.0140511486679315
0.0150014050304889
0.0157449729740619
0.0163005478680133
0.0166876129806041
0.0169216021895408
0.0170135088264942
0.016971617937088
0.0168032813817262
0.0165169015526771
0.0161243062466382
0.015642374753952
0.0150929493829607
0.0145005518570542
0.0138881690800189
0.0132709648460149
0.0126459822058677
0.0119790863245725
0.0111971879377961
0.0101937633007764
0.0088483002036809
0.0070537920109927
0.0047452356666326
0.0019228467717766
-0.0013362956233322
-0.0048828055150806
-0.0085145235061645
-0.0120047498494386
-0.0151331182569265
-0.0177133399993181
-0.0196126457303762
-0.0207618046551942
-0.021156869828701
-0.0208531972020864
-0.0199532303959131
-0.0185911860316991
-0.0169172212481498
-0.0150823341682553
-0.0132249575108289
-0.0114589426666498
-0.0098634297028183
-0.0084777818992733
-0.0073029999621212
-0.0063078203238546
-0.0054373587481677
-0.0046232668682932
-0.0037951988633722
-0.0028923794161528
-0.001873257337138
-0.0007214763318188
0.0005533728399313
0.0019199606031179
0.0033316542394459
0.0047330111265182
0.0060664415359497
0.007278922945261
0.0083275064826011
0.0091831646859645
0.009832713752985
0.0102778347209095
0.0105322618037462
0.0106194568797945
0.0105704143643379
0.0104203205555677
0.0102044632658362
0.0099547281861305
0.0096979644149541
0.0094544133171439
0.0092344293370842
0.0090376148000359
0.00885696336627
0.0086830295622348
0.0085051553323864
0.0083131417632102
0.0081008439883589
0.0078689791262149
0.0076248673722147
0.0073770419694483
0.0071236342191696
0.0068377749994397
0.006456428207457
0.0058793993666768
0.0049833650700747
0.003649303689599
0.0017943601123988
-0.0006015109829604
-0.0034812637604773
-0.0067129018716514
-0.0101059889420866
-0.0134372822940349
-0.0164807271212339
-0.0190360955893993
-0.020951010286808
-0.0221343003213405
-0.0225604251027107
-0.0222663003951311
-0.0213429890573024
-0.0199233852326869
-0.0181669648736715
-0.0162441451102495
-0.0143211353570222
-0.0125441728159785
-0.011024554260075
-0.0098283952102065
-0.0089731216430664
-0.0084300162270665
-0.0081317983567714
-0.0079846614971756
-0.0078828083351254
-0.007723078597337
-0.0074175647459924
-0.0069020073860883
-0.0061399983242154
-0.0051240627653896
-0.0038729617372155
-0.0024257823824882
-0.0008349395357072
0.0008415021002292
0.0025477709714323
0.0042362920939922
0.0058694933541119
0.0074186022393405
0.0088627645745873
0.0101891057565808
0.0113915232941508
0.0124684944748878
0.0134222153574228
0.0142586128786206
0.0149862337857484
0.0156138874590396
0.016148529946804
0.0165951903909444
0.0169590041041374
0.0172465573996305
0.0174640119075775
0.017611589282751
0.0176743529736995
0.0176108311861753
0.0173447933048009
0.016767244786024
0.0157526656985282
0.01418689917773
0.0119984932243824
0.0091832038015127
0.0058138445019721
0.0020345640368759
-0.0019563056994229
-0.0059306742623448
-0.0096579762175679
-0.0129307825118303
-0.0155856404453516
-0.0175168197602033
-0.0186827294528484
-0.0191060099750757
-0.0188672188669443
-0.0180931985378265
-0.0169421918690204
-0.0155851729214191
-0.0141842067241668
-0.012873051688075
-0.0117441974580287
-0.0108428727835416
-0.0101671330630779
-0.0096734771504998
-0.0092879049479961
-0.0089205587282776
-0.0084808934479951
-0.0078912004828453
-0.0070962994359433
-0.0060682431794703
-0.0048065027222037
-0.0033344225957989
-0.0016928417608141
6.722426041960716e-05
0.0018901750445365
0.0037194485776126
0.0055012926459312
0.0071891578845679
0.008746325969696
0.0101453317329287
0.0113669224083423
0.0124006289988756
0.0132446978241205
0.0139043731614947
0.0143901966512203
0.0147168096154928
0.0149016417562961
0.0149636622518301
0.0149227771908044
0.0147993452847003
0.0146135566756129
0.0143854385241866
0.0141350077465176
0.0138814505189657
0.0136401839554309
0.0134166860952973
0.013197261840105
0.0129380617290735
0.0125562036409974
0.0119302095845341
0.0109163336455821
0.0093799298629164
0.0072325034998357
0.0044636093080043
0.0011584734311327
-0.0025053890421986
-0.0062817498110234
-0.0098926573991775
-0.0130711235105991
-0.0155994817614555
-0.0173347294330596
-0.0182194933295249
-0.0182802118360996
-0.0176141839474439
-0.0163704212754964
-0.0147293489426374
-0.0128827402368187
-0.0110141346231102
-0.0092808213084936
-0.0077996999025344
-0.0066389623098075
-0.0058152102865278
-0.0052956454455852
-0.0050069633871316
-0.0048507214523851
-0.004720713943243
-0.0045183012261986
-0.0041643814183771
-0.0036075098905712
-0.0028284464497119
-0.0018407865427434
-0.000687229912728
0.000567213864997
0.0018451230134814
0.0030692650470882
0.0041739176958799
0.0051119970157742
0.0058574862778186
0.0064044930040836
0.0067656384781003
0.0069692265242338
0.0070541966706514
0.0070647848770022
0.0070453085936605
0.0070350905880331
0.007065175101161
0.0071569713763892
0.0073215621523559
0.0075592873618006
0.0078602042049169
0.008206021040678
0.0085728615522384
0.0089338440448045
0.0092620104551315
0.0095342444255948
0.0097343502566218
0.0098533723503351
0.0098891798406839
0.0098471380770206
0.0097386054694652
0.0095743108540773
0.0093528302386403
0.0090458542108535
0.0085850786417722
0.007858969271183
0.0067258779890835
0.0050431140698492
0.0027041821740567
-0.000327649526298
-0.0039999419823288
-0.0081708300858736
-0.0126265985891222
-0.0171111188828945
-0.0213594622910022
-0.0251290574669837
-0.0282243564724922
-0.0305132195353508
-0.0319349654018878
-0.0325005277991294
-0.0322840362787246
-0.0314069688320159
-0.0300205573439598
-0.028290132060647
-0.0263801254332065
-0.0244389548897743
-0.022584781050682
-0.0208941809833049
-0.0193976163864135
-0.0180833414196968
-0.016905702650547
-0.0157941821962595
-0.0146644972264766
-0.0134327067062258
-0.0120288077741861
-0.0104052564129233
-0.0085398973897099
-0.0064355889335274
-0.0041179014369845
-0.0016314769163727
0.0009655384346842
0.003608951345086
0.0062350262887775
0.008784657344222
0.0112071326002478
0.0134640661999583
