bvp
-0.0041892076842486
-0.0024028616026043
-0.0005861008539795
0.0013661487028002
0.0035236617550253
0.0059129279106855
0.0085163908079266
0.0112802945077419
0.014127118512988
0.0169677194207906
0.0197112057358026
0.0222731046378612
0.024582976475358
0.0265902839601039
0.028266318142414
0.0296022817492485
0.0306054539978504
0.0312958508729934
0.0317042022943496
0.0318700559437274
0.0318391025066375
0.0316589437425136
0.0313704535365104
0.0309892538934946
0.0304778665304183
0.0297233164310455
0.0285371392965316
0.0266831442713737
0.0239271931350231
0.0200956407934427
0.0151259377598762
0.0090961251407861
0.0022265752777457
-0.0051448941230773
-0.0126074571162462
-0.0197321232408285
-0.0261268559843301
-0.03148053586483
-0.0355873666703701
-0.0383519940078258
-0.0397820547223091
-0.0399740785360336
-0.0390952043235302
-0.0373621806502342
-0.0350190177559852
-0.0323140658438205
-0.029478020966053
-0.0267046820372343
-0.0241348464041948
-0.0218454506248235
-0.0198479294776916
-0.0180964060127735
-0.0165028143674135
-0.0149560626596212
-0.0133425239473581
-0.0115646189078688
-0.0095545267686247
-0.00728201540187
-0.0047562052495777
-0.0020206964109092
0.0008566573960706
0.0037962938658893
0.0067189028486609
0.0095537612214684
0.0122426301240921
0.0147413490340113
0.0170199107378721
0.0190611761063337
0.0208593867719173
0.02241787686944
0.0237450897693634
0.0248511172831058
0.0257469452917575
0.0264444891363382
0.0269517805427312
0.0272570829838514
0.0273022577166557
0.0269580595195293
0.0260200556367635
0.02423632517457
0.0213628709316253
0.0172300431877374
0.0118004903197288
0.0052033402025699
-0.0022656563669443
-0.0101793082430958
-0.0180389508605003
-0.0253427252173423
-0.0316466651856899
-0.0366089902818203
-0.0400156565010547
-0.0417877547442913
-0.0419727638363838
-0.0407251492142677
-0.0382806584239006
-0.0349268093705177
-0.0309730563312768
-0.0267229713499546
-0.022448930889368
-0.0183714795857667
-0.0146456360816955
-0.0113544948399066
-0.0085107330232858
-0.0060665626078844
-0.0039300844073295
-0.0019847303628921
-0.0001089223660528
0.0018061473965644
0.0038420404307544
0.0060429591685533
0.0084113096818327
0.0109106283634901
0.0134762041270732
0.016030354425311
0.018496723845601
0.0208095554262399
0.0229178667068481
0.0247866306453943
0.0263967737555503
0.0277444925159215
0.0288388170301914
0.0296964459121227
0.0303361676633358
0.0307764615863561
0.0310358200222253
0.0311328247189521
0.0310845375061035
0.0309042688459157
0.0306008402258157
0.0301795452833175
0.0296432301402091
0.0289931148290634
0.0282297432422637
0.0273526981472969
0.0263556763529777
0.0252130292356014
0.0238590594381093
0.0221710782498121
0.0199703052639961
0.017048243433237
0.013215472921729
0.0083593800663948
0.0024925302714109
-0.0042240712791681
-0.0114909028634428
-0.0189100466668605
-0.0260418392717838
-0.0324626080691814
-0.0378148928284645
-0.0418452955782413
-0.0444245524704456
-0.0455487594008445
-0.0453263968229293
-0.043956484645605
-0.0417012423276901
-0.038855392485857
-0.0357156470417976
-0.0325536541640758
-0.0295933578163385
-0.0269936397671699
-0.0248380228877067
-0.0231336206197738
-0.0218201018869876
-0.020786453038454
-0.0198919698596
-0.0189885068684816
-0.0179409943521022
-0.0166428461670875
-0.0150251192972064
-0.0130609665066003
-0.0107652880251407
-0.0081882020458579
-0.0054039377719163
-0.0024994749110192
0.0004344868939369
0.0033109826035797
0.0060528414323925
0.0085963867604732
0.0108940051868557
0.0129159893840551
0.0146496519446372
0.0160965900868177
0.0172698888927698
0.0181907098740339
0.0188850872218608
0.0193815380334854
0.0197087451815605
0.0198937114328145
0.0199597179889678
0.0199223626405
0.0197803974151611
0.0194977708160877
0.0189833473414182
0.0180842317640781
0.0166035331785678
0.0143408626317977
0.0111448112875223
0.0069632502272725
0.0018765563145279
-0.0038969544693827
-0.0100244749337434
-0.0161034986376762
-0.0217165760695934
-0.0264847818762063
-0.0301111154258251
-0.0324081480503082
-0.0333086065948009
-0.0328614190220832
-0.0312166567891836
-0.0286021251231431
-0.0252941902726888
-0.0215869899839162
-0.0177638251334428
-0.0140715800225734
-0.0107005517929792
-0.0077734785154461
-0.0053428076207637
-0.0033941990695893
-0.0018569519743323
-0.0006209285929799
0.0004434902220964
0.0014667143113911
0.0025641829706728
0.0038240707945078
0.0053001171909272
0.0070091537199914
0.008931471966207
0.0110148154199123
0.0131835155189037
0.0153513606637716
0.0174340307712554
0.0193578917533159
0.0210655964910984
0.0225189663469791
0.0236988216638565
0.0246028844267129
0.025243004783988
0.0256420150399208
0.0258295722305774
0.0258370414376258
0.0256934203207492
0.0254233907908201
0.0250473525375127
0.0245827194303274
0.0240444149821996
0.023443991318345
0.0227882806211709
0.0220754165202379
0.0212831366807222
0.0203495044261217
0.0191570818424224
0.0175343081355094
0.0152803882956504
0.0122105572372674
0.0082091894000768
0.003273488022387
-0.0024652983993291
-0.0087484363466501
-0.0152223398908972
-0.0214881971478462
-0.0271562524139881
-0.0318938791751861
-0.0354599803686142
-0.0377230159938335
-0.0386636294424533
-0.0383645892143249
-0.036991111934185
-0.0347650460898876
-0.0319374501705169
-0.0287631042301654
-0.0254781600087881
-0.0222822129726409
-0.0193257424980402
-0.0167022719979286
-0.0144466366618871
-0.0125414123758673
-0.0109280981123447
-0.0095193246379494
-0.0082128755748271
-0.006907326169312
-0.0055158780887722
-0.0039755832403898
-0.0022520711645483
-0.0003408985212445
0.0017340830527245
0.0039255749434232
0.0061710723675787
0.0084024127572774
0.0105539094656705
0.0125683415681123
0.0144009189680218
0.0160218570381402
0.0174173004925251
0.0185871422290802
0.0195401981472969
0.0202896930277347
0.0208514668047428
0.0212434083223342
0.0214836224913597
0.0215886365622282
0.0215735211968421
0.0214526932686567
0.0212394464761018
0.0209440775215625
0.0205728039145469
0.0201289094984531
0.0196144729852676
0.0190309677273035
0.0183792170137166
0.0176595784723758
0.0168705265969038
0.0160010550171136
0.0150151550769805
0.0138353565707802
0.012337545864284
0.0103644300252199
0.0077566932886838
0.0043948274105787
0.0002406444400548
-0.004634310491383
-0.0100435726344585
-0.0157051756978034
-0.0212793760001659
-0.0264162439852952
-0.0308030806481838
-0.0342012830078601
-0.0364665985107421
-0.0375534035265445
-0.0375072881579399
-0.0364498496055603
-0.0345590598881244
-0.0320481322705745
-0.0291447304189205
-0.0260711275041103
-0.0230256952345371
-0.020166877657175
-0.017602177336812
-0.0153845129534602
-0.013515805825591
-0.0119549706578254
-0.0106285298243165
-0.0094445245340466
-0.0083081619814038
-0.0071345786564052
-0.0058570010587573
-0.0044318726286292
-0.0028415110427886
-0.0010937629267573
0.0007812806870788
0.0027373689226806
0.0047198245301842
0.0066723334603011
0.0085420412942767
0.0102837029844522
0.0118625648319721
0.013255713507533
0.0144523829221725
0.0154532175511121
0.0162679981440305
0.0169119667261838
0.0174022912979125
0.0177570208907127
0.0179955475032329
0.0181364081799983
0.0181928500533103
0.018170990049839
0.0180715695023536
0.0178925674408674
0.0176316872239112
0.0172886494547128
0.0168667342513799
0.0163735393434762
0.0158203914761543
0.0152196194976568
0.0145799526944756
0.0138983596116304
0.0131455706432461
0.0122509766370058
0.0111005865037441
0.0095545789226889
0.0074782501906156
0.0047765783965587
0.0014253407716751
-0.002508501522243
-0.0068647577427327
-0.0114074014127254
-0.0158552415668964
-0.019919378682971
-0.0233416780829429
-0.0259256325662136
-0.0275529623031616
-0.0281875561922788
-0.0278717651963233
-0.026716474443674
-0.0248842537403106
-0.0225690584629774
-0.0199778247624635
-0.0173125993460416
-0.0147507041692733
-0.0124279418960213
-0.0104303620755672
-0.0087935589253902
-0.0075067565776407
-0.0065200142562389
-0.0057531455531716
-0.0051072179339826
-0.004479432478547
-0.0037780029233545
-0.0029330272227525
-0.001903030090034
-0.0006777392700314
0.0007243948057293
0.0022632346954196
0.0038850354030728
0.0055303159169852
0.0071415035054087
0.0086686592549085
0.0100723206996917
0.0113246887922286
0.0124098295345902
0.013322421349585
0.0140655599534511
0.0146492552012205
0.015089594759047
0.015406216494739
0.0156180653721094
0.015740517526865
0.0157853476703166
0.0157622992992401
0.015679819509387
0.0155435735359787
0.015353430993855
0.0150985000655055
0.0147478096187114
0.0142390597611665
0.0134746124967932
0.0123319281265139
0.0106870755553245
0.0084441173821687
0.0055636083707213
0.0020841718651354
-0.00186983786989
-0.0060984962619841
-0.0103512266650795
-0.014358814805746
-0.0178663749247789
-0.0206632334738969
-0.0226051211357116
-0.0236257724463939
-0.0237373486161232
-0.023020876571536
-0.0216102115809917
-0.019673278555274
-0.0173931457102298
-0.0149505045264959
-0.0125089697539806
-0.0102046411484479
-0.0081389732658863
-0.0063733579590916
-0.0049269506707787
-0.0037791095674037
-0.0028757811523973
-0.002139744348824
-0.0014840238727629
-0.0008255825378
-9.619630873203278e-05
0.000751341227442
0.0017413040623068
0.0028756125830113
0.0041367732919752
0.005492890253663
0.006902486551553
0.0083185341209173
0.0096927629783749
0.0109799345955252
0.0121409809216856
0.0131451375782489
0.0139722106978297
0.0146142831072211
0.0150746796280145
0.0153647065162658
0.0155009562149643
0.0155044589191675
0.0154007896780967
0.015218349173665
0.0149837862700223
0.0147185241803526
0.014438172802329
0.0141504164785146
0.0138500649482011
0.0135155785828828
0.0131058366969227
0.01255246065557
0.0117546739056706
0.010588739067316
0.0089310659095644
0.0066855242475867
0.003809527028352
0.0003343131393194
-0.0036273323930799
-0.007888713851571
-0.0122103206813335
-0.0163301173597574
-0.0199965350329875
-0.0229980312287807
-0.0251843184232711
-0.0264766942709684
-0.026869598776102
-0.0264257173985242
-0.0252647325396537
-0.0235472209751606
-0.0214557964354753
-0.0191747639328241
-0.0168713610619306
-0.0146820191293954
-0.0127040538936853
-0.0109915975481271
-0.0095556676387786
-0.0083696115761995
-0.0073797265067696
-0.0065170330926775
-0.0057071880437433
-0.004879490006715
-0.00397465005517
-0.0029486767016351
-0.0017735976725816
-0.0004382128827273
0.0010511800646781
0.0026712422259151
0.0043832915835082
0.0061369468457996
0.007875557988882
0.009542403742671
0.0110868327319622
0.0124692991375923
0.0136641655117273
0.014659397304058
0.0154548231512308
0.0160604417324066
0.0164928250014781
0.0167699065059423
0.0169085636734962
0.01692621037364
0.0168419443070888
0.0166747402399778
0.0164419077336788
0.0161592103540897
0.0158395487815141
0.0154898185282945
0.0151083981618285
0.0146825481206178
0.0141821540892124
0.0135496500879526
0.0126936389133334
0.0114958006888628
0.0098333898931741
0.0076099596917629
0.0047831670381128
0.0013828463852405
-0.0024826433509588
-0.0066336998715996
-0.0108403488993644
-0.0148513689637184
-0.0184254236519336
-0.0213599056005477
-0.0235122758895158
-0.0248100683093071
-0.0252507030963897
-0.0248942598700523
-0.0238522477447986
-0.0222739428281784
-0.0203301254659891
-0.0181951951235532
-0.0160306096076965
-0.0139718353748321
-0.0121190417557954
-0.0105316173285245
-0.0092268232256174
-0.0081824846565723
-0.0073438249528408
-0.006634653545916
-0.0059713153168559
-0.0052763139829039
-0.0044890823774039
-0.0035715152043849
-0.0025070956908166
-0.0012969519011676
4.350626841187477e-05
0.0014881081879138
0.0030047236941754
0.0045597599819302
0.0061205718666315
0.0076561346650123
0.0091370493173599
0.0105353351682424
0.0118251629173755
0.012984462082386
0.0139948260039091
0.014839919283986
0.0155054992064833
0.0159814581274986
0.0162636879831552
0.0163546297699213
0.0162627659738063
0.0160015691071748
0.0155876092612743
0.0150339668616652
0.0143352039158344
0.0134500637650489
0.0122959027066826
0.0107625937089324
0.0087414216250181
0.0061582899652421
0.0030012670904397
-0.0006635560421273
-0.0046899924054741
-0.0088640740141272
-0.0129295829683542
-0.0166213773190975
-0.0196983702480793
-0.0219699218869209
-0.0233138129115104
-0.023685859516263
-0.0231202784925699
-0.0217213649302721
-0.0196489486843347
-0.0170995835214853
-0.0142856538295745
-0.0114148762077093
-0.0086710136383771
-0.0061980215832591
-0.0040899971500039
-0.0023864200338721
-0.0010734749957919
-9.301817044615746e-05
0.0006431625224649
0.0012371193151921
0.0017884185072034
0.0023800814524292
0.0030687255784869
0.0038793100975453
0.0048055681400001
0.0058162612840533
0.0068643614649772
0.0078972661867737
0.0088668391108512
0.0097351875156164
0.010474968701601
0.0110690454021096
0.0115126268938183
0.0118157230317592
0.0120022445917129
0.0121052507311105
0.01216113101691
0.012204929254949
0.012267131358385
0.0123710352927446
0.0125296898186206
0.0127432877197861
0.0129983518272638
0.0132680172100663
0.0135113419964909
0.0136684253811836
0.0136512545868754
0.013339415192604
0.0125907212495803
0.0112667866051197
0.0092652747407555
0.006547980941832
0.0031574270687997
-0.0007791854441165
-0.0050594648346304
-0.0094299037009477
-0.0136191695928573
-0.01737149246037
-0.0204742960631847
-0.0227772518992424
-0.0242018196731805
-0.0247418284416198
-0.0244564861059188
-0.0234576445072889
-0.0218939892947673
-0.0199348013848066
-0.0177540462464094
-0.0155153274536132
-0.0133589459583163
-0.0113916788250207
-0.0096801798790693
-0.008249320089817
-0.0070851952768862
-0.0061415135860443
-0.0053497264161705
-0.0046318909153342
-0.0039121257141232
-0.0031253772322088
-0.002224342431873
-0.0011835945770144
-1.1459924280643463e-06
0.0013024858199059
0.0026885829865932
0.0041063404642045
0.0054999510757625
0.0068160728551447
0.0080087091773748
0.0090409610420465
0.0098864398896694
0.0105319749563932
0.0109800240024924
0.0112485531717538
0.0113696157932281
0.0113882310688495
0.0113592455163598
0.0113412598147988
0.011389747262001
0.0115487445145845
0.0118409395217895
0.0122600859031081
0.0127655463293194
0.0132745848968625
0.0136556942015886
0.0137338740751147
0.013313784264028
0.012215157970786
0.0103099895641207
0.0075535839423537
0.0040025552734732
-0.0001852056011557
-0.0047679850831627
-0.0094511667266488
-0.0139257861301302
-0.0179068744182586
-0.0211642663925886
-0.0235423035919666
-0.0249686352908611
-0.0254530068486928
-0.0250779017806053
-0.0239837188273668
-0.0223496034741401
-0.0203720144927501
-0.0182437468320131
-0.0161344371736049
-0.0141741568222641
-0.012443016283214
-0.0109682101756334
-0.0097280349582433
-0.0086623523384332
-0.0076871770434081
-0.0067093162797391
-0.0056399372406303
-0.0044074738398194
-0.0029669795185327
-0.0013035675510764
0.0005683461204171
0.002609244082123
0.0047626914456486
0.0069647734053432
0.0091514019295573
0.0112633323296904
0.0132507383823394
0.0150774251669645
0.0167232025414705
0.0181843154132366
0.0194717198610305
0.0206062570214271
0.0216119196265935
0.0225097797811031
0.0233136899769306
0.0240274369716644
0.0246439278125762
0.0251466818153858
0.0255120992660522
0.0257113873958587
0.0257120188325643
0.025476399809122
0.0249538775533437
0.0240698046982288
0.0227234475314617
0.0208023246377706
0.0182099267840385
0.0148965325206518
0.0108840679749846
0.0062792683020234
0.001270355656743
-0.003893065964803
-0.0089316610246896
-0.0135728241875767
-0.0175842177122831
-0.0207969509065151
-0.0231152176856994
-0.0245150309056043
-0.0250373445451259
-0.0247785486280918
-0.0238782856613397
-0.0225044880062341
-0.0208369307219982
-0.0190509390085935
-0.017302818596363
-0.0157181918621063
-0.0143824759870767
-0.0133343860507011
-0.012565997429192
-0.0120298471301794
-0.0116504915058612
-0.0113374171778559
-0.0109965559095144
-0.010541221126914
-0.0099029978737235
-0.0090381484478712
-0.0079284077510237
-0.0065798298455774
-0.0050207544118165
-0.0032982719130814
-0.0014727072557434
0.0003899183357134
0.0022255894728004
0.0039783744141459
0.0056045930832624
0.0070749195292592
0.008374435827136
0.0095012011006474
0.0104638859629631
0.0112786963582038
0.0119655821472406
0.0125445434823632
0.0130325825884938
0.0134393703192472
0.0137581555172801
0.0139509281143546
0.0139341270551085
0.0135758202522993
0.0127111785113811
0.0111748650670051
0.0088418824598193
0.0056652249768376
0.0016997684724628
-0.0028941421769559
-0.0078666266053915
-0.0129085406661033
-0.0176921375095844
-0.0219150260090827
-0.0253355652093887
-0.0277929306030273
-0.0292131640017032
-0.0296050831675529
-0.0290493331849575
-0.0276832319796085
-0.025683581829071
-0.0232480522245168
-0.0205754302442073
-0.0178473126143217
-0.0152137828990817
-0.0127827152609825
-0.0106125976890325
-0.0087111946195364
-0.0070415521040558
-0.0055342651903629
-0.0041032377630472
-0.0026611536741256
-0.0011321054771542
0.0005390951409935
0.0023814318701624
0.004396541044116
0.0065615279600024
0.0088343489915132
0.0111600337550044
0.0134779317304492
0.0157295372337102
0.0178637839853763
0.0198392011225223
0.0216250270605087
0.0232012942433357
0.0245576240122318
0.0256926007568836
0.0266138818114995
0.0273361559957265
0.027877002954483
0.0282544791698455
0.028486780822277
0.0285913869738578
0.0285835321992635
0.0284753870218992
0.0282759666442871
0.0279906205832958
0.027618296444416
0.027143508195877
0.0265210941433906
0.0256594661623239
0.0244152452796697
0.022608034312725
0.0200543832033872
0.0166122950613498
0.0122227715328335
0.0069371010176837
0.0009254650212824
-0.0055357525125145
-0.0120988180860877
-0.0183936394751071
-0.0240763910114765
-0.0288666281849145
-0.0325694233179092
-0.0350840985774993
-0.036401692777872
-0.0365931540727615
-0.0357923358678817
-0.0341782048344612
-0.0319571010768413
-0.029343482106924
-0.0265404805541038
-0.0237244833260774
-0.0210345741361379
-0.0185651443898677
-0.0163617897778749
-0.0144223263487219
-0.0127034187316894
-0.0111318966373801
-0.0096204746514558
-0.008084999397397
-0.0064577143639326
-0.0046948567032814
-0.0027799813542515
-0.0007233400829136
0.0014427280984818
0.0036714614834636
0.0059099812060594
0.0081052677705883
0.010207837447524
0.012175865471363
0.0139792393893003
0.0156004540622234
0.0170322190970182
0.018274126574397
0.0193304866552352
0.0202090740203857
0.0209194738417863
0.0214718021452426
0.0218761097639799
0.0221415236592292
0.0222755149006843
0.0222837198525667
0.0221705641597509
0.0219413805752992
0.021604549139738
0.0211715027689933
0.0206553395837545
0.0200688298791646
0.0194218344986438
0.0187178924679756
0.0179459825158119
0.0170642398297786
0.0159834027290344
0.0145636973902583
0.0126315355300903
0.0100132897496223
0.0065774815157055
0.0022734552621841
-0.0028432104736566
-0.0086039481684565
-0.014741975814104
-0.0209260284900665
-0.0268040280789136
-0.0320470184087753
-0.0363861098885536
-0.0396362990140914
-0.0417047403752803
-0.0425878539681434
-0.0423624850809574
-0.0411715842783451
-0.0392048805952072
-0.0366781949996948
-0.0338138490915298
-0.0308222007006406
-0.0278844870626926
-0.0251383911818265
-0.0226687211543321
-0.0205059759318828
-0.0186333134770393
-0.016998903825879
-0.015529541298747
-0.0141428187489509
-0.0127575453370809
-0.0113030411303043
-0.0097262570634484
-0.0079955225810408
-0.0061019351705908
-0.0040582977235317
-0.0018951586680486
0.0003443097230046
0.002609608694911
0.0048483721911907
0.0070116436108946
0.0090584829449653
0.0109586920589208
0.0126936882734298
0.0142565397545695
0.0156505983322858
0.0168862752616405
0.0179768856614828
0.0189351662993431
0.0197716187685728
0.0204934794455766
0.0211030282080173
0.0215967092663049
0.0219671931117773
0.0222079940140247
0.0223171431571245
0.0222977697849273
0.0221574958413839
0.0219078045338392
0.0215618442744016
0.0211278833448886
0.0205955021083354
0.0199177414178848
0.0190001185983419
0.0177055038511753
0.0158765576779842
0.0133716883137822
0.0101045928895473
0.0060743759386241
0.0013792319223284
-0.0037864097394049
-0.0091511039063334
-0.0143998805433511
-0.0192145183682441
-0.0233127176761627
-0.0264801532030105
-0.0285895783454179
-0.029604610055685
-0.0295719616115093
-0.0286080166697502
-0.0268829818814992
-0.0246024020016193
-0.0219856686890125
-0.0192440766841173
-0.0165618881583213
-0.0140818199142813
-0.0118955103680491
-0.0100409155711531
-0.008507577702403
-0.0072466330602765
-0.0061822831630706
-0.0052244500257074
-0.00428157299757
-0.0032717597205191
-0.0021316497586667
-0.0008222530595958
0.0006688286084681
0.0023286833893507
0.0041234493255615
0.0060049118474125
0.0079171694815158
0.0098018627613782
0.0116034839302301
0.0132747385650873
0.0147794960066676
0.0160940177738666
0.0172081086784601
0.0181240551173686
0.0188515521585941
0.0194024145603179
0.0197893735021352
0.0200265049934387
0.0201276410371065
0.0201049372553825
0.0199692696332931
0.0197300259023904
0.0193943046033382
0.018967181444168
0.0184515602886676
0.0178443621844053
0.0171261504292488
0.0162455961108207
0.0151088507845997
0.0135842896997928
0.0115237925201654
0.0087951887398958
0.0053186435252428
0.0010978141799569
-0.0037634600885212
-0.0090638967230916
-0.0145266894251108
-0.0198354125022888
-0.0246744453907012
-0.0287659913301467
-0.031899444758892
-0.0339499115943908
-0.034884437918663
-0.0347563847899436
-0.0336902067065238
-0.0318617336452007
-0.0294777415692806
-0.0267551839351654
-0.0239009205251932
-0.0210945010185241
-0.0184751376509666
-0.0161333568394184
-0.0141085973009467
-0.0123926373198628
-0.0109373982995748
-0.0096665602177381
-0.0084907105192542
-0.0073232119902968
-0.0060920491814613
-0.004745805170387
-0.0032559144310653
-0.0016176952049136
0.0001503732055425
0.0020113661885261
0.0039183339104056
0.0058232927694916
0.0076833455823361
0.0094634070992469
0.0111378710716962
0.0126914605498313
0.0141181517392396
0.0154192019253969
0.0166005659848451
0.0176687911152839
0.0186276584863662
0.0194781962782144
0.0202199220657348
0.0208511091768741
0.0213690903037786
0.0217706523835659
0.0220521036535501
0.0222104918211698
0.0222460702061653
0.0221636611968278
0.0219718515872955
0.0216809660196304
0.0213008914142847
0.0208388101309537
0.0202943328768014
0.0196483694016933
0.0188470855355262
0.0177893135696649
0.0163283497095108
0.0142937190830707
0.0115284733474254
0.0079312687739729
0.003492331597954
-0.0016860589385032
-0.0073913820087909
-0.0133248697966337
-0.0191403478384017
-0.0244893133640289
-0.0290648862719535
-0.0326366238296031
-0.0350696183741092
-0.0363277457654476
-0.0364645346999168
-0.0356054045259952
-0.0339267775416374
-0.0316357165575027
-0.0289492756128311
-0.0260744672268629
-0.02319229952991
-0.0204461384564638
-0.0179341733455657
-0.0157082024961709
-0.0137780327349901
-0.0121182147413492
-0.0106760244816541
-0.0093814600259065
-0.008159096352756
-0.0069392137229442
-0.0056653525680303
-0.004297359380871
-0.0028110621497035
-0.0011972971260547
0.0005387160927057
0.0023792395368218
0.0042976709082722
0.0062620500102639
0.0082363998517394
0.0101816849783062
0.0120595302432775
0.013836720958352
0.0154865086078643
0.0169873386621475
0.0183217134326696
0.0194756872951984
0.0204390548169612
0.0212068706750869
0.0217813570052385
0.0221720822155475
0.0223940759897232
0.0224660597741603
0.0224096029996871
0.0222484618425369
0.0220085103064775
0.0217173993587493
0.0214030649513006
0.0210917368531227
0.0208047404885292
0.0205543562769889
0.0203400813043117
0.0201452318578958
0.0199326369911432
0.0196363739669322
0.0191497802734375
0.0183202102780342
0.0169627107679843
0.0148924347013235
0.0119646862149238
0.0081116640940308
0.0033691613934934
-0.002112541347742
-0.0080779381096363
-0.0141947045922279
-0.0200954061001539
-0.025424875319004
-0.0298838838934898
-0.0332604087889194
-0.0354453064501285
-0.0364341959357261
-0.0363178625702858
-0.0352631621062755
-0.0334870554506778
-0.0312281847000122
-0.0287207160145044
-0.0261726509779691
-0.0237494856119155
-0.0215639900416135
-0.0196713898330926
-0.0180706027895212
-0.0167132429778575
-0.0155191095545887
-0.0143941082060337
-0.0132467402145266
-0.0120002385228872
-0.0106000248342752
-0.0090179704129695
-0.0072529707103967
-0.0053272102959454
-0.0032797795720398
-0.0011595673859119
0.0009821350686252
0.0030992147512733
0.0051560644060373
0.0071282526478171
0.0090009253472089
0.0107677699998021
0.012429111637175
0.0139876706525683
0.0154438391327857
0.0167936719954013
0.018030047416687
0.0191449876874685
0.0201321616768836
0.020989516749978
0.0217207707464694
0.0223339609801769
0.0228378176689147
0.0232393890619277
0.0235444065183401
0.0237581748515367
0.0238838493824005
0.0239157956093549
0.0238273628056049
0.0235561374574899
0.0229944866150617
0.0219945199787616
0.0203917641192674
0.0180427655577659
0.0148639800027012
0.0108600072562694
0.0061366823501884
0.0008981772698462
-0.0045729326084256
-0.0099495016038417
-0.0148997539654374
-0.019126309081912
-0.0223986282944679
-0.0245743878185749
-0.0256085023283958
-0.025550402700901
-0.0245313383638858
-0.0227443929761648
-0.0204198583960533
-0.017800111323595
-0.015116810798645
-0.0125700989738106
-0.010311733931303
-0.0084345052018761
-0.0069687636569142
-0.0058876983821392
-0.0051202559843659
-0.0045673442073166
-0.0041188122704625
-0.0036691837012767
-0.0031298920512199
-0.0024379198439419
-0.0015599343460053
-0.0004912802833132
0.0007476130849681
0.0021155828144401
0.003555950243026
0.0050038620829582
0.0063962140120565
0.0076804393902421
0.0088189486414194
0.0097908051684498
0.0105916457250714
0.0112307844683527
0.0117266541346907
0.0121026616543531
0.0123837385326623
0.012593287974596
0.0127509329468011
0.0128711052238941
0.0129619799554348
0.0130256917327642
0.0130609143525362
0.0130659658461809
0.0130396103486418
0.0129796508699655
0.0128809949383139
0.0127328494563698
0.0125118969008326
0.0121687911450862
0.0116132162511348
0.0107100373134016
0.0092944027855992
0.0072028283029794
0.0043121110647916
0.0005758814513683
-0.0039523160085082
-0.0091158207505941
-0.0146705778315663
-0.0203143861144781
-0.0257238820195198
-0.0305935069918632
-0.0346690788865089
-0.0377698242664337
-0.0397979691624641
-0.0407382361590862
-0.04064966365695
-0.0396517813205719
-0.0379074029624462
-0.0356044434010982
-0.0329385250806808
-0.0300962179899215
-0.0272399224340915
-0.0244975443929433
-0.0219572596251964
-0.0196649134159088
-0.0176239814609289
-0.015799717977643
-0.0141279064118862
-0.012527760118246
-0.0109156826511025
-0.0092157423496246
-0.0073668053373694
-0.0053278305567801
-0.0030814674682915
-0.0006362390704452
0.0019735852256417
0.0046923295594751
0.0074508134275674
0.0101744197309017
0.0127895176410675
0.0152296489104628
0.0174416229128837
0.0193894281983375
0.0210556872189044
0.0224406979978084
0.0235589537769556
0.0244352519512176
0.0251006614416837
0.0255872830748558
0.0259239096194505
0.026134680956602
0.0262392982840538
0.026252944022417
0.0261860191822052
0.0260452814400196
0.0258357655256986
0.0255608893930912
0.0252217557281255
0.0248173270374536
0.0243419241160154
0.0237759426236152
0.0230711102485656
0.0221372358500957
0.0208408217877149
0.019022412598133
0.0165299605578184
0.01325842179358
0.0091834273189306
0.0043792002834379
-0.000981783028692
-0.0066456985659897
-0.0123085081577301
-0.0176551397889852
-0.0223976876586675
-0.0263061113655567
-0.0292276050895452
-0.0310925059020519
-0.0319087170064449
-0.0317501276731491
-0.0307439193129539
-0.0290576349943876
-0.0268838629126548
-0.0244228113442659
-0.0218648295849561
-0.0193739030510187
-0.0170740745961666
-0.0150407273322343
-0.0132980197668075
-0.0118241496384143
-0.0105629609897732
-0.0094370199367403
-0.0083597712218761
-0.0072474363259971
-0.0060303807258605
-0.004661725834012
-0.0031209113076329
-0.0014128093607723
0.0004353462718427
0.0023787934333086
0.0043618497438728
0.0063249911181628
0.0082115931436419
0.0099738836288452
0.0115766059607267
0.0129981618374586
0.0142300706356763
0.0152745069935917
0.0161410495638847
0.0168448872864246
0.0174064189195632
0.0178511999547481
0.0182088129222393
0.0185093842446804
0.0187792852520942
0.0190379526466131
0.0192956570535898
0.0195524226874113
0.0197969861328601
0.0200006030499935
0.0201030038297176
0.0199988316744565
0.0195375327020883
0.0185414608567953
0.0168381743133068
0.0142995435744524
0.0108784297481179
0.0066320928744971
0.0017256054561585
-0.0035843988880515
-0.0089821144938468
-0.0141339357942342
-0.0187287218868732
-0.0225104987621307
-0.0253010243177413
-0.0270114075392484
-0.0276444181799888
-0.0272884704172611
-0.0261027459055185
-0.024295225739479
-0.0220977533608675
-0.019740916788578
-0.017429731786251
-0.0153223518282175
-0.0135161476209759
-0.0120441196486353
-0.0108804572373628
-0.0099519100040197
-0.009153839200735
-0.008369667455554
-0.0074893259443342
-0.0064238137565553
-0.0051155812107026
-0.0035438607446849
-0.0017246711067855
0.0002941885031759
0.0024431783240288
0.0046433759853243
0.0068165929988026
0.0088927326723933
0.0108156455680727
0.0125458482652902
0.0140598323196172
0.0153485927730798
0.0164158921688795
0.0172751527279615
0.0179454423487186
0.0184478405863046
0.0188028514385223
0.0190289989113807
0.0191423241049051
0.0191559437662363
0.0190800335258245
0.0189234819263219
0.0186960455030202
0.0184089690446853
0.0180745385587215
0.0177062135189771
0.0173171926289796
0.0169107690453529
0.016460271552205
0.0158880278468132
0.0150584448128938
0.0137922884896397
0.0118981581181287
0.0092133609578013
0.0056452881544828
0.0012029930949211
-0.0039891893975436
-0.0096997981891036
-0.0156195126473903
-0.02140405587852
-0.0267189666628837
-0.0312772877514362
-0.034865666180849
-0.037357248365879
-0.0387131981551647
-0.0389767438173294
-0.0382620990276336
-0.0367386937141418
-0.0346111543476581
-0.0320975109934806
-0.0294083580374717
-0.0267279297113418
-0.024197781458497
-0.0219051465392112
-0.0198785383254289
-0.0180913396179676
-0.0164720676839351
-0.0149205243214964
-0.0133277690038084
-0.011594770476222
-0.0096459155902266
-0.0074372021481394
-0.0049597322940826
-0.0022393148392438
0.0006671249866485
0.0036785551346838
0.0066994056105613
0.0096299536526203
0.0123772881925106
0.0148662663996219
0.0170471463352441
0.0188972651958465
0.0204180851578712
0.0216306746006011
0.0225705876946449
0.0232810191810131
0.0238054022192955
0.0241829231381416
0.0244469940662384
0.0246242024004459
0.0247331410646438
0.0247843917459249
0.0247820504009723
0.0247252322733402
0.0246086679399013
0.0244238693267107
0.0241624191403388
0.0238202512264251
0.0234003402292728
0.0229122787714004
0.0223689321428537
0.0217806901782751
0.0211441554129123
0.0204221960157156
0.0195236690342426
0.0182982552796602
0.0165535658597946
0.0140915196388959
0.0107558416202664
0.0064779827371239
0.0013071876019239
-0.0045843115076422
-0.0109203504398465
-0.0173573307693004
-0.0235303975641727
-0.0291003752499818
-0.0337919890880584
-0.0374174378812313
-0.0398845821619033
-0.0411930829286575
-0.0414230711758136
-0.040718737989664
-0.0392681770026683
-0.037281721830368
-0.0349706411361694
-0.0325278118252754
-0.0301116686314344
-0.0278337579220533
-0.025751469656825
-0.0238679964095354
-0.0221397839486598
-0.0204899553209543
-0.0188250113278627
-0.0170518495142459
-0.0150924138724803
-0.0128944069147109
-0.0104377977550029
-0.0077371327206492
-0.0048387399874627
-0.0018127532675862
0.0012577292509377
0.0042876871302723
0.0071997242048382
0.0099304281175136
0.012432413175702
0.0146742202341556
0.0166410729289054
0.018334899097681
0.0197712443768978
0.0209745280444622
0.0219735130667686
0.0227972529828548
0.0234713740646839
0.0240150354802608
0.0244398396462202
0.0247516334056854
0.0249537713825702
0.0250496566295623
0.0250437892973423
0.0249422639608383
0.0247543510049581
0.0244941040873527
0.0241796262562274
0.023828987032175
0.0234500635415315
0.0230222288519144
0.022476103156805
0.0216838158667087
0.0204699300229549
0.0186431854963302
0.0160401463508605
0.0125687923282384
0.0082396538928151
0.0031776614487171
-0.0023854775354266
-0.0081375390291213
-0.0137266181409358
-0.018806766718626
-0.0230791885405778
-0.0263238083571195
-0.0284177809953689
-0.0293402411043643
-0.0291656255722045
-0.028047926723957
-0.0261984653770923
-0.0238602310419082
-0.0212813317775726
-0.0186903122812509
-0.0162757821381092
-0.0141715016216039
-0.0124481609091162
-0.0111126061528921
-0.0101141035556793
-0.0093569383025169
-0.0087180668488144
-0.0080673592165112
-0.0072869337163865
-0.0062864320352673
-0.0050120945088565
-0.0034489585086703
-0.0016176450299099
0.0004321536980569
0.0026295050047338
0.0048907045274972
0.0071282722055912
0.0092588849365711
0.0112102758139371
0.0129279484972357
0.0143792936578392
0.0155534725636243
0.0164591707289218
0.0171214304864406
0.0175764467567205
0.0178647730499506
0.0180253162980079
0.0180911961942911
0.0180874019861221
0.0180298890918493
0.0179254785180091
0.0177729967981576
0.0175658427178859
0.0172949135303497
0.0169512536376714
0.0165283344686031
0.0160235241055488
0.015435067936778
0.0147496862336993
0.0139224240556359
0.0128586562350392
0.0114114070311188
0.009401611983776
0.0066571338102221
0.0030588693916797
-0.0014188764616847
-0.0066860327497124
-0.0125390877947211
-0.0186846330761909
-0.0247763339430093
-0.0304590128362178
-0.035412847995758
-0.0393885225057601
-0.0422272905707359
-0.0438663139939308
-0.0443324968218803
-0.0437287651002407
-0.0422166734933853
-0.0399970486760139
-0.0372890830039978
-0.0343090109527111
-0.0312507525086402
-0.0282710567116737
-0.025480518117547
-0.0229402221739292
-0.0206627529114484
-0.0186174847185611
-0.0167410392314195
-0.0149505753070116
-0.0131565183401107
-0.0112751042470335
-0.0092396521940827
-0.0070067616179585
-0.0045583159662783
-0.0019021369516849
0.000929812900722
0.0038861250504851
0.0069016208872199
0.009903366677463
0.0128166927024722
0.0155707374215126
0.0181041304022073
0.0203703828155994
0.0223411209881305
0.0240060463547706
0.0253704357892274
0.0264520533382892
0.0272782240062952
0.0278832651674747
0.0283051654696464
0.028580592945218
0.0287412479519844
0.0288138482719659
0.0288203954696655
0.0287763476371765
0.0286891162395477
0.0285579450428485
0.0283741001039743
0.0281226653605699
0.0277869179844856
0.0273531414568424
0.0268134921789169
0.0261664371937513
0.0254145599901676
0.024556066840887
0.0235673524439334
0.0223829038441181
0.0208844318985939
0.0189093351364135
0.0162808988243341
0.0128513211384415
0.0085437726229429
0.0033830124884843
-0.0024922806769609
-0.0088386321440339
-0.0153361838310956
-0.0216295421123504
-0.0273727178573608
-0.0322702936828136
-0.0361076258122921
-0.0387654975056648
-0.0402196571230888
-0.0405302792787551
-0.0398265086114406
-0.0382882878184318
-0.036126360297203
-0.0335616394877433
-0.0308058056980371
-0.0280439145863056
-0.0254198424518108
-0.0230272784829139
-0.0209074281156063
-0.0190519578754901
-0.0174107272177934
-0.0159042570739984
-0.0144390184432268
-0.0129233067855238
-0.0112812537699937
-0.009462502785027
-0.0074463430792093
-0.0052404650487005
-0.0028768237680196
-0.0004073996096849
0.0021009775809943
0.0045743170194327
0.0069407457485795
0.009139223024249
0.0111250802874565
0.0128716565668582
0.0143702756613492
0.015629144385457
0.0166693776845932
0.017519062384963
0.0182088389992713
0.0187700726091861
0.0192336328327655
0.0196277108043432
0.0199746321886777
0.0202880743891
0.0205728318542242
0.0208267197012901
0.0210417546331882
0.0212043784558773
0.0212964210659265
0.0212972853332757
0.0211874023079872
0.0209527816623449
0.0205889176577329
0.0201015658676624
0.0195033587515354
0.0188037566840648
0.0179906785488128
0.0170112550258636
0.0157642122358083
0.0141109274700284
0.0119031146168708
0.009019604884088
0.0054027242586016
0.0010844599455595
-0.0038033500313758
-0.0090370941907167
-0.0143279358744621
-0.0193601436913013
-0.0238308869302272
-0.0274852085858583
-0.0301425568759441
-0.0317110531032085
-0.0321891158819198
-0.0316581763327121
-0.0302693117409944
-0.0282246582210063
-0.0257553234696388
-0.0230977237224578
-0.0204695705324411
-0.0180480349808931
-0.0159544944763183
-0.0142486924305558
-0.0129315089434385
-0.0119537264108657
-0.0112288063392043
-0.0106482421979308
-0.0100972615182399
-0.0094693657010793
-0.0086787212640047
-0.0076679652556777
-0.0064106220379471
-0.0049107819795608
-0.0032006169203668
-0.0013345328625291
0.0006188006373122
0.0025857533328235
0.0044977609068155
0.0062991748563945
0.0079511180520057
0.0094319367781281
0.0107355201616883
0.0118686640635132
0.0128476796671748
0.0136943096294999
0.0144315566867589
0.0150795066729187
0.015650974586606
0.0161480754613876
0.0165623649954795
0.0168789699673652
0.0170815400779247
0.01715680770576
0.017099279910326
0.0169138051569461
0.0166142713278532
0.0162203833460807
0.0157546885311603
0.0152388550341129
0.0146856429055333
0.0140845011919736
0.0133850332349538
0.0124875009059906
0.0112484768033027
0.0095045929774641
0.0071092704311013
0.0039711724966764
8.421298116445541e-05
-0.0044572609476745
-0.0094616236165165
-0.0146610401570796
-0.0197459906339645
-0.0244060344994068
-0.0283679645508527
-0.0314247161149978
-0.0334524326026439
-0.0344150215387344
-0.034358125180006
-0.0333960764110088
-0.0316943936049938
-0.0294501055032014
-0.0268716476857662
-0.0241597015410661
-0.0214907322078943
-0.0190035998821258
-0.0167891439050436
-0.014885569922626
-0.0132823940366506
-0.0119304247200489
-0.0107537750154733
-0.0096634849905967
-0.0085719153285026
-0.0074046705849468
-0.0061081321910023
-0.0046524461358785
-0.0030305390246212
