bvp
0.0044356826692819
-0.0007904185913503
-0.0060586989857256
-0.0110761728137731
-0.0155627746134996
-0.019278235733509
-0.022042104974389
-0.0237481798976659
-0.0243752542883157
-0.0239921361207962
-0.0227518286556005
-0.0208735950291156
-0.0186166726052761
-0.0162489525973796
-0.0140137458220124
-0.0120999487116932
-0.0106209414079785
-0.0096057811751961
-0.0090045537799596
-0.0087065584957599
-0.0085672382265329
-0.0084393331781029
-0.0082036415114998
-0.0077946414239704
-0.0072166752070188
-0.0065462817437946
-0.0059175174683332
-0.0054922741837799
-0.005423410795629
-0.0058214222081005
-0.0067335334606468
-0.0081381648778915
-0.0099521651864051
-0.0120465289801359
-0.0142672350630164
-0.0164570529013872
-0.0184739585965871
-0.0202042926102876
-0.0215692929923534
-0.0225250385701656
-0.023062415421009
-0.023216487839818
-0.0230861715972423
-0.0228523537516593
-0.022777359932661
-0.023174975067377
-0.0243534296751022
-0.026546124368906
-0.0298492703586816
-0.0341825149953365
-0.0392825677990913
-0.0447325706481933
-0.0500212609767913
-0.0546184554696083
-0.0580502189695835
-0.0599591471254825
-0.0601402819156646
-0.0585495419800281
-0.0552886500954628
-0.0505752079188823
-0.0447083115577697
-0.0380353592336177
-0.0309193879365921
-0.0237069465219974
-0.0166997984051704
-0.0101323127746582
-0.0041545741260051
0.001176118850708
0.0058938264846801
0.0101137086749076
0.0140138752758502
0.017810795456171
0.0217305123805999
0.0259787626564502
0.0307153537869453
0.0360370948910713
0.041969895362854
0.048469178378582
0.0554273054003715
0.0626856163144111
0.0700500011444091
0.0773091912269592
0.084252581000328
0.0906851664185524
0.0964398682117462
0.1013864949345588
0.1054357886314392
0.1085403114557266
0.1106942445039749
0.1119323149323463
0.1123260110616684
0.1119739189743995
0.1109836623072624
0.1094440072774887
0.1073884144425392
0.1047606021165847
0.1014017239212989
0.0970724672079086
0.091506689786911
0.0844818130135536
0.0758868679404258
0.0657704323530197
0.0543584190309047
0.0420397110283374
0.029323011636734
0.0167737789452075
0.0049449242651462
-0.0056842253543436
-0.0147503996267914
-0.0220275856554508
-0.0274310745298862
-0.0310082919895648
-0.032918032258749
-0.0334022715687751
-0.0327546782791614
-0.0312878265976905
-0.0293042454868555
-0.0270757339894771
-0.0248272307217121
-0.0227222144603729
-0.0208547227084636
-0.0192519128322601
-0.0178842898458242
-0.0166805479675531
-0.0155459996312856
-0.0143820093944668
-0.0131033863872289
-0.0116533711552619
-0.010013660416007
-0.0082042105495929
-0.0062742792069911
-0.0042923893779516
-0.0023388694971799
-0.0004982464015483
0.0011503472924232
0.002542145550251
0.0036319680511951
0.0043956115841865
0.0048306249082088
0.0049575604498386
0.0048179887235164
0.0044671334326267
0.003963429480791
0.003359630703926
0.0026991441845893
0.002015933394432
0.0013333298265933
0.0006624087691307
5.174428224563599e-06
-0.0006395876407623
-0.0012755133211612
-0.0019122958183288
-0.002571415156126
-0.0033013336360454
-0.0042034983634948
-0.0054527521133422
-0.0072941407561302
-0.0100105181336402
-0.0138675272464752
-0.0190503299236297
-0.0256081521511077
-0.0334211848676204
-0.0421988442540168
-0.0515092760324478
-0.0608331114053726
-0.069631814956665
-0.0774168968200683
-0.0838045999407768
-0.0885472521185875
-0.0915401130914688
-0.0928089916706085
-0.0924873799085617
-0.0907882675528526
-0.0879738852381706
-0.0843286141753196
-0.0801368802785873
-0.0756638199090957
-0.0711375027894973
-0.0667342394590377
-0.0625699833035469
-0.0586996264755725
-0.0551221519708633
-0.0517882257699966
-0.048610646277666
-0.0454785153269767
-0.0422730967402458
-0.0388837978243827
-0.0352226383984088
-0.031234260648489
-0.0269008856266737
-0.0222440883517265
-0.0173229426145553
-0.0122257405892014
-0.007056058384478
-0.0019186586141586
0.0030908454209566
0.0078925462439656
0.0124265765771269
0.016655022278428
0.0205597579479217
0.0241371616721153
0.0273921061307191
0.0303324982523918
0.0329672433435916
0.0353084057569503
0.0373728573322296
0.0391793884336948
0.0407425314188003
0.0420706607401371
0.0431705117225647
0.0440498441457748
0.0447175800800323
0.0451852455735206
0.0454659573733806
0.0455701500177383
0.0455036796629428
0.0452691540122032
0.0448638126254081
0.0442692227661609
0.0434357225894928
0.0422696843743324
0.0406331047415733
0.0383615642786026
0.03529829159379
0.0313352085649967
0.0264495685696601
0.0207264740020036
0.0143614392727613
0.0076418733224272
0.0009112581610679
-0.0054752249270677
-0.0111940177157521
-0.0159882176667451
-0.0196893140673637
-0.0222245045006275
-0.0236131586134433
-0.0239552166312932
-0.0234124399721622
-0.0221869796514511
-0.0205016694962978
-0.0185805484652519
-0.0166290067136287
-0.0148167563602328
-0.0132648898288607
-0.012038174085319
-0.0111454678699374
-0.0105466041713953
-0.0101616289466619
-0.0098822470754385
-0.0095868753269314
-0.0091579975560307
-0.0084975659847259
-0.0075374515727162
-0.006245688535273
-0.0046288473531603
-0.0027296859771013
-0.0006199813215062
0.0016108776908367
0.0038691596128046
0.0060684564523398
0.0081375353038311
0.0100244367495179
0.0116978967562317
0.0131463818252086
0.0143741257488727
0.0153947221115231
0.0162258762866258
0.0168873481452465
0.0173993092030286
0.0177793018519878
0.0180399231612682
0.0181889943778514
0.0182317402213811
0.0181730519980192
0.0180178489536046
0.0177688412368297
0.0174209587275981
0.0169519372284412
0.0163137149065732
0.0154323726892471
0.0142189096659421
0.0125875724479556
0.0104773910716176
0.0078726336359977
0.0048169074580073
0.0014154976233839
-0.0021751737222075
-0.0057672075927257
-0.0091647785156965
-0.0121869919821619
-0.0146864708513021
-0.0165613703429698
-0.017760531976819
-0.0182835236191749
-0.0181773677468299
-0.0175299681723117
-0.0164600722491741
-0.0151044819504022
-0.013603470288217
-0.0120857208967208
-0.0106544326990842
-0.009378395974636
-0.008293735794723
-0.0074175046756863
-0.0067640403285622
-0.0063511943444609
-0.0061939870938658
-0.006294029764831
-0.0066315457224845
-0.0071612391620874
-0.0078121614642441
-0.0084921568632125
-0.0090965908020734
-0.0095202941447496
-0.0096710734069347
-0.0094820093363523
-0.0089194411411881
-0.0079856216907501
-0.0067168762907385
-0.0051772166043519
-0.0034478213638067
-0.0016154611948877
0.0002373941242694
0.0020393792074173
0.0037336924578994
0.0052799261175096
0.0066546415910124
0.0078498572111129
0.0088704787194728
0.0097313821315765
0.0104535911232233
0.0110601270571351
0.0115728173404932
0.0120105221867561
0.0123881734907627
0.0127143878489732
0.0129853561520576
0.0131763406097888
0.0132363010197877
0.0130909411236643
0.0126543631777167
0.0118457302451133
0.0106085324659943
0.0089294202625751
0.0068499818444252
0.0044664414599537
0.0019180090166628
-0.0006321335677057
-0.0030189910903573
-0.0050969026051461
-0.0067554311826825
-0.0079276924952864
-0.0085916630923748
-0.0087661892175674
-0.0085042864084243
-0.0078854719176888
-0.0070060254074633
-0.005967129021883
-0.0048645338974893
-0.0037822313606739
-0.0027886414900422
-0.0019332780502736
-0.0012437729164958
-0.0007243938744068
-0.0003568371757864
-0.0001037381589412
8.510425686836243e-05
0.0002649584785103
0.0004881243221461
0.0007967860437929
0.0012186309322714
0.0017662378959357
0.0024388316087424
0.0032239905558526
0.0040990812703967
0.0050337528809905
0.0059931790456175
0.006941398140043
0.0078447284176945
0.0086741372942924
0.0094067407771945
0.0100279506295919
0.0105327041819691
0.0109241157770156
0.0112113282084465
0.0114072235301136
0.0115253310650587
0.0115772075951099
0.0115715051069855
0.0115142557770013
0.0114095360040664
0.0112600401043891
0.0110675860196352
0.0108339237049222
0.010561941191554
0.0102565269917249
0.0099237468093633
0.0095667205750942
0.009177666157484
0.008729550987482
0.0081729935482144
0.0074413833208382
0.0064635449089109
0.0051807221025228
0.0035626888275146
0.0016183934640139
-0.0006005803588777
-0.0030036487150937
-0.0054715583100914
-0.0078718001022934
-0.0100749060511589
-0.0119676236063241
-0.0134632224217057
-0.0145096592605113
-0.0150926578789949
-0.0152326794341206
-0.0149793736636638
-0.0144058000296354
-0.013601241633296
-0.012661637738347
-0.0116793513298034
-0.0107346316799521
-0.0098894946277141
-0.0091840513050556
-0.0086346641182899
-0.0082342075183987
-0.0079560447484254
-0.0077605955302715
-0.0076027992181479
-0.0074399849399924
-0.0072369277477264
-0.0069667501375079
-0.0066111218184232
-0.0061605726368725
-0.0056136543862521
-0.0049767419695854
-0.0042651491239666
-0.0035020555369555
-0.0027134674601256
-0.0019232038175687
-0.001151799224317
-0.0004174704663455
0.0002647044602781
0.0008854147745296
0.0014424042310565
0.0019391732057556
0.0023827985860407
0.002782491967082
0.0031490083783864
0.0034935097210109
0.0038255853578448
0.0041520809754729
0.004476923495531
0.004800952039659
0.0051217223517596
0.0054335272870957
0.0057282131165266
0.0059975013136863
0.006235287990421
0.0064377263188362
0.0066012348979711
0.0067191873677074
0.0067775314673781
0.0067498269490897
0.0065938793122768
0.0062535530887544
0.0056674000807106
0.0047832997515797
0.003575577866286
0.0020573686342686
0.0002832970349118
-0.001656100503169
-0.0036453204229474
-0.0055583720095455
-0.0072745056822896
-0.008692318573594
-0.0097399158403277
-0.0103799998760223
-0.0106098484247922
-0.0104578249156475
-0.0099786696955561
-0.009247301146388
-0.0083496142178773
-0.0073714056052267
-0.0063890423625707
-0.0054639307782053
-0.0046400995925068
-0.0039441725239157
-0.0033867170568555
-0.0029633343219757
-0.0026557785458862
-0.0024345032870769
-0.0022624121047556
-0.0020991079509258
-0.0019058962352573
-0.0016506593674421
-0.0013106768019497
-0.0008733854629099
-0.0003365282900631
0.0002909651957452
0.0009880107827484
0.0017231348901987
0.0024595516733825
0.0031616587657481
0.0038005718961358
0.004356256686151
0.0048175789415836
0.0051831970922648
0.0054616536945104
0.0056682731956243
0.0058210245333611
0.0059381634928286
0.0060362601652741
0.0061267656274139
0.0062143593095242
0.0063001806847751
0.006386000663042
0.0064743561670184
0.0065661007538437
0.0066590532660484
0.0067467698827385
0.0068142195232212
0.0068310340866446
0.0067467587068676
0.0064935991540551
0.0059988861903548
0.005202414933592
0.0040718256495893
0.0026129849720746
0.0008741118945181
-0.0010572280734777
-0.0030636107549071
-0.0050123520195484
-0.0067732809111475
-0.0082362759858369
-0.0093246754258871
-0.0100017245858907
-0.0102690458297729
-0.0101597877219319
-0.0097311306744813
-0.0090572740882635
-0.0082216272130608
-0.0073087969794869
-0.0063971220515668
-0.0055520292371511
-0.0048207323998212
-0.004228841047734
-0.003780061379075
-0.0034589325077831
-0.0032343752682209
-0.0030633602291345
-0.0028968015685677
-0.0026871860027313
-0.0023944042623043
-0.0019894307479262
-0.0014567077159881
-0.0007940679788589
-1.1187046766281128e-05
0.0008717207238078
0.0018262634985148
0.0028194794431328
0.0038170372135937
0.0047862161882221
0.0056987842544913
0.0065322797745466
0.0072698546573519
0.007900939323008
0.0084224306046962
0.0088378423824906
0.0091548059135675
0.0093831028789281
0.0095341065898537
0.0096206869930028
0.0096561945974826
0.0096534499898552
0.0096242288127541
0.009577996097505
0.0095204543322324
0.0094533646479249
0.0093741985037922
0.0092718545347452
0.0091184852644801
0.0088633000850677
0.0084339082241058
0.0077461190521717
0.0067202998325228
0.0053012901917099
0.0034760597627609
0.0012822623830288
-0.0011941185221076
-0.0038287634961307
-0.0064731086604297
-0.0089710243046283
-0.011176805011928
-0.0129711059853434
-0.0142719894647598
-0.0150408586487174
-0.0152833294123411
-0.015044960193336
-0.0144033562391996
-0.0134588330984115
-0.0123245846480131
-0.0111159794032573
-0.0099387802183628
-0.0088783632963895
-0.0079930080100893
-0.0073109278455376
-0.0068294424563646
-0.006517113186419
-0.0063193989917635
-0.0061668241396546
-0.0059849629178643
-0.0057050203904509
-0.0052725374698638
-0.0046526249498128
-0.0038322713226079
-0.002820529974997
-0.0016461256891489
-0.0003522410988807
0.0010104561224579
0.0023910133168101
0.0037435335107147
0.0050291749648749
0.0062163383699953
0.0072814505547285
0.008210377767682
0.0089998198673129
0.0096577303484082
0.0102006494998931
0.0106488158926367
0.0110223218798637
0.0113389147445559
0.0116125671193003
0.011852690950036
0.0120641402900218
0.0122483139857649
0.0124048739671707
0.0125327976420521
0.0126293841749429
0.0126850195229053
0.0126725658774375
0.0125358486548066
0.0121862012892961
0.0115122608840465
0.0104005523025989
0.0087611228227615
0.0065526952967047
0.0038011390715837
0.0006050905212759
-0.0028730691410601
-0.0064271977171301
-0.0098320972174406
-0.0128693524748086
-0.0153533481061458
-0.0171520933508873
-0.0181971304118633
-0.0184843055903911
-0.0180685371160507
-0.0170537121593952
-0.0155796268954873
-0.0138079561293125
-0.0119083235040307
-0.0100438557565212
-0.0083554126322269
-0.0069472421891987
-0.0058775092475116
-0.0051545081660151
-0.0047393157146871
-0.0045556272380054
-0.0045041642151772
-0.0044776871800422
-0.0043749203905463
-0.0041119270026683
-0.0036288714036345
-0.0028927475214004
-0.0018978388980031
-0.0006639491766691
0.000767826102674
0.0023415507748723
0.003994065336883
0.0056620487011969
0.0072880070656538
0.0088244993239641
0.0102359103038907
0.0114988535642623
0.0126013681292533
0.013541268184781
0.0143250320106744
0.0149658573791384
0.0154794063419103
0.0158793702721595
0.0161755047738552
0.01637470908463
0.0164835024625062
0.0165089648216962
0.0164584182202816
0.0163392554968595
0.0161554161459207
0.0158964078873395
0.0155215729027986
0.0149495992809534
0.0140625247731804
0.0127246268093585
0.0108110401779413
0.0082401046529412
0.0050012208521366
0.0011695632711052
-0.0030961902812123
-0.0075711393728852
-0.0119913388043642
-0.0160853695124387
-0.0196050480008125
-0.0223512426018714
-0.0241928696632385
-0.0250771846622228
-0.0250299237668514
-0.0241468865424394
-0.0225805025547742
-0.0205234326422214
-0.0181888416409492
-0.0157884564250707
-0.0135121243074536
-0.0115104587748646
-0.0098807029426097
-0.0086595313623547
-0.0078259231522679
-0.007311156950891
-0.0070121898315846
-0.0068076374009251
-0.0065752393566071
-0.0062083671800792
-0.0056282989680767
-0.0047893146984279
-0.0036781136877834
-0.0023115701042115
-0.0007326705381274
0.0009963545016944
0.0028018290176987
0.0046063940972089
0.0063367206603288
0.0079304538667202
0.0093414429575204
0.010542532429099
0.0115257371217012
0.0122993383556604
0.0128823313862085
0.0132998265326023
0.0135820722207427
0.0137640191242098
0.0138812083750963
0.0139624550938606
0.014021810144186
0.0140487290918827
0.0139951035380363
0.0137654189020395
0.0132205346599221
0.0121990237385034
0.0105508342385292
0.0081739388406276
0.0050453320145606
0.0012384105939418
-0.0030788432341068
-0.0076633300632238
-0.0122281145304441
-0.016479343175888
-0.0201514922082424
-0.023034393787384
-0.024990851059556
-0.0259665697813034
-0.0259912256151437
-0.0251694582402706
-0.0236645694822073
-0.0216782167553901
-0.0194273106753826
-0.0171196907758712
-0.0149331567808985
-0.0130007397383451
-0.0114008979871869
-0.0101530337706208
-0.0092208459973335
-0.008522905409336
-0.0079480074346065
-0.0073728561401367
-0.0066790413111448
-0.0057677878066897
-0.0045718234032392
-0.0030624698847532
-0.0012498926371335
0.0008235881105065
0.0030935341492295
0.0054825586266815
0.0079081039875745
0.0102899130433797
0.0125567028298974
0.0146509567275643
0.0165319666266441
0.0181771367788314
0.0195805560797452
0.0207490921020507
0.0216980092227458
0.0224475897848606
0.0230209212750196
0.0234422944486141
0.0237350948154926
0.0239199623465538
0.0240148343145847
0.0240350142121315
0.0239909570664167
0.0238828267902135
0.0236893687397241
0.0233518462628126
0.0227619707584381
0.0217651817947626
0.0201840661466121
0.0178566165268421
0.0146781345829367
0.0106352223083376
0.0058231791481375
0.0004431535489857
-0.005219635553658
-0.0108326449990272
-0.0160605423152446
-0.0206068251281976
-0.0242440737783908
-0.0268308855593204
-0.0283176843076944
-0.0287436135113239
-0.0282254889607429
-0.0269399899989366
-0.0251021180301904
-0.0229423083364963
-0.0206828601658344
-0.0185160208493471
-0.0165871381759643
-0.0149837862700223
-0.0137314163148403
-0.0127969766035676
-0.0121003668755292
-0.0115313744172453
-0.0109683023765683
-0.0102947670966386
-0.0094137238338589
-0.0082583501935005
-0.0067980419844388
-0.0050388937816023
-0.0030199261382222
-0.0008057751692831
0.0015234749298542
0.0038832961581647
0.0061946990899741
0.0083914948627352
0.0104233846068382
0.012256359681487
0.0138726932927966
0.015269536525011
0.016455203294754
0.0174450948834419
0.0182584300637245
0.018915582448244
0.0194362383335828
0.0198384430259466
0.0201384890824556
0.0203511305153369
0.0204891823232173
0.0205627977848052
0.0205792617052793
0.0205437298864126
0.0204602628946304
0.020331410691142
0.0201565939933061
0.0199289992451667
0.0196260884404182
0.0191928558051586
0.0185265354812145
0.0174741838127374
0.0158509612083435
0.0134778833016753
0.0102272452786564
0.0060611870139837
0.0010536294430494
-0.0046075163409113
-0.0106375552713871
-0.0166901443153619
-0.0224040895700454
-0.0274506583809852
-0.0315714813768863
-0.0346015840768814
-0.0364764034748077
-0.0372259430587291
-0.036961305886507
-0.0358562394976615
-0.0341243594884872
-0.031994841992855
-0.0296901725232601
-0.0274064987897872
-0.025296289473772
-0.0234559290111064
-0.0219210945069789
-0.0206703841686248
-0.0196360107511281
-0.0187185518443584
-0.0178032219409942
-0.0167767629027366
-0.015543008223176
-0.0140345627442002
-0.0122187444940209
-0.0100975148379802
-0.0077038253657519
-0.0050961822271347
-0.0023504563141614
0.0004505822435021
0.0032268320210278
0.0059070889838039
0.0084319487214088
0.0107555501163005
0.0128476154059171
0.01469446439296
0.0162981692701578
0.0176741182804107
0.0188466925173997
0.0198438316583633
0.0206919182091951
0.0214126147329807
0.0220232009887695
0.022538598626852
0.0229713357985019
0.0233291964977979
0.0236138757318258
0.0238228067755699
0.0239521842449903
0.0239984709769487
0.023958221077919
0.0238258447498083
0.0235861353576183
0.0231998842209577
0.0225874204188585
0.0216207224875688
0.0201338827610015
0.0179532654583454
0.0149392737075686
0.0110275894403457
0.0062587950378656
0.0007888218387961
-0.0051233023405075
-0.0111484052613377
-0.0169317312538623
-0.0221377871930599
-0.0264888145029544
-0.0297927074134349
-0.0319557189941406
-0.0329800434410572
-0.0329527333378791
-0.0320313870906829
-0.030426301062107
-0.0283773597329854
-0.026128239929676
-0.0239020958542823
-0.0218798127025365
-0.0201816335320472
-0.0188566949218511
-0.0178842991590499
-0.0171853899955749
-0.0166409015655517
-0.0161132607609033
-0.0154668316245079
-0.014585718512535
-0.0133881084620952
-0.0118341436609625
-0.0099257417023181
-0.0077008176594972
-0.0052254213951528
-0.0025847000069916
0.0001275157555937
0.002818812849
0.0054065757431089
0.0078241545706987
0.0100232679396867
0.0119732990860939
0.0136609245091676
0.0150904087349772
0.016281858086586
0.0172663405537605
0.0180792827159166
0.0187548920512199
0.0193232558667659
0.0198096428066492
0.0202344246208667
0.0206125490367412
0.0209533218294382
0.0212602894753217
0.0215287748724222
0.021738838404417
0.0218418948352336
0.0217448025941848
0.0213032867759466
0.020334193482995
0.0186469089239835
0.0160870496183633
0.0125798424705863
0.0081599336117506
0.0029800334013998
-0.0027022638823837
-0.0085556292906403
-0.0142175611108541
-0.0193399246782064
-0.0236300341784954
-0.026880657300353
-0.0289837531745433
-0.0299295336008071
-0.0297967568039894
-0.0287373308092355
-0.0269561484456062
-0.0246877074241638
-0.0221716351807117
-0.0196290574967861
-0.0172412022948265
-0.0151326488703489
-0.0133630651980638
-0.0119288684800267
-0.0107721649110317
-0.0097946282476186
-0.0088760945945978
-0.0078958161175251
-0.0067508937790989
-0.0053677763789892
-0.0037073027342557
-0.0017650937661528
0.0004316642880439
0.0028298487886786
0.0053574866615235
0.0079321628436446
0.0104700867086648
0.0128941871225833
0.0151406470686197
0.0171634759753942
0.0189363360404968
0.0204518772661685
0.0217191651463508
0.0227597951889038
0.0236035343259573
0.0242841113358736
0.0248353015631437
0.0252868328243494
0.0256605446338653
0.0259691290557384
0.0262182541191577
0.0264096669852733
0.0265435539186
0.0266193971037864
0.0266350097954273
0.0265836976468563
0.026445897296071
0.0261716973036527
0.0256611015647649
0.0247574765235185
0.0232643298804759
0.0209828410297632
0.0177589952945709
0.0135266343131661
0.0083350557833909
0.0023550223559141
-0.0041371919214725
-0.0107932053506374
-0.0172368623316288
-0.0231126472353935
-0.0281290672719478
-0.0320871397852897
-0.0348902493715286
-0.036539688706398
-0.0371217988431453
-0.0367900878190994
-0.0357441827654838
-0.0342069491744041
-0.0324014499783515
-0.0305294431746006
-0.0287525951862335
-0.0271781235933303
-0.025851709768176
-0.0247591640800237
-0.0238362271338701
-0.0229843370616436
-0.0220882687717676
-0.0210327059030532
-0.0197179466485977
-0.0180735327303409
-0.0160659588873386
-0.0136991115286946
-0.0110104158520698
-0.0080649126321077
-0.0049467245116829
-0.0017484053969383
0.0014390838332474
0.00453357771039
0.0074665397405624
0.0101866964250803
0.0126623939722776
0.0148815996944904
0.0168484412133693
0.0185777395963668
0.020090552046895
0.0214117243885993
0.0225681383162736
0.0235864035785198
0.0244902521371841
0.0252986159175634
0.0260247476398944
0.0266761481761932
0.0272550042718648
0.0277590602636337
0.0281827729195356
0.0285189375281333
0.0287608373910188
0.028902780264616
0.0289361737668514
0.0288388095796108
0.0285570435225963
0.0279884207993745
0.026978638023138
0.0253408551216125
0.0228932797908782
0.0195039696991443
0.0151307815685868
0.0098454169929027
0.0038354564458131
-0.0026142438873648
-0.0091558657586574
-0.0154228685423731
-0.0210755560547113
-0.0258381310850381
-0.0295221768319606
-0.0320363529026508
-0.0333840250968933
-0.0336521342396736
-0.032994158565998
-0.031609296798706
-0.0297199338674545
-0.0275485552847385
-0.025296214967966
-0.0231253709644079
-0.021148083731532
-0.0194200649857521
-0.0179414264857769
-0.0166641026735305
-0.0155049283057451
-0.0143621638417243
-0.0131325852125883
-0.0117273516952991
-0.0100847985595464
-0.0081780040636658
-0.006017078179866
-0.0036463441792875
-0.0011368875857442
0.0014235973358154
0.0039425017312169
0.0063331509009003
0.0085222916677594
0.010454929433763
0.0120968064293265
0.0134342275559902
0.0144727434962987
0.0152349416166543
0.0157559532672166
0.0160767398774623
0.0162371899932622
0.0162717159837484
0.0162080079317092
0.0160676147788763
0.0158670414239168
0.0156183680519461
0.0153302727267146
0.0150102768093347
0.014665987342596
0.014304032549262
0.0139293270185589
0.0135459098964929
0.0131565779447555
0.0127581814303994
0.0123314103111624
0.0118261976167559
0.011148739606142
0.0101606249809265
0.0086966939270496
0.0065984055399894
0.0037521943449974
0.0001225192099809
-0.0042274156585335
-0.0091324876993894
-0.0143417594954371
-0.0195500198751688
-0.0244375765323638
-0.0287101939320564
-0.0321317799389362
-0.0345460213720798
-0.035886250436306
-0.0361745953559875
-0.0355128310620784
-0.0340665280818939
-0.032043807208538
-0.0296713002026081
-0.0271700136363506
-0.0247327908873558
-0.0225050896406173
-0.020572705194354
-0.0189597550779581
-0.0176358614116907
-0.0165289603173732
-0.015540380962193
-0.0145603567361831
-0.0134839285165071
-0.0122258337214589
-0.0107312304899096
-0.0089807640761137
-0.0069898585788905
-0.0048022945411503
-0.0024805450811982
-9.71079571172595e-05
0.002272062934935
0.0045544505119323
0.0066888546571135
0.0086316969245672
0.0103599512949585
0.0118704922497272
0.0131762586534023
0.0143012413755059
0.0152758611366152
0.0161324851214885
0.0169015172868967
0.0176087785512208
0.0182736963033676
0.018908055499196
0.019515972584486
0.0200953818857669
0.0206399299204349
0.0211402177810668
0.0215854216367006
0.0219660606235265
0.0222755689173936
0.0225090347230434
0.0226608496159315
0.0227217711508274
0.022670954465866
0.0224618129432201
0.0220105908811092
0.0211970582604408
0.0198799576610326
0.0179250538349151
0.0152383297681808
0.0117946900427341
0.0076558962464332
0.0029737195000052
-0.0020244498737156
-0.0070650922134518
-0.0118650877848267
-0.0161670800298452
-0.0197682194411754
-0.0225380472838878
-0.0244233794510364
-0.0254427883774042
-0.025675181299448
-0.0252447146922349
-0.0243033990263938
-0.0230145286768674
-0.0215387810021638
-0.0200210511684417
-0.0185769330710172
-0.017281774431467
-0.0161657873541116
-0.0152163915336132
-0.0143866203725337
-0.0136070549488067
-0.0127987889572978
-0.0118860658258199
-0.0108074536547064
-0.009523807093501
-0.0080219507217407
-0.0063143013976514
-0.0044350894168019
-0.0024340455420315
-0.0003694386687129
0.0016982741653919
0.0037125733215361
0.0056259734556078
0.0074026202782988
0.009018893353641
0.0104629751294851
0.0117335524410009
0.0128377601504325
0.0137891080230474
0.0146058220416307
0.0153082972392439
0.0159156545996665
0.0164437666535377
0.0169051252305507
0.0173089820891618
0.017661178484559
0.0179636944085359
0.0182143989950418
0.0184074938297271
0.0185347218066453
0.0185875818133354
0.0185600016266107
0.018450204282999
0.0182608030736446
0.0179979987442493
0.0176712516695261
0.0172922331839799
0.0168728213757276
0.0164233297109603
0.0159479472786188
0.0154342437162995
0.0148402471095323
0.0140869030728936
0.013063222169876
0.0116453003138303
0.0097234323620796
0.0072300629690289
0.0041618449613451
0.0005896827206015
-0.0033458974212408
-0.0074521549977362
-0.0115098282694816
-0.0153014259412884
-0.0186369158327579
-0.0213737674057483
-0.023428676649928
-0.0247790478169918
-0.0254566017538309
-0.0255371630191802
-0.0251280181109905
-0.0243537351489067
-0.023343052715063
-0.0222179479897022
-0.0210836566984653
-0.0200196132063865
-0.0190739035606384
-0.0182625912129879
-0.0175725258886814
-0.0169669091701507
-0.0163932703435421
-0.0157923754304647
-0.0151072163134813
-0.0142912808805704
-0.0133140916004776
-0.0121631901711225
-0.0108438795432448
-0.0093777710571885
-0.0077997501939535
-0.0061532012186944
-0.0044845766387879
-0.0028390637598931
-0.0012577989837154
0.000225213880185
0.0015870581846684
0.0028177716303616
0.0039185704663395
0.0048992251977324
0.0057760435156524
0.0065688900649547
0.0072980574332177
0.0079826135188341
0.008639171719551
0.0092800315469503
0.0099113453179597
0.0105328820645809
0.0111393518745899
0.0117214899510145
0.0122669078409671
0.0127617223188281
0.0131924925372004
0.0135482251644134
0.0138221783563494
0.0140116997063159
0.0141164325177669
0.0141379088163375
0.0140801034867763
0.0139481760561466
0.0137458192184567
0.0134715996682643
0.0131118148565292
0.0126303732395172
0.011963072232902
0.0110238790512084
0.0097222430631518
0.007984303869307
0.0057730101980268
0.0031041176989674
5.340622738003731e-05
-0.0032482643146067
-0.0066310502588748
-0.0099090971052646
-0.0129046011716127
-0.0154679436236619
-0.0174923576414585
-0.0189224928617477
-0.0197552070021629
-0.0200340487062931
-0.0198407750576734
-0.0192847214639186
-0.0184898637235164
-0.0175805557519197
-0.0166683588176965
-0.0158419217914342
-0.0151593005284667
-0.0146431699395179
-0.0142814833670854
-0.0140331434085965
-0.013836364261806
-0.0136190960183739
-0.0133102294057607
-0.0128493988886475
-0.0121941873803734
-0.011323845013976
-0.0102391634136438
-0.008958913385868
-0.0075147496536374
-0.0059472443535923
-0.0043029240332543
-0.0026299036107957
-0.0009723016992211
0.0006337226368486
0.0021615019068121
0.0035943398252129
0.0049252780154347
0.0061552105471491
0.0072891511954367
0.0083332946524024
0.0092952139675617
0.0101848663762211
0.0110132601112127
0.0117897456511855
0.0125202201306819
0.0132064800709486
0.01384655572474
0.0144358538091182
0.0149685926735401
0.0154395289719104
0.0158454924821853
0.0161857493221759
0.0164613667875528
0.0166737511754035
0.016820590943098
0.01688714325428
0.0168351326137781
0.0165965147316455
0.0160785801708698
0.0151806827634572
0.0138167981058359
0.0119372755289077
0.0095460023730993
0.0067094434052705
0.0035539199598133
0.000251327175647
-0.0030036643147468
-0.0060206539928913
-0.0086378529667854
-0.0107382256537675
-0.0122569715604186
-0.0131818074733018
-0.0135477110743522
-0.0134277231991291
-0.0129215158522129
-0.0121438233181834
-0.0112127400934696
-0.0102375792339444
-0.0093086250126361
-0.0084901358932256
-0.0078163500875234
-0.0072912350296974
-0.0068919672630727
-0.0065741981379687
-0.006278411950916
-0.0059388736262917
-0.0054943095892667
-0.0048968084156513
-0.0041173584759235
-0.0031481776386499
-0.0020021051168441
-0.0007097329944372
0.0006852652877569
0.0021321978420019
0.0035798358730971
0.0049818600527942
0.0063003865070641
0.0075080199167132
0.0085893273353576
0.0095412079244852
0.0103703811764717
0.0110889635980129
0.0117107387632131
0.0122485216706991
0.0127129200845956
0.0131128132343292
0.0134558174759149
0.0137478429824113
0.013993052765727
0.0141942342743277
0.0143525302410125
0.014467429369688
0.0145377367734909
0.0145620554685592
0.01453841291368
0.0144645711407065
0.0143396900966763
0.0141655635088682
0.013945072889328
0.0136763453483581
0.0133415441960096
0.0128940474241971
0.012253813445568
0.0113163227215409
0.0099723814055323
0.0081336013972759
0.005756446160376
0.0028580054640769
-0.0004791314713656
-0.0041129495948553
-0.0078580044209957
-0.011509109288454
-0.0148685807362198
-0.0177708324044942
-0.0200991183519363
-0.0217927303165197
-0.0228456631302833
-0.0232990272343158
-0.0232304595410823
-0.022742735221982
-0.0219520851969718
-0.0209774374961853
-0.0199310518801212
-0.0189090054482221
-0.0179818850010633
-0.0171885658055543
-0.0165351834148168
-0.0159989483654499
-0.0155347799882292
-0.0150835802778601
-0.0145812286064028
-0.013966703787446
-0.0131895309314131
-0.0122168781235814
-0.011037734337151
-0.0096626169979572
-0.0081199342384934
-0.0064502703025937
-0.0047007049433887
-0.0029202005825936
-0.0011549000628292
0.0005558598786592
0.0021809928584843
0.0036976712290197
0.0050922562368214
0.0063615944236516
0.0075118597596883
0.0085549838840961
0.0095055736601352
0.0103791086003184
0.0111902840435504
0.0119508439674973
0.0126671725884079
0.0133392661809921
0.0139619875699281
0.0145278619602322
0.0150301996618509
0.0154647305607795
0.015829000622034
0.0161208715289831
0.0163380950689315
0.0164795964956283
0.0165465716272592
0.0165421944111585
0.0164710860699415
0.0163376592099666
0.0161400474607944
0.0158587079495191
0.0154442517086863
0.0148132368922233
0.0138574102893471
0.0124634820967912
0.0105375358834862
0.0080296508967876
0.0049533774144947
0.0013942564837634
-0.0024954099208116
-0.0065144002437591
-0.0104389041662216
-0.0140512930229306
-0.0171659495681524
-0.0196483675390481
-0.0214244946837425
-0.0224805474281311
-0.0228570867329835
-0.0226405002176761
-0.0219523664563894
-0.0209357421845197
-0.0197392385452985
-0.0185017473995685
-0.0173393245786428
-0.0163341574370861
-0.0155270108953118
-0.0149160884320735
-0.01446283608675
-0.014102098532021
-0.0137544618919491
-0.0133387353271245
-0.0127825187519192
-0.0120302829891443
-0.0110481241717934
-0.0098252929747104
-0.0083741005510091
-0.0067277108319103
-0.0049349055625498
-0.0030535678379237
-0.0011444091796875
0.0007349159568548
0.0025342288427054
0.0042132344096899
0.0057434597983956
0.0071096033789217
0.0083089787513017
0.0093496656045317
0.0102480426430702
0.0110259922221302
0.0117081440985202
0.0123187927529215
0.0128787355497479
0.0134030506014823
0.0138999056071043
0.0143707506358623
0.0148129630833864
0.0152233252301812
0.0155988577753305
0.0159355569630861
0.0162283815443515
0.0164725612848997
0.0166641622781753
0.0167988408356905
0.016867272555828
0.0168459508568048
0.0166856441646814
0.0163036603480577
0.0155866751447319
0.0144075900316238
0.0126538053154945
0.0102584445849061
0.0072243493050336
0.0036339601501822
-0.0003562393831089
-0.0045338189229369
-0.0086565185338258
-0.0124819204211235
-0.0157965905964374
-0.0184398777782917
-0.0203175619244575
-0.0214043576270341
-0.0217379871755838
-0.0214085709303617
-0.0205472540110349
-0.0193138141185045
-0.0178793091326951
-0.0164050813764333
-0.0150241795927286
-0.0138287032023072
-0.0128646101802587
-0.0121331689879298
-0.0115957111120224
-0.0111814960837364
-0.0108005665242671
-0.0103591959923505
-0.0097733009606599
-0.008978203870356
-0.0079356208443641
-0.0066370237618684
-0.0051017911173403
-0.0033718375489115
-0.001504567451775
0.000435855705291
0.0023865411058068
0.004290597513318
0.0061001554131507
0.007779249921441
0.009305260144174
0.0106682097539305
0.0118687283247709
0.0129156745970249
0.0138236843049526
0.0146100502461195
0.0152913425117731
0.015881635248661
0.0163926687091588
0.0168342757970094
0.0172142498195171
0.0175380576401948
0.0178088322281837
0.0180279947817325
0.0181963331997394
0.0183147322386503
0.0183839276432991
0.0184038802981376
0.0183732341974973
0.018286433070898
0.0181250162422657
0.0178441554307937
0.0173613857477903
0.0165560115128755
0.0152839785441756
0.0134059488773345
0.0108212567865848
0.007498460356146
0.0034931874834001
-0.0010509104467928
-0.0059162969700992
-0.0108380680903792
-0.0155386086553335
-0.0197623874992132
-0.0233033131808042
-0.0260215010493993
-0.0278504844754934
-0.0287968683987855
-0.0289330016821622
-0.0283828806132078
-0.0273039098829031
-0.0258676409721374
-0.024239158257842
-0.0225547906011343
-0.0209030620753765
-0.019315043464303
-0.0177670754492282
-0.0161965880542993
-0.0145272891968488
-0.0126946745440363
-0.0106639899313449
-0.0084388693794608
-0.0060622673481702
-0.0036097140982747
-0.0011756566818803
0.0011427830904722
0.0032598511315882
0.0051107658073306
0.0066574309021234
0.0078905327245593
0.0088267484679818
0.0095018530264496
0.0099624497815966
0.0102590657770633
0.0104416813701391
0.0105562210083007
0.0106415981426835
0.0107280183583498
0.0108363041654229
0.0109788998961448
0.0111629366874694
0.011393591761589
0.0116763673722743
0.0120183704420924
0.0124286049976944
0.0129171032458543
0.0134926065802574
0.0141590060666203
0.0149125102907419
0.0157406032085418
0.0166219770908355
0.0175276305526494
0.018423618748784
0.0192742403596639
0.0200444012880325
0.0207005776464939
0.0212091226130723
0.0215306505560874
0.0216110944747924
0.0213721878826618
0.0207075178623199
0.0194909907877445
0.017598308622837
0.0149357104673981
0.0114684225991368
0.0072413710877299
0.0023860586807131
-0.0028882529586553
-0.0083164507523179
-0.0136089203879237
-0.0184880774468183
-0.0227217487990856
-0.0261449515819549
-0.0286684222519397
-0.0302775576710701
-0.0310255028307437
-0.0310216024518013
-0.0304161813110113
-0.0293834805488586
-0.0281033590435981
-0.0267433188855648
-0.0254436060786247
-0.0243060309439897
-0.0233868826180696
-0.0226953327655792
-0.0221979059278965
-0.0218283496797084
-0.0215009339153766
-0.0211242120712995
-0.0206131171435117
-0.0198988728225231
-0.018935764208436
-0.0177036765962839
-0.0162074416875839
-0.0144744496792554
-0.012549877166748
-0.0104896444827318
-0.0083536123856902
-0.006199981085956
-0.0040803323499858
-0.0020363596267998
-9.885570034384727e-05
0.0017124383011832
0.0033890921622514
0.0049348431639373
0.0063678617589175
0.0077241472899913
0.0090597867965698
0.0104473009705543
0.011962397955358
0.0136641999706625
0.0155769381672143
0.0176800917834043
0.0199090875685215
0.0221643652766942
0.0243260636925697
0.026272177696228
0.0278965830802917
0.0291220471262931
0.0299053471535444
0.0302353613078594
0.0301250778138637
0.0295963194221258
0.0286586768925189
0.0272917300462722
0.0254419520497322
0.0230372473597526
0.0200117751955986
0.0163325201719999
0.0120225800201296
0.0071760667487978
0.0019589625298976
-0.0034062732011079
-0.0086681526154279
-0.0135773550719022
-0.0179142169654369
-0.021508865058422
-0.0242543369531631
-0.0261137038469314
-0.0271200444549322
-0.0273680798709392
-0.0270000249147415
-0.0261885821819305
-0.0251164659857749
-0.023954264819622
-0.0228429082781076
-0.0218827836215496
-0.0211268775165081
-0.0205780714750289
-0.0201931875199079
-0.0198939442634582
-0.0195828545838594
-0.0191610716283321
-0.0185435600578784
-0.0176684278994798
-0.0165009070187807
-0.0150334350764751
-0.0132834175601601
-0.0112903090193867
-0.0091116800904273
-0.0068179373629391
-0.0044865137897431
-0.0021952246315777
-1.5103258192539217e-05
0.0019961018115282
0.003799075493589
0.0053754085674881
0.0067268838174641
0.0078724790364503
0.0088435783982276
0.0096781738102436
0.0104157943278551
0.011093926616013
0.0117446277290582
0.0123908538371324
0.0130442837253212
0.0137053951621055
0.0143652027472853
0.0150087513029575
0.0156198050826787
0.0161840785294771
0.0166869238018989
0.0171027518808841
0.0173787903040647
0.0174212884157896
0.0170932468026876
0.016228649765253
0.0146621745079755
0.0122673567384481
0.0089927427470684
0.0048862351104617
0.0001007691025733
-0.0051203430630266
-0.010473933070898
-0.0156359560787677
-0.020301604643464
-0.0242197941988706
-0.0272163115441799
-0.0292031988501548
-0.0301763415336608
-0.0302049741148948
-0.0294159278273582
-0.0279750972986221
-0.0260681770741939
-0.0238816477358341
-0.0215847231447696
-0.019313521683216
-0.0171602461487054
-0.0151694100350141
-0.0133402217179536
