bvp
-0.008903014473617
-0.0094932131469249
-0.0095499837771058
-0.0091553702950477
-0.0084105795249342
-0.0074248947203159
-0.0063040321692824
-0.0051404628902673
-0.0040059741586446
-0.002946600317955
-0.0019817007705569
-0.0011074151843786
-0.0003025503829121
0.0004647774621844
0.0012310491874814
0.0020325640216469
0.002901766449213
0.003863806836307
0.0049332287162542
0.0061114844866096
0.0073852906934916
0.0087264673784375
0.0100949313491582
0.011444091796875
0.0127261271700263
0.0138958096504211
0.0149128921329975
0.0157438963651657
0.016363663598895
0.0167565215378999
0.0169173758476972
0.0168525967746973
0.016579657793045
0.0161252040416002
0.0155235212296247
0.0148158445954322
0.0140483044087886
0.0132682491093873
0.0125193130224943
0.0118354931473732
0.0112357679754495
0.0107184136286377
0.0102533195167779
0.0097762774676084
0.009191995486617
0.0083871278911829
0.0072497702203691
0.0056909299455583
0.0036636083386838
0.0011766962707042
-0.0016997358761727
-0.00484090577811
-0.0080834114924073
-0.0112464921548962
-0.0141546577215194
-0.0166575759649276
-0.0186437908560037
-0.0200470518320798
-0.0208467431366443
-0.0210646130144596
-0.0207583401352167
-0.020012080669403
-0.0189253613352775
-0.0176022220402956
-0.0161415673792362
-0.0146291609853506
-0.0131322778761386
-0.0116976602002978
-0.0103519223630428
-0.0091034444049
-0.0079456428065896
-0.0068616308271884
-0.0058294832706451
-0.0048270453698933
-0.003835889743641
-0.0028437790460884
-0.0018451026408001
-0.0008404834661632
0.0001632326748222
0.0011535915546119
0.0021151846740394
0.0030330943409353
0.0038952699396759
0.004693946801126
0.0054261069744825
0.0060927364975214
0.0066977608948946
0.0072475681081414
0.007750520016998
0.0082156518474221
0.0086508300155401
0.009060594253242
0.0094445878639817
0.0097978133708238
0.0101116867735981
0.0103747434914112
0.0105742271989583
0.0106984199956059
0.0107374638319015
0.0106821218505501
0.0105202933773398
0.0102307330816984
0.0097761750221252
0.0091009363532066
0.008136773481965
0.0068156444467604
0.0050860201008617
0.0029302961193025
0.0003786887973546
-0.0024866075254976
-0.0055385734885931
-0.0086192656308412
-0.0115564223378896
-0.0141817424446344
-0.0163491144776344
-0.0179499574005603
-0.0189227778464555
-0.0192555394023656
-0.0189824327826499
-0.0181770157068967
-0.0169425867497921
-0.0154010439291596
-0.0136817507445812
-0.0119119333103299
-0.0102092269808053
-0.00867535546422
-0.0073906164616346
-0.006410039961338
-0.0057612713426351
-0.0054447273723781
-0.0054363147355616
-0.0056910668499767
-0.0061477506533265
-0.0067352489568293
-0.0073797088116407
-0.0080112684518098
-0.0085682542994618
-0.0089979572221636
-0.009256818331778
-0.0093114580959081
-0.0091391801834106
-0.0087274117395281
-0.0080728260800242
-0.007181292399764
-0.0060685379430651
-0.0047600287944078
-0.0032900497317314
-0.0017006897833198
-3.9385631680488586e-05
0.001645533600822
0.0033088482450693
0.0049103000201284
0.0064139980822801
0.0077849780209362
0.0089830756187438
0.0099553801119327
0.0106315957382321
0.0109276082366704
0.0107578001916408
0.0100518139079213
0.0087710246443748
0.0069222492165863
0.0045662084594368
0.0018171377014368
-0.0011677262373268
-0.0042059812694787
-0.0071107978001236
-0.0097108539193868
-0.011865934357047
-0.0134755708277225
-0.0144818257540464
-0.0148692149668931
-0.014662779867649
-0.0139239095151424
-0.0127431889995932
-0.0112299108877778
-0.0094997566193342
-0.0076628122478723
-0.0058136684820055
-0.0040248306468129
-0.0023435242474079
-0.000791753642261
0.0006297482177615
0.0019354559481143
0.0031509408727288
0.0043104812502861
0.0054524578154087
0.0066114175133407
0.0078098331578075
0.009053261950612
0.0103297419846057
0.0116121219471097
0.0128624774515628
0.014037923887372
0.0150966364890336
0.0160025618970394
0.0167278237640857
0.0172537043690681
0.0175714660435915
0.017682634294033
0.0175987929105758
0.0173412095755338
0.0169391278177499
0.0164264906197786
0.0158384572714567
0.0152087491005659
0.0145674431696534
0.013937335461378
0.0133267575874924
0.0127187334001064
0.0120622552931308
0.0112747550010681
0.0102569721639156
0.0089136753231287
0.0071759219281375
0.0050216494128108
0.0024883528240025
-0.0003269561566412
-0.0032796971499919
-0.0061969836242496
-0.0088998107239604
-0.0112250298261642
-0.0130445268005132
-0.0142791727557778
-0.0149050969630479
-0.0149518307298421
-0.0144937895238399
-0.0136368218809366
-0.0125030595809221
-0.0112170586362481
-0.0098938979208469
-0.0086295409128069
-0.0074943271465599
-0.0065300413407385
-0.0057502840645611
-0.0051434999331831
-0.0046775285154581
-0.0043049128726124
-0.0039689159020781
-0.0036097336560487
-0.0031695505604147
-0.0025957180187106
-0.0018432177603244
-0.0008783666417002
0.0003163963556289
0.0017382698133587
0.0033616195432841
0.005138455890119
0.0070017320103943
0.0088707795366644
0.0106596704572439
0.0122875683009624
0.0136874709278345
0.0148109467700123
0.0156291350722312
0.0161318164318799
0.01632596924901
0.0162347331643104
0.0158972535282373
0.0153671074658632
0.0147069878876209
0.0139814531430602
0.0132496878504753
0.0125570548698306
0.0119246086105704
0.0113377822563052
0.0107381334528326
0.0100256726145744
0.0090765096247196
0.0077720885165035
0.0060309506952762
0.0038330315146595
0.0012294175103306
-0.0016631254693493
-0.0046786265447735
-0.0076250988058745
-0.0103109516203403
-0.0125695336610078
-0.0142777087166905
-0.015367129817605
-0.0158275626599788
-0.0157025568187236
-0.0150786340236663
-0.0140701169148087
-0.0128031112253665
-0.0114021180197596
-0.0099802948534488
-0.0086316568776965
-0.007424762006849
-0.0063997069373726
-0.005568322725594
-0.0049158129841089
-0.0044045825488865
-0.0039821239188313
-0.0035914368927478
-0.0031798765994608
-0.0027048159390687
-0.0021379918325692
-0.0014695115387439
-0.0007096498738974
0.0001128402072936
0.0009554207790642
0.0017685682978481
0.0025026374496519
0.0031141196377575
0.0035726954229176
0.0038676757831126
0.0040105446241796
0.0040325871668756
0.0039788042195141
0.003900219220668
0.003846189007163
0.0038566342554986
0.0039547327905893
0.0041427384130656
0.0044019538909196
0.0046953530982136
0.004970290698111
0.0051577999256551
0.0051696025766432
0.0048996810801327
0.0042348112910985
0.0030728699639439
0.0013445559889078
-0.0009674625471234
-0.0038172239437699
-0.0070948996581137
-0.0106370877474546
-0.0142450146377086
-0.0177068822085857
-0.0208213105797767
-0.0234183296561241
-0.0253742262721061
-0.0266187079250812
-0.0271360743790864
-0.0269623026251792
-0.0261780321598052
-0.0248986389487981
-0.0232626739889383
-0.0214180313050746
-0.0195071883499622
-0.0176542047411203
-0.0159539747983217
-0.014464053325355
-0.0132020013406872
-0.0121501879766583
-0.0112652163952589
-0.0104876346886157
-0.0097500663250684
-0.0089850928634405
-0.0081335995346307
-0.0071505289524793
-0.0060069588944315
-0.0046913539990782
-0.003210506401956
-0.0015873787924647
0.000144668854773
0.0019482653588056
0.0037860516458749
0.0056223678402602
0.0074254432693123
0.0091706924140453
0.0108427396044135
0.0124355796724557
0.0139512130990624
0.0153955705463886
0.0167695078998804
0.0180543921887874
0.0191973783075809
0.0201055817306041
0.0206556748598814
0.0207177847623825
0.0201857611536979
0.0190043412148952
0.0171870961785316
0.0148220816627144
0.0120631242170929
0.0091086579486727
0.0061748130246996
0.0034685996361076
0.0011644177138805
-0.0006126668304204
-0.0017948048189282
-0.0023717200383543
-0.0023852661252021
-0.0019192975014448
-0.0010876804590225
-2.233777195215225e-05
0.0011396901682019
0.0022702645510435
0.0032628811895847
0.004042443819344
0.0045717656612396
0.0048533217050135
0.004924644716084
0.0048484760336577
0.0047016371972858
0.0045652436092495
0.004514992237091
0.0046114781871438
0.0048941103741526
0.0053803506307303
0.0060674725100398
0.0069337752647697
0.0079404059797525
0.0090363780036568
0.0101663349196314
0.0112782977521419
0.0123289143666625
0.0132860969752073
0.0141296982765197
0.0148499384522438
0.0154444500803947
0.0159155502915382
0.0162685792893171
0.0165109522640705
0.0166497491300106
0.016684453934431
0.0165943205356597
0.0163265690207481
0.0157941579818725
0.01488674338907
0.0134922247380018
0.0115236239507794
0.0089455023407936
0.0057927668094635
0.0021759178489446
-0.0017278754385188
-0.0056947791017591
-0.0094816051423549
-0.0128563102334737
-0.0156266614794731
-0.0176614858210086
-0.0189011674374341
-0.0193579588085412
-0.0191084071993827
-0.0182799976319074
-0.0170333739370107
-0.0155428098514676
-0.0139788715168833
-0.0124943694099783
-0.011213406920433
-0.0102238869294524
-0.00957234762609
-0.0092615718021988
-0.0092538064345717
-0.0094799948856234
-0.0098523441702127
-0.0102762719616293
-0.0106595857068896
-0.0109208924695849
-0.0109975766390562
-0.0108495978638529
-0.01045857463032
-0.0098249008879065
-0.0089639583602547
-0.0079019125550985
-0.0066711781546473
-0.0053053554147481
-0.0038355535361915
-0.0022891862317919
-0.0006901568849571
0.0009402574505656
0.0025828862562775
0.0042209648527204
0.005839797668159
0.0074252537451684
0.008962357416749
0.0104346862062811
0.0118226511403918
0.0130969015881419
0.0142069505527615
0.0150718837976455
0.0155811421573162
0.0156082138419151
0.0150343403220176
0.0137757491320371
0.0118070365861058
0.009174920618534
0.0059996284544467
0.0024639167822897
-0.0012070739176124
-0.0047707529738545
-0.0079937614500522
-0.0106768934056162
-0.0126740019768476
-0.0139024835079908
-0.0143451914191246
-0.0140458466485142
-0.0131001137197017
-0.0116423573344945
-0.0098282657563686
-0.0078159999102354
-0.0057499832473695
-0.0037502162158489
-0.0019069424597546
-0.0002791137667372
0.0011039075907319
0.0022378754802048
0.0031379442662
0.0038326692301779
0.0043577682226896
0.0047503309324383
0.0050444705411791
0.0052680601365864
0.0054398160427808
0.0055678482167422
0.0056506358087062
0.0056794001720845
0.0056414576247334
0.005524962209165
0.0053236400708556
0.0050395596772432
0.0046834116801619
0.0042726891115307
0.0038288733921945
0.0033746506087481
0.0029318467713892
0.0025199358351528
0.002154036425054
0.00184325594455
0.0015899245627224
0.0013856766745448
0.0012012901715934
0.0009751138277351
0.0006087403744459
-2.5763176381587986e-05
-0.0010678842663764
-0.0026431302540004
-0.0048355078324675
-0.0076652839779853
-0.0110779451206326
-0.0149461235851049
-0.0190819445997476
-0.0232565179467201
-0.0272248871624469
-0.0307528767734766
-0.0336400158703327
-0.0357361957430839
-0.0369532071053981
-0.037269901484251
-0.0367290563881397
-0.035428125411272
-0.0335059016942977
-0.0311251319944858
-0.0284537188708782
-0.0256479792296886
-0.0228381641209125
-0.0201160293072462
-0.0175273492932319
-0.0150725878775119
-0.0127156460657715
-0.0103981187567114
-0.0080549912527203
-0.0056277234107255
-0.003073576837778
-0.0003718845546245
0.0024725310504436
0.00542972702533
0.0084497919306159
0.0114709353074431
0.0144283352419734
0.0172636359930038
0.0199325866997241
0.0224074684083461
0.0246758628636598
0.0267386399209499
0.0286068823188543
0.0302980225533247
0.0318328365683555
0.0332323797047138
0.0345130786299705
0.035680204629898
0.0367212817072868
0.0376002267003059
0.0382522642612457
0.0385818928480148
0.0384683161973953
0.0377802476286888
0.0363989025354385
0.0342449881136417
0.0313031263649463
0.0276373885571956
0.023393215611577
0.018784349784255
0.0140689043328166
0.0095199272036552
0.0053942585363984
0.0019054531585425
-0.0007944577373564
-0.0026247990317642
-0.0035788400564342
-0.0037191833835095
-0.003167008748278
-0.0020859660580754
-0.0006623016670346
0.0009144440991804
0.0024677533656358
0.0038486567791551
0.004948154091835
0.0057041803374886
0.006100992206484
0.0061627039685845
0.0059431204572319
0.0055133826099336
0.0049503277987241
0.0043272199109196
0.0037065255455672
0.0031349258497357
0.0026410049758851
0.0022355485707521
0.0019145621918141
0.0016647605225443
0.0014698123559355
0.0013157231733202
0.0011945609003305
0.0011056261137127
0.0010542664676904
0.0010498436167836
0.0011040307581424
0.0012291697785258
0.0014355313032865
0.0017269235104322
0.002096221782267
0.0025235079228878
0.0029779514297842
0.003423199057579
0.003824483603239
0.0041530281305313
0.0043842941522598
0.0044901575893163
0.0044274684041738
0.0041274707764387
0.0034909788519144
0.0023949891328811
0.0007150024175643
-0.0016420017927885
-0.0047069918364286
-0.0084309140220284
-0.0126828020438551
-0.0172627586871385
-0.021926051005721
-0.0264143049716949
-0.0304877087473869
-0.0339505411684513
-0.0366663634777069
-0.0385638773441314
-0.0396356619894504
-0.0399311371147632
-0.0395443812012672
-0.0385983139276504
-0.0372286401689052
-0.0355708301067352
-0.0337499752640724
-0.031871523708105
-0.0300132799893617
-0.0282206758856773
-0.0265063922852277
-0.024854976683855
-0.0232319608330726
-0.0215946584939956
-0.0199018958956003
-0.0181212536990642
-0.0162333007901906
-0.0142337046563625
-0.0121335219591856
-0.0099566243588924
-0.0077352691441774
-0.0055060647428035
-0.0033064370509237
-0.0011710345279425
0.0008714463328942
0.0028001442551612
0.0046022525057196
0.0062725623138248
0.0078131332993507
0.0092323748394846
0.0105431713163852
0.0117604015395045
0.0128985792398452
0.0139707271009683
0.0149882026016712
0.0159602612257003
0.0168929807841777
0.0177881196141242
0.0186433307826519
0.0194536205381155
0.020211573690176
0.0209048390388488
0.0215106233954429
0.0219869911670684
0.0222639348357915
0.0222415644675493
0.0218009147793054
0.0208254791796207
0.0192273147404193
0.0169713124632835
0.014091364108026
0.0106943259015679
0.0069507141597568
0.0030738394707441
-0.0007076215697452
-0.004176833666861
-0.0071511701680719
-0.0094978064298629
-0.0111419837921857
-0.0120688136667013
-0.0123198134824633
-0.0119841489940881
-0.0111849559471011
-0.0100628565996885
-0.0087590999901294
-0.0074008209630846
-0.0060902768746018
-0.004897769074887
-0.0038585104048252
-0.0029748128727078
-0.0022227922454476
-0.0015611560083925
-0.0009401203133165
-0.0003094039857387
0.0003754026256501
0.0011479519307613
0.0020272845868021
0.0030162348411977
0.0041020270437002
0.0052572260610759
0.0064423596486449
0.0076124304905533
0.0087251346558332
0.009747234173119
0.010658323764801
0.0114521784707903
0.0121356472373008
0.0127255208790302
0.0132436174899339
0.0137114319950342
0.0141465459018945
0.0145609760656952
0.014960940927267
0.0153478672727942
0.015719398856163
0.016069259494543
0.0163848921656608
0.0166413374245166
0.0167930293828248
0.0167683847248554
0.0164712723344564
0.0157916955649852
0.0146258985623717
0.0129020381718873
0.010604191571474
0.0077880029566586
0.004583491012454
0.001183096319437
-0.002182996366173
-0.0052787298336625
-0.007894474081695
-0.0098739555105566
-0.011132163926959
-0.0116613358259201
-0.0115240179002285
-0.0108374329283833
-0.0097551913931965
-0.0084489835426211
-0.0070913191884756
-0.0058407629840075
-0.004828717559576
-0.0041470499709248
-0.0038405698724091
-0.0039074891246855
-0.0043052774854004
-0.0049595930613577
-0.0057760141789913
-0.0066515766084194
-0.0074847303330898
-0.0081862667575478
-0.0086899073794484
-0.0089577259495854
-0.0089791342616081
-0.0087659880518913
-0.0083467438817024
-0.0077614788897335
-0.0070575713180005
-0.0062848385423421
-0.0054911663755774
-0.0047200936824083
-0.004009049385786
-0.0033867533784359
-0.0028706290759146
-0.0024662241339683
-0.0021686633117496
-0.0019649625755846
-0.0018376451916992
-0.0017690546810626
-0.001744516659528
-0.0017539989203214
-0.0017923102714121
-0.0018579727038741
-0.0019519939087331
-0.0020787781104445
-0.0022521410137414
-0.0025061494670808
-0.0029040316585451
-0.0035375216975808
-0.0045135202817618
-0.0059302165172994
-0.0078499978408217
-0.0102772451937198
-0.0131463082507252
-0.0163228567689657
-0.0196187384426593
-0.022816676646471
-0.0256989933550357
-0.0280743092298507
-0.0297979302704334
-0.0307845808565616
-0.031013760715723
-0.0305273290723562
-0.0294191874563694
-0.027820574119687
-0.0258847530931234
-0.0237708538770675
-0.0216259993612766
-0.0195689015090465
-0.0176786985248327
-0.0159890241920948
-0.014487269334495
-0.0131208160892128
-0.0118095111101865
-0.0104620680212974
-0.0089942514896392
-0.0073435939848423
-0.0054762512445449
-0.0033873934298753
-0.0010977685451507
0.0013526044785976
0.0039122514426708
0.0065265800803899
0.0091458745300769
0.0117300637066364
0.0142483254894614
0.0166763924062252
0.0189953818917274
0.0211918279528617
0.0232573579996824
0.0251890923827886
0.0269908905029296
0.028672456741333
0.030245067551732
0.0317162275314331
0.0330862440168857
0.0343476049602031
0.0354861915111541
0.0364843048155307
0.0373255051672458
0.0379992723464965
0.0385032668709754
0.0388420224189758
0.0390209853649139
0.0390353873372077
0.0388564355671405
0.0384208187460899
0.037631306797266
0.0363726429641246
0.0345376804471015
0.0320548824965953
0.0289115123450756
0.0251678079366683
0.0209576860070228
0.0164755936712026
0.0119531583040952
0.0076304995454847
0.0037284919526427
0.00042763678357
-0.0021445390302687
-0.0039189774543046
-0.004886195063591
-0.0050941938534379
-0.0046422071754932
-0.0036707532126456
-0.0023492819163948
-0.0008604424074292
0.0006190107669681
0.0019367535132914
0.0029789600521326
0.0036789942532777
0.0040206420235335
0.004035027232021
0.0037906821817159
0.0033782147802412
0.0028929552063345
0.0024189376272261
0.0020174188539385
0.001722352579236
0.0015415698289871
0.001460644416511
0.0014489041641354
0.0014671431854367
0.0014748610556125
0.0014370158314704
0.0013301307335495
0.0011446801945567
0.0008831862360239
0.0005565471947193
0.0001807678490877
-0.0002247244119644
-0.0006385203450918
-0.0010402891784906
-0.0014143530279397
-0.0017517153173685
-0.0020500309765338
-0.00231165997684
-0.0025414302945137
-0.0027467533946037
-0.0029397513717412
-0.0031391028314828
-0.0033731441944837
-0.0036879833787679
-0.0041578151285648
-0.0048874914646148
-0.0060008969157934
-0.0076175481081008
-0.0098233446478843
-0.0126424543559551
-0.0160203948616981
-0.0198252983391284
-0.0238641519099473
-0.0279060453176498
-0.0317082665860652
-0.0350434221327304
-0.037723358720541
-0.0396154336631298
-0.0406509712338447
-0.040827564895153
-0.040205180644989
-0.0388966724276542
-0.0370541885495185
-0.034851923584938
-0.0324671305716037
-0.0300622098147869
-0.0277701336890459
-0.0256856214255094
-0.023861825466156
-0.0223102830350399
-0.0210051126778125
-0.0198927465826272
-0.0189045034348964
-0.0179691668599843
-0.0170241575688123
-0.0160227604210376
-0.0149361044168472
-0.0137518867850303
-0.0124722849577665
-0.0111117968335747
-0.0096948556602001
-0.0082530071958899
-0.0068210633471608
-0.0054323035292327
-0.0041140303947031
-0.0028838401194661
-0.0017466318095102
-0.0006942474283277
0.0002920234110206
0.0012379549443721
0.0021721411030739
0.0031215669587254
0.004108355846256
0.0051466776058077
0.0062396745197474
0.0073784897103905
0.0085421651601791
0.0096941459923982
0.0107746794819831
0.0116939516738057
0.0123318936675786
0.012547287158668
0.01219670381397
0.0111621785908937
0.0093818167224526
0.0068739531561732
0.0037462408654391
0.0001866575330495
-0.0035597532987594
-0.0072228154167532
-0.010541345924139
-0.0132914651185274
-0.0153050785884261
-0.0164797902107238
-0.0167818777263164
-0.0162431672215461
-0.0149526055902242
-0.013043725863099
-0.0106794890016317
-0.0080350395292043
-0.0052784513682127
-0.0025515612214803
4.464760422706604e-05
0.0024560429155826
0.004672722890973
0.0067204628139734
0.008648520335555
0.0105166230350732
0.012383634224534
0.0142973354086279
0.0162857808172702
0.0183534212410449
0.0204823613166809
0.0226366259157657
0.0247685238718986
0.0268256235867738
0.0287556461989879
0.0305088441818952
0.0320407710969448
0.0333169288933277
0.0343166142702102
0.0350338332355022
0.0354762226343154
0.0356626771390438
0.035619594156742
0.035376813262701
0.0349644906818866
0.0344115868210792
0.0337457954883575
0.0329934917390346
0.0321794301271438
0.0313269421458244
0.0304583124816417
0.0295941270887851
0.0287505090236663
0.0279341861605644
0.02713543176651
0.0263174716383218
0.0254049394279718
0.0242793653160333
0.0227874815464019
0.0207630917429924
0.0180597733706235
0.0145873101428151
0.0103415865451097
0.0054186326451599
8.062692359089851e-06
-0.005631576757878
-0.0112073868513107
-0.0164286829531192
-0.0210395622998476
-0.0248429831117391
-0.027714617550373
-0.0296067632734775
-0.0305443778634071
-0.0306159872561693
-0.0299604665488004
-0.0287507027387619
-0.0271755345165729
-0.0254202932119369
-0.0236469060182571
-0.0219766851514577
-0.0204800032079219
-0.019175486639142
-0.0180372856557369
-0.0170064195990562
-0.0160034075379371
-0.0149413896724581
-0.0137394368648529
-0.0123342936858534
-0.0106882099062204
-0.008793706074357
-0.0066757281310856
-0.0043879942968487
-0.0020040310919284
0.0003924830816686
0.002716617193073
0.0048905848525464
0.0068506728857755
0.0085520707070827
0.0099710449576377
0.0111040445044636
0.0119643360376358
0.0125772636383771
0.012975625693798
0.0131957316771149
0.0132729727774858
0.0132381338626146
0.0131164137274026
0.0129282595589756
0.0126910135149955
0.0124205341562628
0.01213208027184
0.0118405288085341
0.0115592284128069
0.0112985773012042
0.0110655231401324
0.0108585637062788
0.0106533821672201
0.0103862071409821
0.0099478513002395
0.0091935098171234
0.0079657435417175
0.0061259921640157
0.0035873856395483
0.0003402177244424
-0.0035362942144274
-0.0078791622072458
-0.012461369857192
-0.0170200802385807
-0.0212879106402397
-0.0250231474637985
-0.0280347988009452
-0.0301989670842885
-0.0314656943082809
-0.0318580418825149
-0.0314637050032615
-0.0304200872778892
-0.028896227478981
-0.0270736515522003
-0.025127051398158
-0.023206427693367
-0.0214227382093668
-0.0198403596878051
-0.0184774920344352
-0.0173113700002431
-0.0162864681333303
-0.0153268333524465
-0.0143514648079872
-0.0132885817438364
-0.0120850298553705
-0.0107101639732718
-0.009156234562397
-0.007436353713274
-0.0055797277018427
-0.0036249267868697
-0.0016138474456965
0.0004114368930459
0.002410422777757
0.0043460261076688
0.0061850659549236
0.0078973900526762
0.0094552561640739
0.0108327362686395
0.0120051680132746
0.0129507863894104
0.013654307462275
0.0141095351427793
0.0143203642219305
0.0143012907356023
0.014077641069889
0.0136839030310511
0.0131589407101273
0.0125407157465815
0.0118632651865482
0.0111540425568819
0.0104280263185501
0.0096774864941835
0.0088593652471899
0.0078863631933927
0.0066305492073297
0.0049432469531893
0.0026873936876654
-0.0002255733124911
-0.0038058217614889
-0.0079715782776474
-0.012552292086184
-0.0173058994114398
-0.0219480488449335
-0.0261873379349708
-0.0297593735158443
-0.0324546247720718
-0.0341375917196273
-0.0347571484744548
-0.0343470312654972
-0.0330155789852142
-0.0309291388839483
-0.0282940454781055
-0.0253360625356435
-0.0222757495939731
-0.0193036198616027
-0.0165616944432258
-0.0141339180991053
-0.0120433764532208
-0.0102563928812742
-0.0086946245282888
-0.0072517152875661
-0.0058108093217015
-0.0042620236054062
-0.0025175139307975
-0.000521371141076
0.0017456766217947
0.0042661745101213
0.0069903414696455
0.0098444372415542
0.0127420304343104
0.0155962090939283
0.0183298997581005
0.0208819564431905
0.0232093334197998
0.0252871625125408
0.0271077249199152
0.0286789964884519
0.030022045597434
0.0311656296253204
0.0321402177214622
0.0329743064939975
0.0336916483938694
0.0343082398176193
0.0348302386701107
0.0352538302540779
0.0355671048164367
0.0357526391744613
0.0357899889349937
0.0356577634811401
0.0353319570422172
0.0347765274345874
0.0339293703436851
0.0326940342783927
0.0309441983699798
0.0285416394472122
0.0253664031624794
0.0213527902960777
0.0165191497653722
0.0109816715121269
0.0049488614313304
-0.0013013043208047
-0.0074559589847922
-0.0132065378129482
-0.0182844754308462
-0.0224862247705459
-0.0256858766078948
-0.0278382077813148
-0.0289747733622789
-0.0291937869042158
-0.0286450944840908
-0.0275120716542005
-0.0259908474981784
-0.0242697335779666
-0.0225134249776601
-0.0208518505096435
-0.0193719416856765
-0.0181136056780815
-0.0170712079852819
-0.0162000842392444
-0.0154273705556988
-0.014665906317532
-0.0138290729373693
-0.0128443781286478
-0.0116634611040353
-0.0102664977312088
-0.0086609907448291
-0.0068769287317991
-0.0049605453386902
-0.0029677073471248
-0.0009567076340317
0.0010189013555645
0.0029155833180993
0.004702050704509
0.0063591036014258
0.0078790504485368
0.0092650651931762
0.0105291809886693
0.0116897076368331
0.0127694718539714
0.0137932430952787
0.0147834224626421
0.0157560966908931
0.0167179629206657
0.0176639594137668
0.0185777060687541
0.0194358173757791
0.0202140007168054
0.0208922084420919
0.0214569307863712
0.0218972023576498
0.0221909191459417
0.0222857557237148
0.0220872052013874
0.0214629340916872
0.0202633664011955
0.0183545816689729
0.0156566277146339
0.0121746659278869
0.0080123422667384
0.0033655958250164
-0.0015002498403191
-0.0062859137542545
-0.010698459111154
-0.0144874574616551
-0.0174703896045684
-0.0195438452064991
-0.0206824149936437
-0.0209312550723552
-0.0203954987227916
-0.019226873293519
-0.0176079701632261
-0.0157343670725822
-0.0137956850230693
-0.0119578931480646
-0.0103486813604831
-0.0090476358309388
-0.0080834981054067
-0.0074386755004525
-0.0070580588653683
-0.0068602846004068
-0.0067512448877096
-0.0066376300528645
-0.0064375102519989
-0.0060876123607158
-0.0055480562150478
-0.0048039071261882
-0.0038633802905678
-0.0027541168965399
-0.0015176739543676
-0.000202752649784
0.0011401362717151
0.0024624671787023
0.0037215333431959
0.0048831477761268
0.0059221349656581
0.0068220254033803
0.007575080730021
0.0081817340105772
0.0086485026404261
0.0089855752885341
0.0092055015265941
0.0093223433941602
0.0093502942472696
0.0093016428872942
0.0091849518939852
0.0090042715892195
0.0087573891505599
0.0084300758317112
0.0079857502132654
0.0073546580970287
0.0064303502440452
0.0050794593989849
0.0031656604260206
0.0005828998982906
-0.002712057903409
-0.0066779619082808
-0.0111837582662701
-0.0160203054547309
-0.02092638425529
-0.025622634217143
-0.0298451539129018
-0.0333726778626441
-0.0360457189381122
-0.0377782471477985
-0.0385618358850479
-0.0384617410600185
-0.037604946643114
-0.0361624136567115
-0.0343285948038101
-0.0322998613119125
-0.0302536524832248
-0.0283311065286397
-0.026624584570527
-0.0251711495220661
-0.0239543877542018
-0.0229148212820291
-0.0219650287181139
-0.0210054945200681
-0.0199397765100002
-0.0186880528926849
-0.0171970799565315
-0.0154451970010995
-0.013442306779325
-0.0112256640568375
-0.0088526476174592
-0.0063915019854903
-0.0039117773994803
-0.0014766855165362
0.0008624447509646
0.0030701272189617
0.0051280921325087
0.0070338798686861
0.008797955699265
0.0104396482929587
0.0119814742356538
0.0134437456727027
0.0148428808897733
0.0161927118897438
0.017505070194602
0.0187887605279684
0.0200477577745914
0.0212767291814088
0.0224501006305217
0.0235055480152368
0.0243330039083957
0.0247815884649753
0.0246843472123146
0.0238925144076347
0.0223123114556074
0.0199354011565446
0.0168528538197278
0.0132490908727049
0.009378763847053
0.0055324165150523
0.0019986182451248
-0.0009707808494567
-0.0031873043626546
-0.0045408327132463
-0.0050028245896101
-0.0046205110847949
-0.003504741936922
-0.0018136613070964
0.000266084447503
0.0025393478572368
0.0048223491758108
0.0069606993347406
0.0088431127369403
0.0104089519008994
0.0116495722904801
0.0126040456816554
0.0133493393659591
0.0139855984598398
0.0146192926913499
0.0153478058055043
0.0162475518882274
0.0173660796135664
0.018717773258686
0.0202833451330661
0.0220142155885696
0.023841381072998
0.0256857089698314
0.02746700681746
0.0291116721928119
0.0305581297725439
0.0317592583596706
0.032683715224266
0.0333171784877777
0.0336615778505802
0.0337320417165756
0.0335534587502479
0.0331571400165557
0.0325769074261188
0.0318449735641479
0.0309892147779464
0.0300334468483924
0.0289991684257984
0.0279055163264274
0.0267671514302492
0.025590430945158
0.0243655070662498
0.0230529345571994
0.0215698219835758
0.0197862107306718
0.0175397135317325
0.0146677233278751
0.0110485684126615
0.0066384058445692
0.0014929994940757
-0.0042299665510654
-0.010287788696587
-0.016384869813919
-0.0222134869545698
-0.0274952743202447
-0.032013613730669
-0.0356307327747345
-0.038292147219181
-0.0400232039391994
-0.0409183427691459
-0.0411239005625247
-0.0408179312944412
-0.0401897095143795
-0.0394202135503292
-0.0386652499437332
-0.0380420461297035
-0.0376190356910228
-0.0374109633266925
-0.0373823419213295
-0.0374584831297397
-0.0375401824712753
-0.0375185385346412
-0.0372885912656784
-0.0367615148425102
-0.0358745008707046
-0.0345974490046501
-0.0329349637031555
-0.0309229549020528
-0.0286219269037246
-0.0261089727282524
-0.0234685502946376
-0.0207835026085376
-0.0181284546852111
-0.0155648915097117
-0.0131375305354595
-0.0108736706897616
-0.008785406127572
-0.0068731191568076
-0.0051294881850481
-0.0035426176618784
-0.0020982364658266
-0.0007824427448213
0.0004164716228842
0.0015086443163454
0.0025035680737346
0.0034099088516086
0.0042349738068878
0.0049851494841277
0.0056678792461752
0.0062925671227276
0.0068662320263683
0.0073814457282423
0.0077998610213398
0.008040664717555
0.0079821655526757
0.0074807163327932
0.0064047640189528
0.0046731829643249
0.0022853638511151
-0.000665056053549
-0.0039960243739187
-0.0074599590152502
-0.0107763651758432
-0.013667220249772
-0.015890184789896
-0.0172639582306146
-0.0176821704953908
-0.0171177871525287
-0.0156210232526063
-0.0133111020550131
-0.010362678207457
-0.0069873519241809
-0.0034102005884051
0.0001546470448374
0.0035244049504399
0.0065627647563815
0.0091897752135992
0.0113851968199014
0.0131838517263531
0.014663384296
0.0159268509596586
0.0170837547630071
0.0182336345314979
0.0194547940045595
0.0207978580147027
0.0222832914441823
0.0239030476659536
0.0256261304020881
0.0274058990180492
0.0291868429630994
0.0309111233800649
0.0325243920087814
0.0339788347482681
0.0352350063621997
0.0362643487751483
0.0370505824685096
0.0375885292887687
0.0378816574811935
0.0379397198557853
0.0377759486436843
0.0374044924974441
0.0368400774896144
0.0360982976853847
0.035195130854845
0.0341470837593078
0.0329717323184013
0.0316872037947177
0.0303095411509275
0.0288453884422779
0.0272793974727392
0.0255621429532766
0.0236055981367826
0.0212907902896404
0.0184900853782892
0.0150997294113039
0.0110725499689579
0.0064411275088787
0.0013246219605207
-0.0040822979062795
-0.0095342621207237
-0.0147673729807138
-0.0195319447666406
-0.0236198659986257
-0.0268834419548511
-0.0292453616857528
-0.0307008046656847
-0.0313127338886261
-0.0312013626098632
-0.0305285472422838
-0.0294786691665649
-0.0282385349273681
-0.0269775819033384
-0.0258302316069602
-0.0248842965811491
-0.0241777226328849
-0.0237030312418937
-0.0234169457107782
-0.0232521332800388
-0.0231291372328996
-0.0229674465954303
-0.022696005180478
-0.0222629774361848
-0.0216417368501424
-0.0208317153155803
-0.0198565851897001
-0.0187599975615739
-0.0175973903387784
-0.0164263192564249
-0.0152985686436295
-0.0142551269382238
-0.0133242961019277
-0.012521356344223
-0.0118481032550334
-0.0112940352410078
-0.0108396932482719
-0.0104592964053154
-0.0101226270198822
-0.0097982939332723
-0.0094575304538011
-0.0090766064822673
-0.0086378818377852
-0.0081305876374244
-0.0075516095384955
-0.0069055845960974
-0.0062041697092354
-0.005463748704642
-0.0047014099545776
-0.0039328602142632
-0.0031772255897521
-0.0024692886509001
-0.0018728859722614
-0.0014868509024381
-0.0014386852271854
-0.0018653543666005
-0.0028841597959399
-0.0045609474182128
-0.0068855448625981
-0.0097623262554407
-0.013018088415265
-0.0164237935096025
-0.0197248011827468
-0.0226740725338459
-0.0250610969960689
-0.0267310813069343
-0.0275945737957954
-0.0276287589222192
-0.0268712602555751
-0.0254093315452337
-0.0233662724494934
-0.020884945988655
-0.018110666424036
-0.0151772461831569
-0.0121989054605364
-0.0092681050300598
-0.0064559299498796
-0.0038124322891235
-0.0013669496402144
0.000871636904776
0.0029136342927813
0.0047850618138909
0.0065227560698986
0.0081688351929187
0.0097655020654201
0.0113516226410865
0.0129608493298292
0.0146198142319917
0.0163458846509456
0.0181460380554199
0.0200176239013671
0.0219486244022846
0.0239162743091583
0.0258874595165252
0.0278225932270288
0.0296796988695859
0.0314170904457569
0.0329968035221099
0.0343889035284519
0.0355744436383247
0.0365465953946113
0.0373101085424423
0.0378789156675338
0.0382730737328529
0.0385158956050872
0.0386306531727314
0.0386374369263649
0.0385513603687286
0.0383811742067337
0.0381275974214077
0.0377832911908626
0.0373356156051158
0.0367704555392265
0.0360743440687656
0.0352326221764087
0.0342235639691352
0.033009834587574
0.0315298065543174
0.0296951327472925
0.027401678264141
0.0245544202625751
0.0210983790457248
0.0170431789010763
0.0124734016135334
0.0075438152998685
0.0024612350389361
-0.0025428831577301
-0.0072420393116772
-0.011440479196608
-0.0149922091513872
-0.0178115405142307
-0.0198752619326114
-0.0212187618017196
-0.0219277739524841
-0.0221255160868167
-0.0219564158469438
-0.0215700045228004
-0.0211065169423818
-0.0206834524869918
-0.0203846376389265
-0.0202550664544105
-0.0203020237386226
-0.0205006841570138
-0.0208021327853202
-0.0211415328085422
-0.0214454513043165
-0.0216394774615764
-0.021657045930624
-0.0214486215263605
-0.0209885034710168
-0.0202773679047822
-0.0193414520472288
-0.0182297583669424
-0.0170088410377502
-0.0157544948160648
-0.0145418727770447
-0.0134365959092974
-0.0124877952039241
-0.0117235444486141
-0.0111493831500411
-0.0107497107237577
-0.0104916263371706
-0.0103303585201501
-0.0102152172476053
-0.0100957620888948
-0.0099277794361114
-0.0096778897568583
-0.0093254540115594
-0.0088621601462364
-0.0082910768687725
-0.0076249726116657
-0.0068838652223348
-0.0060940491966903
-0.005287810228765
-0.0044998815283179
-0.0037607992999255
-0.0030925837345421
-0.0025104950182139
-0.0020303330384194
-0.0016793352551758
-0.0015062903985381
-0.0015840046107769
-0.0020002354867756
-0.0028388644568622
-0.0041568782180547
-0.0059644463472068
-0.0082138981670141
-0.0107995755970478
-0.0135678146034479
-0.0163351502269506
-0.0189114101231098
-0.021122520789504
-0.0228286944329738
-0.0239365678280591
-0.0244051776826381
-0.0242464207112789
-0.0235207248479127
-0.0223275274038314
-0.0207915157079696
-0.0190472975373268
-0.0172231718897819
-0.0154246054589748
-0.0137213319540023
-0.0121413879096508
-0.0106717869639396
-0.0092657040804624
-0.007856604643166
-0.0063759991899132
-0.0047687944024801
-0.0030027292668819
-0.0010715164244174
0.0010074954479932
0.0031991768628358
0.0054575409740209
0.0077325468882918
0.0099761448800563
0.0121462736278772
0.0142083875834941
0.0161354839801788
0.0179079063236713
0.0195137429982423
0.0209497027099132
0.0222219005227088
0.0233451649546623
0.0243405476212501
0.0252327304333448
0.0260470062494277
0.0268049091100692
0.02752036601305
0.0281987842172384
0.0288391672074794
0.0294375978410244
0.0299897976219654
0.0304915532469749
0.0309379212558269
0.0313225015997886
0.0316370837390422
0.0318700522184371
0.0320008248090744
0.0319903790950775
0.0317723974585533
0.0312514528632164
0.0303118415176868
0.028836190700531
0.0267300046980381
0.0239469222724437
0.0205084141343832
0.0165117215365171
0.0121229635551571
0.0075572887435555
0.003051079576835
-0.0011679641902446
-0.0049075470305979
-0.0080295028164982
-0.0104574430733919
-0.012175178155303
-0.0132203307002782
-0.0136757604777812
-0.0136586353182792
-0.0133058559149503
-0.0127578051760792
-0.0121440459042787
-0.0115708671510219
-0.0111109176650643
-0.0107990847900509
-0.0106362821534276
-0.0105974934995174
-0.0106398668140172
-0.0107095669955015
-0.0107485298067331
-0.0107016423717141
-0.0105230063199996
-0.0101799666881561
-0.0096552083268761
-0.0089486092329025
-0.0080782063305377
-0.0070770597085356
-0.0059863561764359
-0.0048483572900295
-0.0037007364444434
-0.0025731651112437
-0.0014871775638312
-0.0004571534227579
0.0005097661633044
0.0014136834070086
0.002261089393869
0.0030632708221673
0.003833242226392
0.0045815967023372
0.0053138202056288
0.006030844990164
0.0067309867590665
0.0074102380312979
0.0080608902499079
0.0086706792935729
0.0092241438105702
0.0097058480605483
0.0101034715771675
0.0104095228016376
0.0106213632971048
0.0107389651238918
0.0107585377991199
0.0106603577733039
0.0103949047625064
0.0098766386508941
0.008992563933134
0.0076252338476479
0.0056828781962394
0.0031271465122699
-9.55350697040558e-06
-0.0036206119693815
-0.0075346445664763
-0.0115364454686641
-0.0153963807970285
-0.0189007520675659
-0.0218754597008228
-0.0241993181407451
-0.025808148086071
-0.0266930572688579
-0.0268947277218103
-0.0264939293265342
-0.0255987308919429
-0.0243296548724174
-0.0228052828460931
-0.0211307313293218
-0.0193901881575584
-0.0176433138549327
-0.0159252025187015
-0.0142500326037406
-0.0126172313466668
-0.0110177556052804
-0.0094385854899883
-0.0078644584864377
-0.0062784603796899
-0.0046648681163787
-0.0030141784809529
-0.0013271260540932
0.0003834550734609
0.0020935151260346
0.0037729560863226
0.005392394028604
0.0069265170022845
0.0083543676882982
0.0096597727388143
0.0108322240412235
0.0118673909455537
0.0127670364454388
0.0135377338156104
0.0141889536753296
0.0147325713187456
0.0151834050193429
0.0155581915751099
0.0158735513687133
