bvp
-0.0080704316496849
-0.0068939295597374
-0.0058041852898895
-0.0048134387470781
-0.0039145220071077
-0.0030860952101647
-0.0022980524227023
-0.0015160697512328
-0.0007063141092658
0.0001600626856088
0.0011036857031285
0.002134898211807
0.0032528317533433
0.0044450522400438
0.0056882910430431
0.0069516990333795
0.0082013038918375
0.0094039132818579
0.0105304718017578
0.0115584898740053
0.0124733261764049
0.0132687613368034
0.0139468442648649
0.014516782015562
0.0149931274354457
0.0153932906687259
0.0157336704432964
0.0160244964063167
0.0162638779729604
0.0164313577115535
0.0164830479770898
0.0163524523377418
0.0159598924219608
0.015229694545269
0.014109811745584
0.0125872222706675
0.0106957303360104
0.0085156662389636
0.0061659552156925
0.0037901219911873
0.0015384703874588
-0.0004502963274717
-0.0020641302689909
-0.0032276259735226
-0.0039069512858986
-0.0041095791384577
-0.0038799121975898
-0.0032923202961683
-0.0024419641122221
-0.0014344966039061
-0.0003758780658245
0.0006382688879966
0.0015337886288762
0.0022661425173282
0.0028220564126968
0.003215312026441
0.0034799613058567
0.0036633089184761
0.0038193613290786
0.0040027471259236
0.0042634857818484
0.0046428507193923
0.0051693329587578
0.0058542555198073
0.0066884346306324
0.007641295902431
0.0086624352261424
0.0096857361495494
0.0106373047456145
0.0114461034536361
0.0120527148246765
0.0124147124588489
0.0125113343819975
0.0123474122956395
0.0119531797245144
0.0113792764022946
0.0106894308701157
0.009952263906598
0.009233022108674
0.0085872169584035
0.0080569554120302
0.0076686898246407
0.0074303969740867
0.0073265177197754
0.0073125357739627
0.0073146307840943
0.00723711354658
0.0069764493964612
0.0064401635900139
0.0055664735846221
0.0043380581773817
0.0027870151679962
0.0009918846189975
-0.0009329267777502
-0.0028535854071378
-0.0046352953650057
-0.0061591062694787
-0.007333714980632
-0.008101531304419
-0.008440650999546
-0.0083633549511432
-0.0079124011099338
-0.0071561499498784
-0.0061809956096112
-0.0050812107510864
-0.0039489124901592
-0.0028653475455939
-0.001893117558211
-0.0010701895225793
-0.0004075402393937
0.0001088203862309
0.0005113293882459
0.0008415458723902
0.0011423514224588
0.0014532000059261
0.001806165324524
0.0022230250760912
0.0027147226501256
0.0032810624688863
0.0039101988077163
0.0045809270814061
0.0052668498829007
0.005939763970673
0.0065736072137951
0.007149155717343
0.0076564182527363
0.008093754760921
0.0084657575935125
0.0087809599936008
0.009048948995769
0.0092769609764218
0.0094663929194211
0.009611289948225
0.0096995513886213
0.0097134597599506
0.0096290586516261
0.0094176838174462
0.0090484824031591
0.0084870997816324
0.007690580561757
0.0066048027947545
0.0051705064252018
0.0033378973603248
0.0010836701840162
-0.0015766592696309
-0.0045838551595807
-0.0078369360417127
-0.0112017719075083
-0.0145252104848623
-0.0176518838852643
-0.0204407796263694
-0.0227787941694259
-0.0245897062122821
-0.02583734318614
-0.0265226643532514
-0.02667872980237
-0.026365827769041
-0.0256646461784839
-0.0246675200760364
-0.023469740524888
-0.0221610218286514
-0.0208169519901275
-0.0194924939423799
-0.0182195715606212
-0.0170081425458192
-0.0158491674810647
-0.0147193409502506
-0.0135876638814806
-0.0124220084398984
-0.0111937457695603
-0.0098808063194155
-0.0084702782332897
-0.0069598862901329
-0.0053578317165374
-0.0036818117368966
-0.0019572812598198
-0.0002150097861886
0.0015114420093595
0.0031884568743407
0.0047852974385023
0.0062770596705377
0.0076472056098282
0.0088890492916107
0.0100062927231192
0.0110116889700293
0.0119226910173892
0.0127564752474427
0.013526969589293
0.0142418332397937
0.0148970782756805
0.0154707841575145
0.0159183051437139
0.0161703377962112
0.0161358397454023
0.0157122630625963
0.0148028973489999
0.0133376689627766
0.0112914927303791
0.0086944196373224
0.0056323301978409
0.0022404044866561
-0.0013089611893519
-0.0048231622204184
-0.0081107905134558
-0.0110035212710499
-0.013372260145843
-0.0151356905698776
-0.01626274921
-0.016770165413618
-0.0167159065604209
-0.0161894839257001
-0.0153007861226797
-0.0141684878617525
-0.012907950207591
-0.0116191525012254
-0.0103758322075009
-0.0092189097777009
-0.0081568798050284
-0.0071710105985403
-0.006222166121006
-0.005259427241981
-0.0042306818068027
-0.003093029372394
-0.0018208948895335
-0.0004103165119886
0.0011218469589948
0.0027433661743998
0.0044138012453913
0.0060901697725057
0.0077301529236137
0.0092933652922511
0.0107427891343832
0.0120478961616754
0.0131875406950712
0.0141517929732799
0.0149428080767393
0.0155724976211786
0.0160563066601753
0.0164041742682456
0.0166092067956924
0.0166374556720256
0.0164253376424312
0.0158883146941661
0.0149398120120167
0.0135151101276278
0.0115922577679157
0.0092049166560173
0.0064449389465153
0.0034530130214989
0.0003995443694293
-0.0025378498248755
-0.0051948525942862
-0.0074364519678056
-0.0091667305678129
-0.0103324130177497
-0.0109228212386369
-0.0109670888632535
-0.010527272708714
-0.0096894148737192
-0.008555581793189
-0.0072348560206592
-0.0058322474360466
-0.0044396962039172
-0.0031308261677622
-0.0019575776532292
-0.0009486083872616
-0.0001103337854146
0.0005699303001165
0.0011201757006347
0.0015797922387719
0.0019954238086938
0.0024158293381333
0.0028846294153481
0.003433040343225
0.0040765479207038
0.0048157298006117
0.0056385374628007
0.0065229525789618
0.0074403518810868
0.0083589861169457
0.0092474855482578
0.0100787784904241
0.0108330873772501
0.0114989699795842
0.0120729599148035
0.0125581566244363
0.012962351553142
0.0132962418720126
0.0135707855224609
0.0137927420437335
0.0139581318944692
0.0140435071662068
0.0139970881864428
0.0137350400909781
0.0131478877738118
0.0121187064796686
0.0105494745075702
0.0083872228860855
0.0056422897614538
0.0023946999572217
-0.0012121680192649
-0.0049883918836712
-0.008720664307475
-0.0121981296688318
-0.0152375642210245
-0.0177031960338354
-0.0195168163627386
-0.0206568501889705
-0.0211499817669391
-0.0210611969232559
-0.0204836316406726
-0.019527094438672
-0.0183073822408914
-0.016937656328082
-0.0155191421508789
-0.0141307264566421
-0.0128215933218598
-0.0116103021427989
-0.0104895057156682
-0.0094336736947298
-0.00840749964118
-0.0073728766292333
-0.0062943515367805
-0.0051447795704007
-0.0039101522415876
-0.0025910306721925
-0.0012013346422463
0.0002339815837331
0.0016826298087835
0.0031088623218238
0.004476080648601
0.0057495734654366
0.0069000460207462
0.0079058660194277
0.0087532540783286
0.0094367414712905
0.0099604930728673
0.010337796062231
0.0105885276570916
0.010736571624875
0.0108074452728033
0.0108256768435239
0.0108109395951032
0.0107713500037789
0.0106939198449254
0.0105351088568568
0.0102169187739491
0.0096335969865322
0.0086701083928346
0.0072284433990716
0.0052549042738974
0.0027603623457252
-0.0001732390373945
-0.0034008673392236
-0.0067317159846425
-0.0099517656490206
-0.0128503954038023
-0.0152473831549286
-0.01701345667243
-0.0180799849331378
-0.0184389818459749
-0.0181374996900558
-0.0172691531479358
-0.015962915495038
-0.0143684837967157
-0.0126390475779771
-0.0109151788055896
-0.009312598966062
-0.0079131610691547
-0.0067597948946058
-0.0058565540239214
-0.0051727807149291
-0.004650492221117
-0.0042143338359892
-0.0037833605892956
-0.0032830261625349
-0.002654489595443
-0.0018596751615405
-0.0008829592261463
0.0002694884315133
0.0015727762365713
0.0029879983048886
0.004467231221497
0.0059581948444247
0.007408557459712
0.0087709128856658
0.0100086871534585
0.0111002847552299
0.0120389461517333
0.0128295877948403
0.0134850982576608
0.0140228774398565
0.0144616737961769
0.0148182259872555
0.0151038784533739
0.0153218004852533
0.015462813898921
0.0154977804049849
0.0153692839667201
0.0149895055219531
0.0142504051327705
0.0130457431077957
0.011298238299787
0.0089826695621013
0.006138069089502
0.0028685587458312
-0.00066539645195
-0.0042648329399526
-0.0077166864648461
-0.010819649323821
-0.0134064815938472
-0.0153595246374607
-0.0166186485439538
-0.0171822179108858
-0.0171021092683076
-0.0164745617657899
-0.0154282823204994
-0.0141103118658065
-0.0126702170819044
-0.011244062334299
-0.0099406521767377
-0.0088324416428804
-0.0079517401754856
-0.0072910939343273
-0.0068080574274063
-0.0064356019720435
-0.0060962554998695
-0.0057152519002556
-0.0052298544906079
-0.0045951944775879
-0.0037876036949455
-0.0028055254369974
-0.0016680327244102
-0.0004115961492061
0.000915543292649
0.0022616269998252
0.0035790810361504
0.00482929777354
0.0059845619834959
0.0070275450125336
0.0079504419118165
0.0087551278993487
0.0094519974663853
0.0100549319759011
0.0105731068179011
0.0110020134598016
0.0113146528601646
0.0114546827971935
0.0113375056535005
0.0108632445335388
0.0099381795153021
0.0084982644766569
0.0065296557731926
0.0040814466774463
0.0012665699468925
-0.0017497406806796
-0.0047715618275105
-0.0075984369032084
-0.0100493282079696
-0.0119813540950417
-0.0133025180548429
-0.0139768151566386
-0.0140220820903778
-0.0135031715035438
-0.0125220464542508
-0.0112051488831639
-0.0096888057887554
-0.0081048673018813
-0.0065689771436154
-0.0051718465983867
-0.0039730044081807
-0.002997555071488
-0.0022365832701325
-0.0016513441223651
-0.0011816029436886
-0.0007575419731438
-0.0003116447478532
0.0002125783357769
0.0008546272292733
0.0016336857806891
0.0025484564248472
0.0035795976873487
0.0046946094371378
0.0058541130274534
0.0070171114057302
0.0081445695832371
0.0092020537704229
0.0101617826148867
0.0110045261681079
0.0117207616567611
0.0123099591583013
0.0127793261781334
0.0131427813321352
0.0134178549051284
0.0136195421218872
0.0137514322996139
0.013794831931591
0.0137007683515548
0.0133903184905648
0.0127648944035172
0.0117251947522163
0.0101943155750632
0.0081393625587224
0.00558668281883
0.0026261401362717
-0.0005970103666186
-0.0038994867354631
-0.0070827519521117
-0.0099578900262713
-0.0123677644878625
-0.0142016895115375
-0.0154012385755777
-0.0159595478326082
-0.015916921198368
-0.0153536377474665
-0.0143794864416122
-0.0131203047931194
-0.011703954078257
-0.010247603058815
-0.0088470410555601
-0.0075696613639593
-0.0064525152556598
-0.0055046267807483
-0.004711071960628
-0.0040376097895205
-0.0034374843817204
-0.0028608217835426
-0.0022637194488197
-0.0016137533821165
-0.0008908092277124
-8.606602204963565e-05
0.0007974570617079
0.0017445057164877
0.0027302268426865
0.0037250355817377
0.0046993126161396
0.0056261648423969
0.0064828502945601
0.0072521246038377
0.0079231299459934
0.0084914388135075
0.0089584039524197
0.0093302503228187
0.0096170464530587
0.0098309582099318
0.0099840136244893
0.0100851049646735
0.0101337796077132
0.0101108932867646
0.0099714072421193
0.0096446648240089
0.009043819271028
0.0080836452543735
0.0067033180966973
0.0048863212577998
0.0026699975132942
0.0001443023793399
-0.0025568862911313
-0.0052708992734551
-0.0078271646052598
-0.0100691895931959
-0.0118719097226858
-0.0131526431068778
-0.0138761065900325
-0.0140539910644292
-0.0137405022978782
-0.0130251301452517
-0.0120220575481653
-0.0108556598424911
-0.0096448874101042
-0.0084908977150917
-0.0074693411588668
-0.0066256849095225
-0.0059727542102336
-0.0054919505491852
-0.0051394090987741
-0.0048556672409176
-0.0045762257650494
-0.0042411237955093
-0.0038016708567738
-0.0032231279183179
-0.0024847167078405
-0.0015805975999683
-0.0005224565393291
0.0006607479881495
0.0019282371504232
0.003235119394958
0.0045380857773125
0.0057974802330136
0.0069780424237251
0.0080501521006226
0.0089906835928559
0.0097836460918188
0.0104218013584613
0.0109075596556067
0.0112507501617074
0.0114649375900626
0.0115645732730627
0.0115616852417588
0.0114601179957389
0.0112480483949184
0.0108922328799963
0.0103373164311051
0.0095126712694764
0.0083477878943085
0.006792563945055
0.0048361578956246
0.0025189854204654
-6.667384877800941e-05
-0.0027879928238689
-0.0054894215427339
-0.0080118486657738
-0.0102112740278244
-0.0119739305227994
-0.0132251214236021
-0.0139328930526971
-0.0141078252345323
-0.0137992119416594
-0.0130888735875487
-0.0120835090056061
-0.0109043084084987
-0.0096731157973408
-0.0084980800747871
-0.0074626840651035
-0.0066198627464473
-0.005990432575345
-0.0055644176900386
-0.0053056273609399
-0.0051594646647572
-0.0050616841763257
-0.004947567358613
-0.0047614816576242
-0.0044629154726862
-0.0040272884070873
-0.0034451342653483
-0.0027222423814237
-0.0018793379422277
-0.0009488206123933
3.112386912107468e-05
0.0010227703023701
0.0019938680343329
0.0029209833592176
0.0037907571531832
0.0045985346660017
0.0053458674810826
0.0060382084921002
0.006681865081191
0.0072796223685145
0.0078245671465992
0.0082925464957952
0.0086366012692451
0.0087869921699166
0.0086590806022286
0.0081698317080736
0.0072591830976307
0.0059082750231027
0.0041490625590085
0.0020650213118642
-0.0002169460785808
-0.002542951144278
-0.0047528888098895
-0.006700393743813
-0.0082684326916933
-0.0093794930726289
-0.0100008873268961
-0.0101444134488701
-0.0098601719364523
-0.0092274574562907
-0.0083451913669705
-0.0073216008022427
-0.0062623480334877
-0.0052580023184418
-0.0043736938387155
-0.003643448697403
-0.0030697071924805
-0.0026274765841662
-0.002271884586662
-0.0019470052793622
-0.0015944237820804
-0.0011612111702561
-0.0006060171872377
9.780982509255408e-05
0.0009603966027498
0.0019739717245101
0.0031134341843426
0.0043396144174039
0.0056051164865493
0.0068614026531577
0.0080651082098484
0.009182465262711
0.010191080160439
0.0110795609652996
0.0118458764627575
0.0124940387904644
0.0130301443859934
0.0134604442864656
0.0137914000079035
0.0140296751633286
0.0141819426789879
0.0142541453242301
0.0142487185075879
0.0141600687056779
0.0139684034511446
0.0136329149827361
0.0130891194567084
0.0122543945908546
0.0110425977036356
0.0093857189640402
0.0072557884268462
0.0046788034960627
0.0017370348796248
-0.0014387042028829
-0.0046837697736918
-0.0078187389299273
-0.0106700463220477
-0.0130891017615795
-0.0149672795087099
-0.0162449963390827
-0.0169135779142379
-0.0170105509459972
-0.0166107974946498
-0.0158157870173454
-0.0147421061992645
-0.0135092381387948
-0.0122274905443191
-0.0109885325655341
-0.0098594054579734
-0.0088797463104128
-0.0080619091168046
-0.00739352311939
-0.006842334754765
-0.0063625522889196
-0.0059016309678554
-0.0054078130051493
-0.0048382659442722
-0.0041645318269729
-0.0033728978596627
-0.0024620899930596
-0.0014415821060538
-0.00033102883026
0.0008416117634624
0.0020443494431674
0.0032449306454509
0.0044130375608801
0.0055228825658559
0.00655602151528
0.0075022028759121
0.0083574634045362
0.0091213146224617
0.0097955074161291
0.0103842513635754
0.0108935963362455
0.0113291079178452
0.0116935428231954
0.0119863860309124
0.0122054805979132
0.0123488651588559
0.0124126868322491
0.0123832067474722
0.0122271794825792
0.0118866944685578
0.0112819727510213
0.0103242648765444
0.0089373216032981
0.0070802802219986
0.0047641955316066
0.0020580696873366
-0.0009161739144474
-0.0039979638531804
-0.0070083392783999
-0.0097719952464103
-0.0121371336281299
-0.013990762643516
-0.0152674373239278
-0.0159502662718296
-0.0160663053393363
-0.0156788732856512
-0.0148780848830938
-0.0137708541005849
-0.0124707408249378
-0.0110876783728599
-0.0097184861078858
-0.0084395743906497
-0.0073021664284169
-0.0063298074528574
-0.0055189910344779
-0.0048430608585476
-0.0042581087909638
-0.0037099495530128
-0.0031424141488969
-0.0025065424852073
-0.0017674607224762
-0.0009069044608622
7.61521514505148e-05
0.0011654470581561
0.0023305225186049
0.0035332799889147
0.0047341496683657
0.0058958833105862
0.0069859409704804
0.007978013716638
0.0088531542569398
0.0096006318926811
0.0102178901433944
0.0107095884159207
0.0110857859253883
0.0113598611205816
0.0115471612662076
0.0116637162864208
0.0117249302566051
0.0117450021207332
0.0117361424490809
0.0117063354700803
0.0116549869999289
0.0115657690912485
0.011398228816688
0.0110831968486309
0.0105265909805893
0.0096231140196323
0.008277665823698
0.0064286538399755
0.0040671695023775
0.0012477026320993
-0.0019131498411297
-0.00525056803599
-0.0085738683119416
-0.011691303923726
-0.0144318221136927
-0.0166611783206462
-0.0182926282286643
-0.0192920863628387
-0.0196773465722799
-0.0195118654519319
-0.0188944116234779
-0.0179462134838104
-0.0167965088039636
-0.0155678475275635
-0.0143637489527463
-0.0132602136582136
-0.0123008377850055
-0.0114949895069003
-0.0108196036890149
-0.0102258613333106
-0.0096501680091023
-0.0090263290330767
-0.008295732550323
-0.0074139791540801
-0.0063550653867423
-0.0051143527962267
-0.0037081986665725
-0.0021694502793252
-0.000541993882507
0.0011235491838306
0.0027733747847378
0.0043546338565647
0.0058202827349305
0.0071328179910779
0.0082671921700239
0.0092137278988957
0.0099782906472682
0.0105783101171255
0.0110372016206383
0.0113798025995492
0.0116299614310264
0.0118093602359294
0.0119335763156414
0.0120033919811248
0.011995350010693
0.0118562756106257
0.0115049155429005
0.0108437715098261
0.009780490770936
0.0082530826330184
0.0062512531876564
0.0038274910766631
0.0010956360492855
-0.0017821481451392
-0.0046172281727194
-0.0072192982770502
-0.0094182603061199
-0.0110813360661268
-0.0121254436671733
-0.0125238075852394
-0.0123054264113307
-0.0115483738481998
-0.0103694824501872
-0.0089112175628542
-0.0073260655626654
-0.0057602645829319
-0.0043388516642153
-0.0031529134139418
-0.0022504539228975
-0.0016341242007911
-0.0012666443362832
-0.0010804277844727
-0.0009892578236758
-0.0009018061682581
-0.0007339869625866
-0.0004174862988293
9.495345875620842e-05
0.0008270144462585
0.0017785443924367
0.0029270681552588
0.0042311456054449
0.0056347795762121
0.0070734280161559
0.0084822904318571
0.00980378780514
0.0109919793903827
0.0120153967291116
0.0128589486703276
0.0135235451161861
0.0140227833762764
0.0143780503422021
0.0146142030134797
0.0147564448416233
0.014827748760581
0.0148464078083634
0.0148237748071551
0.0147622330114245
0.014651789329946
0.0144633604213595
0.0141404485329985
0.0135940024629235
0.0127059631049633
0.0113455038517713
0.00939651299268
0.0067883376032114
0.0035203685984015
-0.0003258534707129
-0.0045900922268629
-0.009051825851202
-0.0134589988738298
-0.0175608396530151
-0.0211379788815975
-0.0240237601101398
-0.0261146649718284
-0.0273723974823951
-0.0278205387294292
-0.027535730972886
-0.0266346707940101
-0.0252606142312288
-0.0235698744654655
-0.0217166561633348
-0.0198374278843402
-0.0180377289652824
-0.0163838919252157
-0.0149011397734284
-0.0135772135108709
-0.0123702343553304
-0.0112198460847139
-0.0100591285154223
-0.0088250916451215
-0.0074680871330201
-0.0059595927596092
-0.0042957193218171
-0.0024951542727649
-0.0005932566709816
0.0013644136488437
0.0033268937841057
0.0052418373525142
0.0070603289641439
0.0087420875206589
0.010259442962706
0.0115984249860048
0.0127573423087596
0.0137452632188797
0.0145811568945646
0.0152918994426727
0.0159084163606166
0.0164618324488401
0.0169809311628341
0.0174902770668268
0.0180080328136682
0.0185433309525251
0.0190942138433456
0.0196466725319623
0.0201726704835891
0.0206241756677627
0.020924013108015
0.0209602173417806
0.0205917004495859
0.0196678861975669
0.0180581510066986
0.0156832635402679
0.0125407064333558
0.0087173786014318
0.0043860431760549
-0.0002146197948604
-0.004811932798475
-0.0091354055330157
-0.0129498401656746
-0.0160792898386716
-0.0184185430407524
-0.0199339184910058
-0.0206572022289037
-0.020675141364336
-0.0201155263930559
-0.0191311687231063
-0.0178839564323425
-0.0165301486849784
-0.0152061628177762
-0.0140152424573898
-0.0130180018022656
-0.0122296269983053
-0.0116240363568067
-0.0111423069611191
-0.0107033513486385
-0.010217067785561
-0.0095981694757938
-0.0087775439023971
-0.0077097169123589
-0.0063758548349142
-0.0047827940434217
-0.0029600928537547
-0.0009563365019857
0.001166058704257
0.0033377362415194
0.0054900054819881
0.0075622140429914
0.0095068980008363
0.0112911816686391
0.0128950392827391
0.0143081173300743
0.0155273377895355
0.016556229442358
0.0174049157649278
0.01808956079185
0.0186305828392505
0.0190494172275066
0.0193645618855953
0.0195889845490455
0.0197303686290979
0.0197909772396087
0.0197623260319232
0.0196144096553325
0.0192832797765731
0.0186646599322557
0.0176222883164882
0.0160121563822031
0.0137152168899774
0.0106698358431458
0.0068969852291047
0.0025122724473476
-0.0022801994346082
-0.0072133000940084
-0.0119946943596005
-0.0163447968661785
-0.0200268980115652
-0.0228680614382028
-0.0247710533440113
-0.0257182661443948
-0.025768619030714
-0.0250470638275146
-0.0237273350358009
-0.0220104455947875
-0.0201013628393411
-0.0181861650198698
-0.0164126511663198
-0.0148764867335557
-0.0136140752583742
-0.0126047097146511
-0.0117832282558083
-0.0110588036477565
-0.0103336060419678
-0.009517865255475
-0.008540422655642
-0.0073554296977818
-0.0059459144249558
-0.0043238229118287
-0.0025261016562581
-0.0006077671423554
0.0013665138976648
0.0033308938145637
0.0052253361791372
0.0070005292072892
0.0086209028959274
0.0100658684968948
0.0113295540213584
0.0124190701171755
0.0133509635925292
0.0141463642939925
0.0148268602788448
0.0154121303930878
0.0159184783697128
0.0163575951009988
0.0167343150824308
0.0170411560684442
0.0172489434480667
0.0172955598682165
0.0170783102512359
0.0164575669914484
0.0152764273807406
0.0133939124643802
0.0107220644131302
0.007254671305418
0.0030802558176219
-0.0016212863847613
-0.00659796083346
-0.011559298262
-0.0162157658487558
-0.020312575623393
-0.0236526206135749
-0.0261090360581874
-0.027629492804408
-0.0282339286059141
-0.0280068907886743
-0.0270850993692874
-0.0256405156105756
-0.0238604191690683
-0.0219261925667524
-0.0199925526976585
-0.0181714706122875
-0.0165236927568912
-0.0150572536513209
-0.0137328077107667
-0.0124762775376439
-0.0111967278644442
-0.0098053105175495
-0.0082313753664493
-0.0064327744767069
-0.0043992390856146
-0.0021507176570594
0.0002663219347596
0.0027850363403558
0.0053280321881175
0.007817537523806
0.0101827848702669
0.0123656587675213
0.0143250804394483
0.0160382278263568
0.0174981951713562
0.0187107324600219
0.0196921993046998
0.0204675998538732
0.0210672542452812
0.0215227901935577
0.0218636877834796
0.0221146214753389
0.0222937799990177
0.0224130824208259
0.0224807672202587
0.0225043017417192
0.0224913302809
0.0224484410136938
0.0223764833062887
0.0222598370164632
0.0220510326325893
0.0216575935482978
0.0209395345300436
0.0197239629924297
0.017837181687355
0.0151458447799086
0.0115947984158992
0.0072313072159886
0.0022089313715696
-0.0032304988708347
-0.0087912371382117
-0.014164944179356
-0.0190706755965948
-0.0232861414551734
-0.0266643911600112
-0.0291361771523952
-0.0307037271559238
-0.0314303003251552
-0.031426765024662
-0.0308353770524263
-0.0298116896301507
-0.0285080131143331
-0.0270605590194463
-0.0255788788199424
-0.0241372883319854
-0.0227701533585786
-0.0214722137898206
-0.0202043671160936
-0.0189041271805763
-0.0174980983138084
-0.0159145556390285
-0.0140949115157127
-0.0120021421462297
-0.00962545722723
-0.0069814631715416
-0.0041115116328001
-0.0010761199519038
0.0020514470525085
0.0051919277757406
0.0082674426957964
0.0112079354003071
0.0139554366469383
0.0164667051285505
0.0187141150236129
0.0206847861409187
0.0223788246512413
0.023806532844901
0.0249844714999198
0.0259322263300418
0.0266710892319679
0.0272227618843317
0.027607487514615
0.0278439633548259
0.0279509723186492
0.0279479846358299
0.0278537329286336
0.0276836846023798
0.0274475459009408
0.0271470323204994
0.0267716534435749
0.026289340108633
0.0256336461752653
0.0246947593986988
0.0233222395181655
0.0213441383093595
0.0186004433780908
0.0149832926690578
0.010472715832293
0.005156410858035
-0.0007714666426181
-0.0070305140689015
-0.0132881691679358
-0.0192015394568443
-0.0244598016142845
-0.0288183875381946
-0.0321185067296028
-0.0342921875417232
-0.0353566147387027
-0.0354017429053783
-0.0345744788646698
-0.0330608487129211
-0.0310668610036373
-0.028799895197153
-0.0264515578746795
-0.0241814721375703
-0.0221033208072185
-0.0202772580087184
-0.0187113136053085
-0.0173699352890253
-0.0161869525909423
-0.0150811411440372
-0.0139713073149323
-0.0127883600071072
-0.0114838890731334
-0.0100343544036149
-0.0084404433146119
-0.0067227026447653
-0.0049146926030516
-0.0030560484156012
-0.0011878844816237
0.0006503642071038
0.0024244592059403
0.0041087609715759
0.0056882556527853
0.0071588275022804
0.0085256425663828
0.0097996331751346
0.0109937591478228
0.0121212312951684
0.0131950806826353
0.0142271844670176
0.0152269974350929
0.0162006150931119
0.0171497501432895
0.0180710460990667
0.018956096842885
0.0197915229946374
0.0205600149929523
0.02124241925776
0.0218173060566186
0.0222543254494667
0.0225021336227655
0.0224758870899677
0.022052027285099
0.0210782252252101
0.0193995647132396
0.0168939866125583
0.0135077061131596
0.0092806424945592
0.0043533788993954
-0.0010459311306476
-0.00663005374372
-0.0120899081230163
-0.0171325169503688
-0.0215114988386631
-0.0250468738377094
-0.0276348814368248
-0.0292486324906349
-0.0299321673810482
-0.0297905951738357
-0.0289757810533046
-0.0276678726077079
-0.0260547939687967
-0.0243119783699512
-0.0225846245884895
-0.020973440259695
-0.0195257198065519
-0.0182354338467121
-0.0170526411384344
-0.0158991478383541
-0.0146868992596864
-0.0133350770920515
-0.0117826107889413
-0.0099952444434165
-0.0079687004908919
-0.0057292417623102
-0.0033306144177913
-0.0008461258839815
0.0016424460336565
0.0040558371692895
0.0063260355964303
0.0084010353311896
0.0102458801120519
0.0118425581604242
0.0131894573569297
0.0143000334501266
0.0152004957199096
0.0159253347665071
0.0165111068636178
0.0169911868870258
0.0173931382596492
0.017738377675414
0.0180432554334402
0.0183206424117088
0.0185811948031187
0.0188322681933641
0.0190710369497537
0.0192714110016822
0.0193693675100803
0.0192539170384407
0.0187719948589801
0.0177513528615236
0.0160365719348192
0.0135272908955812
0.0102084996178746
0.0061654825694859
0.0015786332078278
-0.0033012607600539
-0.0081900022923946
-0.0128095094114542
-0.0169215723872184
-0.0203500129282474
-0.0229895021766424
-0.0248043425381183
-0.0258214399218559
-0.0261198468506336
-0.0258183646947145
-0.0250613335520029
-0.0240024384111166
-0.0227881036698818
-0.0215425789356231
-0.020355949178338
-0.0192759111523628
-0.0183050632476806
-0.0174054838716983
-0.0165093503892421
-0.0155321415513753
-0.0143865589052438
-0.0129959397017955
-0.0113051868975162
-0.0092874895781278
-0.0069461017847061
-0.0043127816170454
-0.0014445427805185
0.0015815971419215
0.0046761836856603
0.0077467933297157
0.0107076968997716
0.0134873874485492
0.0160328764468431
0.0183104295283556
0.0203034728765487
0.0220094099640846
0.0234362296760082
0.0245993211865425
0.0255194958299398
0.0262215957045555
0.0267313383519649
0.0270712431520223
0.027258675545454
0.0273058880120515
0.0272207353264093
0.0270084924995899
0.0266746059060096
0.0262267831712961
0.0256753750145435
0.0250323135405778
0.0243084393441677
0.0235057938843965
0.0226013157516717
0.021527525037527
0.0201638955622911
0.0183489806950092
0.0159133505076169
0.0127241238951683
0.0087262215092778
0.0039667570963501
-0.0014021331444382
-0.00713881989941
-0.0129427872598171
-0.0184956695884466
-0.0235036425292491
-0.0277326591312885
-0.0310310646891593
-0.0333373546600341
-0.0346740521490573
-0.0351311080157756
-0.0348450616002082
-0.0339801087975502
-0.0327122062444686
-0.0312140807509422
-0.0296406857669353
-0.0281169712543487
-0.0267293248325586
-0.0255207866430282
-0.0244901068508625
-0.0235952697694301
-0.0227624867111444
-0.0218997057527303
-0.020910644903779
-0.0197070613503456
-0.0182202905416488
-0.0164105910807847
-0.0142704593017697
-0.0118221258744597
-0.0091119688004255
-0.0062032206915318
-0.0031679263338446
-7.843226194381714e-05
0.0029999399557709
0.0060124760493636
0.0089152958244085
0.0116738872602581
0.0142614115029573
0.0166577436029911
0.0188487749546766
0.0208259895443916
0.0225867144763469
0.0241336077451705
0.025472393259406
0.0266092903912067
0.0275495033711195
0.0282963421195745
0.0288510452955961
0.0292145200073719
0.0293898209929466
0.0293827876448631
0.0292019434273242
0.0288591459393501
0.0283695310354232
0.0277494806796312
0.0270112454891204
0.0261520147323608
0.0251381564885377
0.0238907542079687
0.0222819596529006
0.0201500132679939
0.0173332951962947
0.0137140583246946
0.0092577822506427
0.0040367553010582
-0.0017669349908828
-0.0078791147097945
-0.0139694400131702
-0.0196977630257606
-0.0247596018016338
-0.0289216618984937
-0.0320421978831291
-0.0340754613280296
-0.0350630320608615
-0.0351171642541885
-0.0344020240008831
-0.0331153310835361
-0.0314698293805122
-0.0296738538891077
-0.0279118455946445
-0.0263277348130941
-0.0250136945396661
-0.0240044184029102
-0.0232772175222635
-0.0227597318589687
-0.0223443023860454
-0.0219051782041788
-0.0213163644075393
-0.0204684920608997
-0.0192809719592332
-0.0177074372768402
-0.0157367251813411
-0.0133912414312362
-0.0107224443927407
-0.0078037865459918
-0.00472251791507
-0.0015713889151811
0.0015599289909005
0.0045930952765047
0.0074666338041424
0.0101378289982676
0.0125817786902189
0.0147891994565725
0.0167637206614017
0.0185176357626914
0.0200679264962673
0.0214345082640647
0.0226380303502082
0.0236963164061307
0.0246216375380754
0.0254196412861347
0.0260903742164373
0.0266312640160322
0.0270397458225488
0.0273128878325223
0.0274426583200693
0.0274062398821115
0.0271522067487239
0.0265887342393398
0.0255838148295879
0.0239836517721414
0.0216474495828151
0.0184889938682317
0.0145113598555326
0.0098237330093979
0.0046360963024199
-0.0007662049029022
-0.006061352789402
-0.0109338033944368
-0.0151117788627743
-0.0183940287679433
-0.0206647366285324
-0.021898154169321
-0.0221549216657876
-0.0215712673962116
-0.0203417800366878
-0.0186969861388206
-0.0168773345649242
-0.0151052670553326
-0.0135588599368929
-0.0123522290959954
-0.0115271247923374
-0.0110565740615129
-0.0108568295836448
-0.0108038755133748
-0.0107535971328616
-0.0105638932436704
-0.0101147107779979
-0.0093228006735444
-0.0081498939543962
-0.0066031836904585
-0.0047282055020332
-0.0025973273441195
-0.0002971841022372
0.0020833138842135
0.004462253767997
0.0067699765786528
0.0089525021612644
0.0109747350215911
0.0128216184675693
0.0144955050200223
0.0160102490335702
0.0173842571675777
0.018634408712387
0.0197711866348981
0.0207950342446565
0.0216953828930854
0.022454310208559
0.0230530221015214
0.0234765633940696
0.0237153135240077
0.0237651467323303
0.0236264877021312
0.023300277069211
0.0227783005684614
0.0220266915857791
0.0209691040217876
0.0194829646497964
0.0174160934984684
0.0146201672032475
0.0109922429546713
0.0065122423693537
0.0012639071792364
-0.0045663295313715
-0.0107103772461414
-0.0168541129678487
-0.0226790327578783
-0.0279000848531723
-0.0322938561439514
-0.0357143618166446
-0.0380959697067737
-0.0394474491477012
-0.039842028170824
-0.0394045934081077
-0.0382957495748996
-0.0366939604282379
-0.0347771868109703
-0.0327055566012859
-0.0306085012853145
-0.0285782106220722
-0.0266671627759933
-0.0248888842761516
-0.0232236292213201
-0.0216282531619071
-0.0200471747666597
-0.0184232033789157
-0.0167078468948602
-0.0148677099496126
-0.0128852007910609
-0.0107578113675117
-0.0084990505129098
-0.0061378125101327
-0.0037137758918106
-0.0012700138613581
0.0011543561704456
0.003528363071382
0.0058304257690906
0.0080480650067329
0.0101761370897293
0.0122143914923071
0.0141651909798383
0.0160321351140737
0.0178196988999843
0.0195323955267667
0.0211731921881437
0.0227427631616592
0.0242395102977752
0.0256586689502
0.0269911289215087
0.0282237567007541
0.0293411333113908
0.0303273983299732
0.0311677251011133
0.0318494327366352
0.0323600098490715
0.0326782874763011
0.0327598862349987
0.0325230509042739
0.0318436436355114
0.030566219240427
0.0285313501954078
0.0256123375147581
0.0217505879700183
0.016980554908514
0.0114382673054933
0.0053497478365898
-0.0009980658069252
-0.0072953733615577
-0.0132473818957805
-0.0186044666916131
-0.0231812410056591
-0.0268652103841304
-0.029615893959999
-0.0314562022686004
-0.032460369169712
-0.0327410511672496
-0.032435305416584
-0.031689953058958
-0.0306475143879652
-0.0294327717274427
-0.0281409882009029
-0.026830842718482
-0.0255232285708189
-0.024204283952713
-0.0228328499943017
-0.0213536638766527
-0.0197131484746933
-0.0178710576146841
-0.0158057920634746
-0.01351666636765
-0.0110243484377861
-0.0083681587129831
-0.0056009329855442
-0.0027833888307213
2.087792381644249e-05
0.0027503953315317
0.0053514568135142
0.0077822692692279
0.0100138923153281
0.0120298080146312
0.0138259474188089
0.0154098384082317
0.0167975649237632
0.0180101841688156
0.0190711840987205
0.0200048387050628
0.0208352655172348
0.0215854048728942
0.022275298833847
0.0229205340147018
0.0235317274928092
0.0241137016564607
0.0246618837118148
0.0251540839672088
0.0255379267036914
0.0257201101630926
0.0255676358938217
0.0249257944524288
0.0236484538763761
0.0216311402618885
0.0188378170132637
0.015315543860197
0.0111939273774623
0.0066697755828499
0.0019815149717032
-0.0026205447502434
-0.0069024534896016
-0.0106689035892486
-0.0137779340147972
-0.016148867085576
-0.0177638661116361
-0.0186636354774236
-0.0189390312880277
-0.0187188368290662
-0.0181528367102146
-0.0173917524516582
-0.0165679659694433
-0.0157813765108585
-0.0150929801166057
-0.0145245734602212
-0.0140616511926054
-0.0136596513912081
-0.0132534280419349
-0.012767432257533
-0.0121259121224284
-0.0112633239477872
-0.0101334797218441
-0.0087159583345055
-0.0070183565840125
-0.005073620006442
-0.0029341536574065
-0.0006652109441347
0.0016615691129118
0.0039746491238474
0.0062085455283522
0.0083084963262081
0.0102339088916778
0.0119602149352431
0.0134782707318663
0.0147913061082363
0.0159098841249942
0.0168465729802846
0.01761269941926
0.0182168520987033
0.0186639204621315
0.0189555790275335
0.019092958420515
0.0190795995295047
0.0189220141619443
0.0186270046979188
0.0181952565908432
0.0176101513206958
0.0168245770037174
0.0157537534832954
0.0142816500738263
0.0122822010889649
0.0096487933769822
0.0063230544328689
0.0023165699094533
-0.0022799791768193
-0.0073030637577176
-0.0125347096472978
-0.0177282765507698
-0.0226377584040164
-0.0270451009273529
-0.0307800583541393
-0.033730573952198
-0.0358449593186378
-0.0371279306709766
-0.0376321896910667
-0.0374474562704563
-0.0366880111396312
-0.0354794636368751
-0.0339462794363498
-0.0322005413472652
-0.0303326305001974
-0.0284055545926094
-0.026453923434019
-0.0244876537472009
-0.0224988684058189
-0.020469618961215
-0.0183794628828763
-0.0162121448665857
-0.0139596248045563
-0.0116234943270683
-0.0092155840247869
-0.0067580114118754
-0.0042813559994101
-0.0018207668326795
0.0005882238037884
0.0029130517505109
0.0051271640695631
0.0072125107981264
0.0091604143381118
0.0109710739925503
0.0126529708504676
0.0142217818647623
0.0156977623701095
0.0171030666679143
0.0184597466140985
0.0197875928133726
0.021102424710989
0.0224149413406848
0.0237294472754001
0.0250427648425102
0.0263434033840894
0.0276107750833034
0.0288153924047946
0.0299213714897632
0.0308905020356178
0.0316859930753707
0.0322757400572299
0.0326340459287166
0.0327382870018482
0.0325600132346153
0.0320541262626647
0.031150709837675
0.0297554600983858
0.0277631133794784
0.0250804107636213
0.0216508749872446
0.0174759179353714
0.0126280365511775
0.0072511853650212
0.0015472332015633
-0.0042466213926672
-0.0098839271813631
-0.0151344127953052
-0.0198053605854511
-0.0237566642463207
-0.0269073694944381
-0.0292329750955104
-0.0307566672563552
-0.0315393880009651
-0.0316706672310829
-0.0312593206763267
-0.030423779040575
-0.0292824227362871
-0.0279431194067001
-0.0264927074313163
-0.0249905586242675
-0.0234681442379951
-0.0219321772456169
-0.0203703716397285
-0.0187600702047348
-0.0170779526233673
-0.0153079768642783
-0.0134455487132072
-0.0114991720765829
-0.009491179138422
-0.0074557578191161
-0.0054332674480974
-0.0034634727053344
-0.0015807902673259
0.0001880285271909
0.0018256732728332
0.0033253566361963
0.0046888678334653
0.0059227515012025
0.0070364032872021
0.0080423075705766
0.008955861441791
0.0097939893603324
0.0105735789984464
0.0113103240728378
0.0120179476216435
0.0127076730132102
0.0133876297622919
0.0140621727332472
0.0147311547771096
0.015389421954751
0.0160271879285573
0.016631057485938
0.0171853099018335
0.017673110589385
0.0180770568549633
0.0183796565979719
0.0185633320361375
0.0186070073395967
0.0184781178832054
0.0181242153048515
0.0174703188240528
0.0164247900247573
0.014893501996994
0.0128005687147378
0.0101107219234108
0.0068457452580332
0.0030900072306394
-0.0010140361264348
-0.005278458353132
-0.0094905141741037
-0.0134382620453834
-0.0169347710907459
-0.0198365226387977
-0.0220548473298549
-0.0235599447041749
-0.0243776682764291
-0.0245807543396949
-0.0242763608694076
-0.023591574281454
-0.0226582661271095
-0.0215983353555202
-0.0205106791108846
-0.0194624252617359
-0.0184858702123165
-0.0175798870623111
-0.0167154446244239
-0.0158452838659286
-0.0149151291698217
-0.0138739738613367
-0.012682725675404
-0.0113201718777418
-0.0097853988409042
-0.0080969706177711
-0.0062898346222937
-0.004410745576024
-0.0025122121442109
-0.0006451718509197
0.001147043891251
0.0028307694010436
0.0043816161341965
0.0057851048186421
0.0070381490513682
0.0081483134999871
0.0091299749910831
0.0099999569356441
0.0107753528282046
