bvp
0.0127458395436406
0.012652201578021
0.0124941626563668
0.0122842472046613
0.0120359752327203
0.011761100962758
0.0114658856764435
0.0111485663801431
0.0107961958274245
0.0103770801797509
0.0098313260823488
0.0090684555470943
0.0079782074317336
0.0064535611309111
0.0044196043163537
0.001858820207417
-0.0011751381680369
-0.0045576198026537
-0.0081053469330072
-0.0115990154445171
-0.0148134492337703
-0.0175484493374824
-0.0196516476571559
-0.0210304073989391
-0.0216553024947643
-0.0215563047677278
-0.020813051611185
-0.0195431411266326
-0.0178903508931398
-0.0160123463720083
-0.0140678854659199
-0.0122036486864089
-0.010541726835072
-0.0091702034696936
-0.0081377299502491
-0.0074512278661131
-0.0070769414305686
-0.0069457255303859
-0.0069623505696654
-0.0070174131542444
-0.0070008914917707
-0.0068160612136125
-0.0063897259533405
-0.0056764846667647
-0.0046597556211054
-0.0033516567200422
-0.0017904341220855
-3.437278792262077e-05
0.0018458752892911
0.0037741968408226
0.0056760050356388
0.0074852001853287
0.009148652665317
0.0106290895491838
0.0119076669216156
0.0129834953695535
0.0138687379658222
0.0145827028900384
0.0151483491063117
0.015590351074934
0.0159327201545238
0.0161964260041713
0.0163978226482868
0.0165477283298969
0.0166514664888381
0.0167097318917512
0.0167197883129119
0.0166758429259061
0.0165673438459634
0.0163761116564273
0.0160717573016881
0.0156042948365211
0.0148992547765374
0.0138627905398607
0.0123984953388571
0.0104310763999819
0.0079297078773379
0.0049248109571635
0.0015134760178625
-0.002148188650608
-0.005863600410521
-0.0094202924519777
-0.0126155912876129
-0.0152802439406514
-0.0172960385680198
-0.0186031349003314
-0.019198277965188
-0.0191290825605392
-0.0184861030429601
-0.0173907596617937
-0.0159795451909303
-0.0143889347091317
-0.0127440327778458
-0.0111499400809407
-0.009684576652944
-0.0083942264318466
-0.0072934878990054
-0.0063686538487672
-0.0055833449587225
-0.0048867934383451
-0.0042229807004332
-0.003538544755429
-0.0027903779409825
-0.0019521303474903
-0.0010164697887375
7.224836735986173e-06
0.0010969648137688
0.0022217270452529
0.0033446284942328
0.0044266493059694
0.0054305577650666
0.0063246679492294
0.0070862504653632
0.007703230716288
0.0081739928573369
0.0085064573213458
0.0087161008268594
0.0088230893015861
0.0088502746075391
0.0088215507566928
0.0087590320035815
0.0086803808808326
0.0085981236770749
0.0085207065567374
0.0084528354927897
0.008392765186727
0.0083284666761755
0.0082352925091981
0.0080731529742479
0.0077812396921217
0.007274311967194
0.0064475354738533
0.0051930737681686
0.0034256046637892
0.0011088899336755
-0.0017263051122426
-0.0049780067056417
-0.0084815612062811
-0.0120291979983448
-0.0153971603140234
-0.0183739066123962
-0.0207853280007839
-0.0225144680589437
-0.0235110521316528
-0.0237878281623125
-0.0234072133898735
-0.0224660709500312
-0.0210829265415668
-0.0193862337619066
-0.0175026524811983
-0.0155474282801151
-0.0136178834363818
-0.0117881540209054
-0.0101051917299628
-0.008588345721364
-0.0072320699691772
-0.0060099950060248
-0.0048813391476869
-0.0037997199688106
-0.0027213420253247
-0.0016104918904602
-0.0004428788088262
0.0007925862446427
0.0020944119896739
0.0034511499106884
0.0048438650555908
0.0062483693473041
0.0076376157812774
0.0089830327779054
0.0102545460686087
0.0114201921969652
0.0124465906992554
0.0133011136204004
0.0139552699401974
0.014388458803296
0.0145912803709506
0.0145675167441368
0.0143341682851314
0.0139196570962667
0.0133611587807536
0.0127012310549616
0.0119832307100296
0.0112470993772149
0.0105273872613906
0.0098520284518599
0.0092404503375291
0.008702210150659
0.0082380045205354
0.0078433342278003
0.007511374540627
0.0072325570508837
0.006993883755058
0.0067783882841467
0.0065582450479269
0.0062784538604319
0.0058394684456288
0.0050926310941576
0.0038557741791009
0.0019455039873719
-0.0007819274906069
-0.0043896911665797
-0.0088308779522776
-0.0139409303665161
-0.0194526631385087
-0.0250277854502201
-0.030299600213766
-0.0349195227026939
-0.0385971590876579
-0.0411268882453441
-0.0424002893269062
-0.042407538741827
-0.0412296205759048
-0.0390220806002616
-0.0359933488070964
-0.03238146007061
-0.0284318588674068
-0.0243776869028806
-0.0204202309250831
-0.0167077966034412
-0.0133196767419576
-0.0102643016725778
-0.0074925180524587
-0.0049198269844055
-0.0024488400667905
1.4239922165870668e-05
0.0025491788983345
0.0052150581032037
0.0080458046868443
0.0110462000593543
0.0141895320266485
0.0174214355647563
0.0206695646047592
0.0238535404205322
0.0268931072205305
0.0297145061194896
0.0322541818022728
0.0344604291021823
0.0362936705350875
0.0377259701490402
0.0387423560023307
0.0393460430204868
0.0395658984780311
0.0394611954689025
0.0391186699271202
0.0386403203010559
0.0381267108023166
0.0376635380089283
0.0373133458197116
0.0371091663837432
0.0370504409074783
0.0371044352650642
0.0372128188610076
0.0372997932136058
0.0372798405587673
0.03706706315279
0.036586694419384
0.0357849970459938
0.0346344970166683
0.0331342294812202
0.0313044860959053
0.0291765108704566
0.0267775021493434
0.0241122730076313
0.0211496353149414
0.017823277041316
0.014050243422389
0.0097621548920869
0.004938144236803
-0.0003714859485626
-0.0060363672673702
-0.0118537889793515
-0.0175724811851978
-0.0229270029813051
-0.0276735182851552
-0.0316196009516716
-0.0346435829997062
-0.0367011688649654
-0.0378208048641681
-0.0380922555923461
-0.0376524291932582
-0.0366694182157516
-0.0353248454630374
-0.0337964594364166
-0.0322432555258274
-0.0307943057268857
-0.0295415315777063
-0.0285362433642148
-0.027789432555437
-0.0272754728794097
-0.0269382521510124
-0.0266987718641757
-0.0264644175767898
-0.0261406432837247
-0.0256442539393901
-0.024914838373661
-0.0239208824932575
-0.0226602796465158
-0.0211567543447017
-0.0194542631506919
-0.0176114421337842
-0.0156955420970916
-0.0137748206034302
-0.0119115374982357
-0.0101578077301383
-0.0085528269410133
-0.0071197878569364
-0.0058645922690629
-0.0047789076343178
-0.003846445120871
-0.0030481936410069
-0.0023642135784029
-0.0017743622884154
-0.0012601371854543
-0.0008066873997449
-0.0004031080752611
-4.089623689651489e-05
0.0002879239618778
0.0005914689972996
0.0008763065561652
0.001143998466432
0.0013860063627362
0.0015754224732518
0.0016566691920161
0.0015388159081339
0.0011010831221938
0.0002150190994143
-0.0012228973209857
-0.0032601170241832
-0.00586698949337
-0.0089299185201525
-0.0122610433027148
-0.0156232602894306
-0.0187630914151668
-0.0214431248605251
-0.0234702415764331
-0.0247164517641067
-0.02512738853693
-0.0247178897261619
-0.0235604587942361
-0.0217721164226531
-0.0195008926093578
-0.0169113129377365
-0.0141685400158166
-0.0114225214347243
-0.008795116096735
-0.0063719181343913
-0.0041990615427494
-0.0022848937660455
-0.0006054323166608
0.0008870037272572
0.0022531133145093
0.0035572098568081
0.0048604812473058
0.0062147672288119
0.0076560662128031
0.0092003066092729
0.0108435675501823
0.0125650344416499
0.0143295750021934
0.0160901024937629
0.0177925750613212
0.0193839240819215
0.0208191517740488
0.0220648534595966
0.023099347949028
0.0239108242094516
0.024495892226696
0.0248594619333744
0.0250148568302392
0.0249830316752195
0.0247903987765312
0.0244661793112754
0.0240406394004821
0.0235440302640199
0.0230053309351205
0.0224498752504587
0.0218964908272027
0.021356988698244
0.0208378881216049
0.0203414373099803
0.0198654327541589
0.019402852281928
0.0189417023211717
0.0184640176594257
0.017940703779459
0.0173213183879852
0.01652517542243
0.0154426591470837
0.0139506254345178
0.0119396746158599
0.0093455063179135
0.0061742714606225
0.0025149141438305
-0.0014648882206529
-0.0055392212234437
-0.0094563700258731
-0.0129758054390549
-0.0159008502960205
-0.0180992092937231
-0.0195100344717502
-0.0201410558074712
-0.0200579240918159
-0.0193681269884109
-0.0182048045098781
-0.0167132448405027
-0.0150382285937666
-0.0133110899478197
-0.0116388900205492
-0.0100986147299408
-0.008735585026443
-0.0075633265078067
-0.0065659810788929
-0.0057053146883845
-0.004930474795401
-0.0041876332834362
-0.0034281210973858
-0.0026143172290176
-0.0017230557277798
-0.0007468222174793
0.0003067778889089
0.0014171025250107
0.0025542948860675
0.0036838420201092
0.0047703706659376
0.0057810340076684
0.0066881570965051
0.0074692321941256
0.0081069497391581
0.0085926000028848
0.0089286910369992
0.0091272117570042
0.0092060267925262
0.0091862566769123
0.009090919047594
0.0089427456259727
0.0087607856839895
0.0085581531748175
0.0083413729444146
0.0081110838800668
0.0078650275245308
0.0076020555570721
0.0073242299258708
0.0070357457734644
0.0067402441054582
0.006439808756113
0.0061358013190329
0.0058289016596972
0.0055170571431517
0.0051914257928729
0.0048316423781216
0.0044010691344738
0.0038425144739449
0.0030785333365201
0.0020203506574034
0.0005853082984685
-0.0012805578298866
-0.0035812044516205
-0.0062582623213529
-0.0091924285516142
-0.0122173288837075
-0.0151413884013891
-0.0177730377763509
-0.0199444610625505
-0.0215306691825389
-0.0224609766155481
-0.0227208472788333
-0.0223466921597719
-0.0214174874126911
-0.0200438983738422
-0.0183546431362628
-0.0164827723056077
-0.0145549979060888
-0.0126830385997891
-0.0109558403491973
-0.0094340043142437
-0.008146695792675
-0.007091331295669
-0.0062374686822295
-0.0055344202555716
-0.0049209157004952
-0.0043344111181795
-0.0037188651040196
-0.0030319297220557
-0.0022501724306493
-0.0013701466377824
-0.000405874568969
0.0006150011904537
0.0016549592837691
0.0026711816899478
0.0036216094158589
0.0044712754897773
0.0051968521438539
0.0057872449979186
0.0062413471750915
0.0065664807334542
0.0067781354300677
0.0068997521884739
0.0069610169157385
0.0069929528981447
0.0070217186585068
0.0070650256238877
0.0071313553489744
0.0072200205177068
0.0073224324733018
0.0074257287196815
0.0075162309221923
0.0075791301205754
0.0075953523628413
0.007536357268691
0.0073565477505326
0.0069899605587124
0.0063587734475731
0.0053919581696391
0.0040467660874128
0.0023264894261956
0.0002897703088819
-0.0019521787762641
-0.0042508076876401
-0.0064435494132339
-0.0083782244473695
-0.0099326418712735
-0.0110276117920875
-0.0116337537765502
-0.0117711573839187
-0.0115003492683172
-0.0109079582616686
-0.010093874298036
-0.009160284884274
-0.0082003148272633
-0.0072886459529399
-0.0064757792279124
-0.0057849423028528
-0.0052118506282567
-0.004727859981358
-0.0042861560359597
-0.0038309963420033
-0.003308919025585
-0.0026780599728226
-0.0019126986153423
-0.001004870980978
3.3684540539979935e-05
0.001170486677438
0.0023561767302453
0.0035329482052475
0.0046432102099061
0.0056357653811573
0.0064704595133662
0.0071227522566914
0.0075863618403673
0.0078721763566136
0.0080052688717842
0.0080217216163873
0.0079645756632089
0.0078784208744764
0.0078032459132373
0.0077693499624729
0.0077948244288563
0.0078843999654054
0.0080291386693716
0.0082090999931097
0.0083990395069122
0.0085744271054863
0.0087157133966684
0.0088101681321859
0.0088519137352705
0.0088412947952747
0.0087827276438474
0.0086796758696436
0.0085284495726227
0.0083126816898584
0.0079973675310611
0.0075239264406263
0.0068128542043268
0.0057782442308962
0.0043506473302841
0.0024993848055601
0.0002477183006703
-0.0023209613282233
-0.0050682984292507
-0.0078192269429564
-0.0103885689750313
-0.0126076778396964
-0.0143448924645781
-0.0155167048797011
-0.0160905625671148
-0.0160821918398141
-0.0155487498268485
-0.0145792057737708
-0.0132839493453502
-0.0117834405973553
-0.0101956073194742
-0.0086250435560941
-0.0071560498327016
-0.0058483970351517
-0.0047355513088405
-0.0038259630091488
-0.0031061812769621
-0.0025442454498261
-0.0020944455172866
-0.0017047198489308
-0.0013241730630397
-0.000908154528588
-0.000421836040914
0.0001569520682096
0.0008359884377568
0.0016074797604233
0.0024486393667757
0.0033261971548199
0.0042027165181934
0.0050414884462952
0.0058103282935917
0.0064852642826735
0.0070529412478208
0.0075105163268744
0.0078640794381499
0.0081270337104797
0.0083183022215962
0.0084598222747445
0.0085732908919453
0.0086759626865386
0.0087769869714975
0.0088768182322382
0.008969297632575
0.0090443901717662
0.0090904608368873
0.0090960292145609
0.0090514905750751
0.0089506562799215
0.008791428990662
0.0085749020799994
0.008302591741085
0.0079719256609678
0.0075687603093683
0.00705745536834
0.0063747712410986
0.0054344851523637
0.0041445479728281
0.0024328753352165
0.0002725992817431
-0.0023024540860205
-0.0051953648217022
-0.0082558626309037
-0.0113000310957431
-0.0141359008848667
-0.0165893845260143
-0.0185252521187067
-0.0198591779917478
-0.0205595847219228
-0.0206420999020338
-0.0201613996177911
-0.0192027706652879
-0.0178730972111225
-0.0162907056510448
-0.0145742269232869
-0.0128321936354041
-0.011155167594552
-0.0096099581569433
-0.0082354638725519
-0.0070419311523437
-0.0060146441683173
-0.005120413377881
-0.0043144305236637
-0.0035467920824885
-0.002768840175122
-0.0019387304782867
-0.001026312354952
-1.6583595424890518e-05
0.0010896436870098
0.0022765127941966
0.0035144083667546
0.0047636651434004
0.0059808767400681
0.0071251550689339
0.0081625180318951
0.009068751707673
0.0098315142095088
0.0104509657248854
0.0109376441687345
0.0113080590963363
0.0115800406783819
0.0117699885740876
0.0118928235024213
0.0119625441730022
0.011991387233138
0.0119887590408325
0.0119608212262392
0.0119107030332088
0.0118397250771522
0.0117487469688057
0.0116386832669377
0.0115102026611566
0.0113617572933435
0.0111837405711412
0.010947779752314
0.0105964317917823
0.0100427521392703
0.0091836685314774
0.0079227993264794
0.006194784771651
0.0039852918125689
0.0013433295534923
-0.0016187912551686
-0.0047389408573508
-0.0078269364312291
-0.0106901926919817
-0.0131594128906726
-0.0151082994416356
-0.0164634305983781
-0.0172049719840288
-0.0173611287027597
-0.0169987566769123
-0.0162120517343282
-0.0151109918951988
-0.0138101959601044
-0.0124188223853707
-0.0110319908708333
-0.009724548086524
-0.0085476543754339
-0.00752695184201
-0.0066619692370295
-0.0059284563176333
-0.005284896120429
-0.0046811690554022
-0.0040652826428413
-0.0033878465183079
-0.0026073399931192
-0.0016963179223239
-0.0006458703428506
0.0005331351421773
0.0018124706111848
0.0031521585769951
0.0045067118480801
0.0058301747776567
0.0070804208517074
0.008222697302699
0.0092315794900059
0.010091932490468
0.0107997236773371
0.0113614052534103
0.0117907710373401
0.0121047217398881
0.0123202204704284
0.0124528370797634
0.0125153893604874
0.0125168524682521
0.0124635510146617
0.0123616699129343
0.0122178718447685
0.0120371859520673
0.0118205398321151
0.0115651758387684
0.0112682450562715
0.0109301162883639
0.010555038228631
0.0101500675082206
0.0097229024395346
0.0092769199982285
0.0088021904230117
0.0082640564069151
0.0075953868217766
0.0067001800052821
0.0054694721475243
0.0038053239695727
0.0016485396772623
-0.0009982446208596
-0.0040615014731884
-0.0074034249410033
-0.0108400136232376
-0.0141667388379573
-0.0171871781349182
-0.0197379942983388
-0.0217052083462476
-0.0230305008590221
-0.0237090364098548
-0.0237816385924816
-0.0233241487294435
-0.0224357582628726
-0.0212272088974714
-0.0198095999658107
-0.0182850509881973
-0.0167400445789098
-0.0152408964931964
-0.0138314068317413
-0.012533776462078
-0.0113514941185712
-0.0102720195427536
-0.009269768372178
-0.0083105890080332
-0.0073572662658989
-0.006374635733664
-0.0053340755403041
-0.0042177154682576
-0.0030211466364562
-0.0017532757483422
-0.0004334661643952
0.0009127282537519
0.0022568623535335
0.0035698683932423
0.0048254402354359
0.0060032112523913
0.0070893680676817
0.0080757113173604
0.0089586628600955
0.0097383791580796
0.010418084450066
0.0110035762190818
0.0115021066740155
0.0119208674877882
0.0122664039954543
0.0125447129830718
0.01276127807796
0.0129213128238916
0.0130293816328048
0.0130878956988453
0.0130968857556581
0.0130565175786614
0.0129693523049354
0.0128392614424228
0.0126692783087491
0.0124613232910633
0.0122164888307452
0.0119350366294384
0.0116167590022087
0.0112605271860957
0.0108624044805765
0.0104136411100626
0.0098963947966694
0.0092741679400205
0.0084830392152071
0.0074344710446894
0.0060332771390676
0.0042042885906994
0.0019169636070728
-0.0007991702295839
-0.0038512225728482
-0.0070929820649325
-0.0103455744683742
-0.0134222041815519
-0.016151214018464
-0.0183952301740646
-0.0200648792088031
-0.021123930811882
-0.0215848106890916
-0.0214984528720378
-0.0209435522556304
-0.0200171377509832
-0.0188259594142436
-0.0174771808087825
-0.0160688273608684
-0.0146826580166816
-0.0133792152628302
-0.012194138020277
-0.0111378822475671
-0.0101992078125476
-0.0093499245122075
-0.008549902588129
-0.007753487676382
-0.0069175669923424
-0.0060090674087405
-0.0050088623538613
-0.0039118081331253
-0.002725358819589
-0.0014674786943942
-0.0001632156781852
0.0011588339693844
0.0024689766578376
0.0037384545430541
0.0049414495006203
0.0060569876804947
0.0070703290402889
0.0079729007557034
0.0087614618241786
0.0094367554411292
0.0100014749914407
0.0104599483311176
0.0108198095113039
0.0110924085602164
0.0112912822514772
0.0114301946014165
0.0115210507065057
0.0115725733339786
0.0115909092128276
0.0115808835253119
0.0115463202819228
0.0114896800369024
0.0114118074998259
0.0113125396892428
0.0111915590241551
0.0110476091504096
0.0108760138973593
0.0106659596785902
0.0103960037231445
0.0100255217403173
0.0094881244003772
0.0086964312940835
0.0075591462664306
0.0060045318678021
0.0040023308247327
0.0015774094499647
-0.0011875457130372
-0.004159927368164
-0.0071739242412149
-0.0100527387112379
-0.0126310288906097
-0.0147728156298398
-0.0163832735270261
-0.0174145344644784
-0.0178651735186576
-0.0177742689847946
-0.0172133743762969
-0.0162778384983539
-0.0150763085111975
-0.0137186795473098
-0.0123047791421413
-0.0109163429588079
-0.0096130510792136
-0.008431227877736
-0.0073842038400471
-0.0064645200036466
-0.0056475419551134
-0.0048961141146719
-0.0041672568768262
-0.0034198542125523
-0.002619732171297
-0.0017417122144252
-0.0007717653643339
0.0002900124527513
0.0014288908569142
0.0026192171499133
0.0038292414974421
0.0050244135782122
0.0061705727130174
0.0072372602298855
0.0081994552165269
0.0090392287820577
0.0097481422126293
0.0103269703686237
0.0107823833823204
0.0111245727166533
0.0113661056384444
0.0115201668813824
0.0115993032231926
0.011615140363574
0.0115775242447853
0.0114929322153329
0.0113636581227183
0.0111892512068152
0.0109696378931403
0.0107065560296177
0.0104019651189446
0.0100573627278208
0.0096757439896464
0.0092630162835121
0.0088269002735614
0.0083745587617158
0.0079115200787782
0.0074417856521904
0.0069668954238295
0.0064847124740481
0.0059889825060963
0.005465951282531
0.0048857349902391
0.0041936943307518
0.0033096051774919
0.0021396097727119
0.0005988432094454
-0.0013650450855493
-0.0037545613013207
-0.0065126894041895
-0.0095238732174038
-0.0126272533088922
-0.0156380925327539
-0.0183730069547891
-0.0206754393875598
-0.0224348828196525
-0.0235944874584674
-0.0241484716534614
-0.0241346973925828
-0.0236252285540103
-0.0227142497897148
-0.0215050503611564
-0.0200999211519956
-0.0185931157320737
-0.0170650444924831
-0.0155776478350162
-0.0141717735677957
-0.0128669291734695
-0.011662664823234
-0.0105412937700748
-0.0094734746962785
-0.0084262955933809
-0.0073690693825483
-0.0062741748988628
-0.0051175002008676
-0.0038821080233901
-0.0025622006505727
-0.0011647378560155
0.0002909647300839
0.0017759369220584
0.0032557633239775
0.0046941908076405
0.0060570063069462
0.0073165246285498
0.0084529668092727
0.0094528198242187
0.0103084687143564
0.0110194161534309
0.0115929190069437
0.0120425764471292
0.0123847983777523
0.0126357851549983
0.0128105254843831
0.0129227302968502
0.012985254637897
0.0130100324749946
0.0130063593387603
0.0129788145422935
0.0129274893552064
0.0128508051857352
0.012747960165143
0.0126186553388834
0.0124614369124174
0.0122734121978282
0.0120514901354908
0.0117935929447412
0.0114992205053567
0.0111697176471352
0.0108079090714454
0.0104159675538539
0.0099919317290186
0.0095250504091382
0.0089882910251617
0.0083301551640033
0.0074738371185958
0.0063293976709246
0.0048157209530472
0.0028838510625064
0.0005336571484804
-0.0021801271941512
-0.0051506902091205
-0.0082288356497883
-0.0112400772050023
-0.0140078086405992
-0.0163771845400333
-0.0182333849370479
-0.0195110794156789
-0.0201950222253799
-0.0203139726072549
-0.0199313759803771
-0.0191359501332044
-0.01803276874125
-0.0167331062257289
-0.0153429433703422
-0.0139530776068568
-0.0126331495121121
-0.0114287687465548
-0.0103603452444076
-0.009424403309822
-0.0085986573249101
-0.0078492332249879
-0.0071363802999258
-0.0064178886823356
-0.0056530022993683
-0.0048079006373882
-0.0038609746843576
-0.0028054704889655
-0.0016482030041515
-0.0004071667790412
0.000889872200787
0.0022082168143242
0.0035110665485262
0.0047635119408369
0.0059342961758375
0.0069972947239875
0.0079341568052768
0.008736103773117
0.0094037326052784
0.0099459514021873
0.0103780571371316
0.0107187768444418
0.0109873516485095
0.0112015455961227
0.0113765122368931
0.0115241520106792
0.0116522815078496
0.0117636090144515
0.0118561303243041
0.0119256498292088
0.0119685977697372
0.0119827324524521
0.0119661893695592
0.0119168329983949
0.0118316430598497
0.011703971773386
0.0115159414708614
0.0112274279817938
0.0107695534825325
0.0100493906065821
0.0089661013334989
0.0074349967762827
0.0054129897616803
0.0029165900778025
2.729869447648525e-05
-0.0031155813485383
-0.0063327341340482
-0.0094291279092431
-0.012219276279211
-0.014548729173839
-0.0163093749433755
-0.0174478609114885
-0.0179656594991683
-0.0179103817790746
-0.0173627492040395
-0.0164245814085006
-0.0152080617845058
-0.0138250533491373
-0.0123779848217964
-0.0109534161165356
-0.0096176164224743
-0.0084132878109812
-0.0073576727882027
-0.0064434097148478
-0.0056431605480611
-0.0049173096194863
-0.0042218947783112
-0.0035144528374075
-0.0027582466136664
-0.0019258274696767
-0.0010016153100878
1.6348902136087418e-05
0.0011158927809447
0.0022731365170329
0.0034576549660414
0.0046377493999898
0.005783462896943
0.0068670753389596
0.0078631248325109
0.0087499693036079
0.0095122708007693
0.0101424222812056
0.0106403809040784
0.0110131269320845
0.0112739820033311
0.0114405918866395
0.0115312142297625
0.0115612000226974
0.0115423221141099
0.0114835929125547
0.011390758678317
0.0112663134932518
0.0111118508502841
0.0109306219965219
0.0107282530516386
0.0105112520977854
0.0102844387292861
0.0100497268140316
0.009806914255023
0.0095549523830413
0.0092918593436479
0.0090126255527138
0.0087065156549215
0.0083525348454713
0.0079102963209152
0.0073113422840833
0.0064603453502058
0.0052493172697722
0.003580851946026
0.0013942471705377
-0.0013121613301336
-0.0044696629047393
-0.0079430742189288
-0.011547714471817
-0.0150738600641489
-0.0183141976594924
-0.0210901815444231
-0.0232717245817184
-0.0247860699892044
-0.0256172604858875
-0.0257998760789632
-0.0254083350300788
-0.0245434269309043
-0.0233194567263126
-0.02185302041471
-0.0202538892626762
-0.0186185985803604
-0.0170249175280332
-0.0155265918001532
-0.0141504984349012
-0.0128968209028244
-0.0117422444745898
-0.010646803304553
-0.0095627177506685
-0.0084422277286648
-0.0072444500401616
-0.0059416517615318
-0.0045222239568829
-0.0029900369700044
-0.0013632480986416
0.000327662564814
0.0020445846021175
0.0037477377336472
0.005399964749813
0.0069688167423009
0.0084273926913738
0.0097541417926549
0.0109326606616377
0.011953305453062
0.0128151718527078
0.0135257299989461
0.0140985799953341
0.0145506262779235
0.0148991579189896
0.0151588730514049
0.0153393317013978
0.0154445841908454
0.0154750347137451
0.0154297333210706
0.0153079945594072
0.0151107879355549
0.014842752367258
0.0145135968923568
0.0141368247568607
0.0137267401441931
0.0132963629439473
0.0128561202436685
0.0124123580753803
0.0119675491005182
0.011522851884365
0.0110794650390744
0.0106370095163583
0.0101905912160873
0.0097251227125525
0.009205674752593
0.0085693076252937
0.0077247768640518
0.0065627084113657
0.0049761314876377
0.0028867959044873
0.0002697291783988
-0.0028305002488195
-0.0062970840372145
-0.0099539598450064
-0.0135902240872383
-0.0169889405369758
-0.0199545361101627
-0.0223339311778545
-0.0240294225513935
-0.0250041838735342
-0.0252800695598125
-0.0249276123940944
-0.0240516513586044
-0.0227769017219543
-0.0212356448173522
-0.0195577442646026
-0.0178615655750036
-0.0162452738732099
-0.0147794624790549
-0.0135017950087785
-0.0124149909242987
-0.0114895887672901
-0.0106720635667443
-0.0098971398547291
-0.0091002322733402
-0.0082268910482525
-0.0072385435923933
-0.0061151278205215
-0.0048555675894021
-0.0034750858321785
-0.002000015694648
-0.0004634978249669
0.0010973818134516
0.0026442201342433
0.0041399952024221
0.0055518462322652
0.0068535208702087
0.0080270925536751
0.0090633276849985
0.0099604185670614
0.010722329840064
0.0113580841571092
0.0118814837187528
0.0123096387833356
0.012660133652389
0.0129483882337808
0.0131864342838525
0.0133825521916151
0.0135412532836198
0.0136645771563053
0.013754392042756
0.0138135096058249
0.0138446567580103
0.013849071227014
0.013825761154294
0.0137702217325568
0.0136727094650268
0.0135149098932743
0.0132616283372044
0.0128505462780594
0.0121888490393757
0.0111629078164696
0.0096615189686417
0.0076059312559664
0.0049757226370275
0.001823307480663
-0.0017253173282369
-0.0054838620126247
-0.0092303417623043
-0.0127361593768
-0.0157936178147792
-0.0182395558804273
-0.0199717730283737
-0.0209538731724023
-0.0212090462446212
-0.0208085104823112
-0.0198589395731687
-0.0184895992279052
-0.0168392099440097
-0.0150433536618947
-0.0132236136123538
-0.0114788739010691
-0.009879071265459
-0.0084619158878922
-0.0072325048968195
-0.0061663719825446
-0.0052162930369377
-0.0043219621293246
-0.0034211641177535
-0.0024599749594926
-0.0014002714306116
-0.000224064104259
0.0010665655136108
0.002453179564327
0.0039052756037563
0.0053838514722883
0.0068448982201516
0.0082437014207243
0.0095400847494602
0.0107028298079967
0.0117113627493381
0.0125554576516151
0.0132350046187639
0.0137598291039466
0.0141475144773721
0.0144188944250345
0.01459401845932
0.0146903507411479
0.0147220864892005
0.0146994953975081
0.0146285919472575
0.0145119940862059
0.0143510550260543
0.0141486143693327
0.0139113422483205
0.0136498240754008
0.013375929556787
0.0130993379279971
0.0128247626125812
0.0125505262985825
0.0122692566365003
0.0119700636714696
0.0116399759426712
0.0112640876322984
0.0108236102387309
0.0102882198989391
0.009603664278984
0.0086842002347111
0.0074195908382534
0.0056976377964019
0.0034339958801865
0.0005985535681247
-0.002768627833575
-0.0065545295365154
-0.0105835795402526
-0.0146396188065409
-0.0184949655085802
-0.0219391919672489
-0.0248023401945829
-0.0269713494926691
-0.0283972080796957
-0.0290906652808189
-0.0291114598512649
-0.0285567883402109
-0.0275487191975116
-0.0262203756719827
-0.0247029811143875
-0.0231144558638334
-0.0215500481426715
-0.0200765579938888
-0.0187306478619575
-0.0175203066319227
-0.0164284147322177
-0.015417537651956
-0.0144368316978216
-0.0134312659502029
-0.0123502919450402
-0.0111542688682675
-0.0098192179575562
-0.0083392243832349
-0.0067259296774864
-0.0050062146037817
-0.0032183730509132
-0.0014060325920581
0.0003889389336109
0.0021313703618943
0.0037945630028843
0.0053606214933097
0.0068202279508113
0.0081714987754821
0.0094179958105087
0.0105662867426872
0.0116230789572
0.0125927068293094
0.013477124273777
0.0142785646021366
0.0150011796504259
0.015649490058422
0.0162263102829456
0.0167322605848312
0.0171659383922815
0.0175242647528648
0.0178033113479614
0.0179993771016597
0.0181101001799106
0.0181355141103267
0.0180783495306968
0.017943250015378
0.0177361480891704
0.0174644161015748
0.0171359069645404
0.0167553946375846
0.0163179486989974
0.0157983247190713
0.0151391346007585
0.0142471278086304
0.0130047257989645
0.0112943407148122
0.0090272743254899
0.0061695179902017
0.0027593909762799
-0.0010872557759284
-0.0051877480000257
-0.0093169063329696
-0.0132372202351689
-0.0167278833687305
-0.0196098256856203
-0.0217647179961204
-0.0231433752924203
-0.0237618722021579
-0.0236901585012674
-0.0230383910238742
-0.0219424776732921
-0.0205481518059968
-0.0189954210072755
-0.0174073837697505
-0.0158836897462606
-0.01449556928128
-0.0132817141711711
-0.012248096987605
-0.0113734109327197
-0.0106175048276782
-0.0099302530288696
-0.0092596411705017
-0.00855746679008
-0.007782943546772
-0.0069063575938344
-0.0059127947315573
-0.0048031732439994
-0.0035912091843783
-0.0022986212279647
-0.0009512291289865
0.0004234148655086
0.0017977461684495
0.003146335016936
0.0044478042982518
0.0056854616850614
0.0068473927676677
0.0079267937690019
0.0089215543121099
0.0098322499543428
0.0106597300618886
0.0114046772941946
0.0120692756026983
0.0126576786860823
0.0131740681827068
0.0136210629716515
0.0139998700469732
0.0143110919743776
0.0145551254972815
0.0147320982068777
0.0148417893797159
0.014883947558701
0.0148587543517351
0.0147664900869131
0.0146061042323708
0.0143702449277043
0.0140338335186243
0.0135410735383629
0.0128013733774423
0.0117005268111824
0.0101254060864448
0.0079941377043724
0.0052817603573203
0.0020345193333923
-0.0016285581514239
-0.0055255214683711
-0.0094322822988033
-0.0131112309172749
-0.016340697184205
-0.0189406611025333
-0.0207921117544174
-0.0218455754220485
-0.0221178866922855
-0.0216828342527151
-0.0206592865288257
-0.0191955864429473
-0.0174519605934619
-0.0155842518433928
-0.0137299140915274
-0.0119979344308376
-0.0104630887508392
-0.0091625098139047
-0.0080953128635883
-0.0072275614365935
-0.0065009426325559
-0.0058425683528184
-0.0051764054223895
-0.0044352542608976
-0.0035694113466888
-0.002550539560616
-0.0013725231401622
-5.0537753850221634e-05
0.0013829167000949
0.0028846568893641
0.0044068731367588
0.0059015545994043
0.0073245605453848
0.0086395302787423
0.0098202796652913
0.0108509650453925
0.0117252822965383
0.0124460272490978
0.0130244959145784
0.0134782940149307
0.0138272438198328
0.0140895461663603
0.0142801636829972
0.0144102172926068
0.0144866444170475
0.0145123898983001
0.014487013220787
0.014409078285098
0.0142791308462619
0.0141001883894205
0.0138770025223493
0.0136166103184223
0.0133294332772493
0.0130287054926157
0.0127274002879858
0.0124336872249841
0.0121450908482074
0.0118389576673507
0.0114595107734203
0.010909566655755
0.0100556146353483
0.0087478403002023
0.0068506002426147
0.0042752427980303
0.0010069608688354
-0.002880036830902
-0.0072236619889736
-0.0117932967841625
-0.0163225419819355
-0.0205464251339435
-0.0242347922176122
-0.0272156074643135
-0.0293860659003257
-0.0307133123278617
-0.0312268231064081
-0.0310049261897802
-0.030159655958414
-0.0288237519562244
-0.0271404739469289
-0.025253627449274
-0.0232959743589162
-0.02137759514153
-0.0195770356804132
-0.0179371442645788
-0.016466025263071
-0.0151416407898068
-0.0139182824641466
-0.0127347186207771
-0.011524885892868
-0.0102296946570277
-0.008805664256215
-0.0072278487496078
-0.0054895104840397
-0.0036019878461956
-0.0015938309952616
0.0004927674308419
0.0026071602478623
0.0046962075866758
0.0067102489992976
0.0086069321259856
0.0103527391329407
0.011923924088478
0.0133074894547462
0.014502084814012
0.0155181363224983
0.0163755640387535
0.017098905518651
0.0177116654813289
0.018232075497508
0.0186719670891761
0.0190380029380321
0.0193328969180583
0.0195563808083534
0.0197070147842168
0.0197842940688133
0.0197895541787147
0.0197257827967405
0.0195969138294458
0.0194063149392604
0.0191557090729475
0.0188458263874053
0.0184777583926916
0.0180535521358251
0.0175755508244037
0.0170439984649419
0.0164495296776294
0.0157581772655248
0.0148975076153874
0.0137570276856422
0.0122058419510722
0.0101211816072463
0.0074198157526552
0.0040844990871846
0.0001789405941963
-0.004151829984039
-0.0086955223232507
-0.0131989363580942
-0.0174025185406208
-0.0210752710700035
-0.0240408405661582
-0.0261913686990737
-0.0274910889565944
-0.0279712043702602
-0.0277179069817066
-0.0268574468791484
-0.0255404561758041
-0.0239255111664533
-0.02216362580657
-0.0203860439360141
-0.0186952650547027
-0.0171592999249696
-0.015809990465641
-0.0146447252482175
-0.0136304916813969
-0.0127107938751578
-0.0118164652958512
-0.0108784651383757
-0.0098381843417882
-0.0086538158357143
-0.0073047298938035
-0.005794249009341
-0.0041482215747237
-0.0024088397622108
-0.0006273898761719
0.0011417204514145
0.0028460195753723
0.0044399285688996
0.0058895945549011
0.007175741251558
0.008293317630887
0.009248724207282
0.010056359693408
0.0107359588146209
0.0113098667934536
0.011799388565123
0.0122220795601606
0.0125917140394449
0.0129193812608718
0.0132131371647119
0.0134771429002285
0.0137126129120588
0.0139195164665579
0.0140971541404724
0.0142441187053918
0.0143577847629785
0.0144328400492668
0.0144605273380875
0.014429829083383
0.0143275028094649
0.0141311809420585
0.0137949837371706
0.0132380509749054
0.0123477261513471
0.010998910292983
0.0090838028118014
0.0065437597222626
0.0033937254920601
-0.000268145930022
-0.0042676762677729
-0.0083762574940919
-0.0123421363532543
-0.0159242302179336
-0.0189202353358268
-0.0211846586316823
-0.0226378105580806
-0.0232681222259998
-0.0231277253478765
-0.0223202500492334
-0.0209840908646583
-0.0192759595811367
-0.0173561628907918
-0.0153758255764842
-0.013465067371726
-0.0117217916995286
-0.0102051263675093
-0.0089351935312151
-0.0078962445259094
-0.0070430105552077
-0.0063110152259469
-0.0056280335411429
-0.0049240407533943
-0.0041394867002964
-0.0032320183236151
-0.0021801330149173
-0.0009832424111664
0.0003401120193302
0.0017559949774295
0.0032216808758676
0.0046931561082601
0.0061300485394895
0.0074974168092012
0.008767569437623
0.0099226757884025
0.0109554510563611
0.0118679516017436
0.0126704452559351
0.0133793391287326
0.0140129253268241
0.0145863257348537
0.0151071585714817
0.0155737372115254
0.0159770231693983
0.0163041539490222
0.0165413655340671
0.0166765544563531
0.0167017877101898
0.0166149958968162
0.0164197888225317
0.0161237958818674
0.0157374646514654
0.0152737237513065
0.0147473495453596
0.0141730606555938
0.0135625703260302
0.0129222683608531
0.0122495731338858
0.0115223061293363
0.0106840599328279
0.0096382964402437
0.0082595953717827
0.0064189499244093
0.0040146810933947
0.001001326367259
-0.002590334508568
-0.0066475942730903
-0.0109866587445139
-0.01537752058357
-0.0195756386965513
-0.0233525782823562
-0.0265212878584861
-0.0289539322257041
-0.0305899158120155
-0.0314328484237194
-0.0315396711230278
-0.0310070682317018
-0.0299576800316572
-0.0285273063927888
-0.0268538258969783
-0.0250668749213218
-0.0232778973877429
-0.0215715412050485
-0.0200002081692218
-0.0185835342854261
-0.0173114985227584
-0.0161483939737081
-0.0150388972833752
-0.0139184799045324
-0.0127252405509352
-0.0114085469394922
-0.0099337948486208
-0.0082844663411378
-0.0064621674828231
-0.004485567100346
-0.0023888191208243
-0.0002182349562644
0.0019729887135326
0.0041294228285551
0.0061963540501892
0.0081232134252786
0.0098687550053
0.011405985802412
0.0127250552177429
0.013833375647664
0.0147521141916513
0.0155110601335763
0.0161436684429645
0.0166805274784564
0.0171422529965639
0.0175354368984699
0.0178518816828727
0.0180695187300443
0.0181548651307821
0.0180671140551567
0.0177633129060268
0.0172049459069967
0.0163662265986204
0.0152433011680841
0.0138608962297439
0.0122718326747417
0.0105505846440792
0.0087861465290188
0.0070757139474153
0.0055175181478261
0.0042013023048639
0.0031932801939547
0.0025142894592136
0.0021199267357587
0.0018958126893267
0.0016735987737774
0.0012647046241909
0.0005030487664043
-0.0007152073085308
-0.0024063591845333
-0.0044947862625122
-0.0068281451240181
-0.0092057306319475
-0.0114132016897201
-0.0132572259753942
-0.0145927667617797
-0.0153373163193464
-0.0154716856777668
-0.0150308618322014
-0.0140895098447799
-0.0127461655065417
-0.0111087597906589
-0.0092836255207657
-0.0073688947595655
-0.0054512647911906
-0.0036041648127138
-0.0018850727938115
-0.0003323419950902
0.0010365596972405
0.0022247303277254
0.0032532890327274
0.004157050512731
0.0049794893711805
0.005767302121967
0.0065637412481009
0.0074015720747411
0.008298591710627
0.0092565510421991
0.0102622080594301
0.011290717869997
0.0123116299510002
0.0132943373173475
0.0142098478972911
0.015031055547297
0.0157347358763217
0.0163041539490222
0.0167304873466491
0.0170131828635931
0.0171590205281972
0.0171797648072242
0.0170894637703895
0.0169020183384418
0.0166292525827884
0.0162805989384651
0.0158644169569015
0.015388754196465
0.014861250296235
0.0142895076423883
0.0136810634285211
0.0130421724170446
0.0123769538477063
0.0116879288107156
0.0109765557572245
0.0102425990626215
0.0094808805733919
0.0086722560226917
0.0077694924548268
0.0066860876977443
0.005298669449985
0.003467883914709
0.00107101816684
-0.0019653644412755
-0.0056394012644886
-0.0098599009215831
-0.0144511014223098
-0.0191757064312696
-0.0237679276615381
-0.0279688164591789
-0.0315576568245887
-0.0343736261129379
-0.0363251790404319
-0.037388689815998
-0.0376007035374641
-0.0370474457740783
-0.0358521975576877
-0.0341613963246345
-0.0321314148604869
-0.0299159809947013
-0.0276538301259279
-0.025457601994276
-0.0234056152403354
-0.0215385481715202
-0.0198614746332168
-0.018349539488554
