bvp
0.0011215647682547
0.0025743942242115
0.0039389510639011
0.0051742908544838
0.0062505565583705
0.0071508926339447
0.0078734522685408
0.0084295086562633
0.0088378433138132
0.009119396097958
0.0092944735661149
0.0093817394226789
0.0093975160270929
0.00935600977391
0.0092711271718144
0.0091574219986796
0.0090281320735812
0.0088921776041388
0.0087516028434038
0.0085966400802135
0.0083963694050908
0.0080901607871055
0.0075883320532739
0.006786273792386
0.0055898590944707
0.0039436630904674
0.0018516436684876
-0.0006148476968519
-0.0033215577714145
-0.0060870586894452
-0.0087072253227233
-0.0109833301976323
-0.0127481538802385
-0.0138855753466486
-0.0143406558781862
-0.0141200451180338
-0.0132850622758269
-0.0119407027959823
-0.0102228941395878
-0.0082846879959106
-0.0062814503908157
-0.0043561956845223
-0.0026269683148711
-0.0011779349297285
-5.585048347711563e-05
0.0007282043807208
0.0011952244676649
0.0013954332098364
0.00140365306288
0.0013087426777929
0.0011988687328994
0.001149468589574
0.0012167068198323
0.0014330106787383
0.0017996421083807
0.0022758820559829
0.0027745710685849
0.00317536550574
0.003355675144121
0.0032272543758153
0.002763055730611
0.0020058546215295
0.0010598334483802
7.134582847356796e-05
-0.0007951338775455
-0.0013810778036713
-0.0015525463968515
-0.0012104627676308
-0.0002951268106698
0.0012113689444959
0.0032835258170962
0.0058512324467301
0.0088005205616354
0.0119796600192785
0.0152111239731311
0.0183069091290235
0.0210834182798862
0.0233705416321754
0.0250140856951475
0.0258786603808403
0.0258575305342674
0.0248901899904012
0.022983007133007
0.0202232096344232
0.0167778804898262
0.0128782540559768
0.0087944939732551
0.0048048850148916
0.0011640728916972
-0.0019233303610235
-0.0043202619999647
-0.0059652794152498
-0.0068701580166816
-0.0071084219962358
-0.0067995088174939
-0.0060912203043699
-0.0051414314657449
-0.0041014486923813
-0.0031028999947011
-0.0022485905792564
-0.0016076542669907
-0.0012147142551839
-0.0010714307427406
-0.0011496506631374
-0.0013975317124277
-0.0017499476671218
-0.0021406523883342
-0.0025106514804065
-0.0028114533051848
-0.0030067446641623
-0.003073924453929
-0.003005048725754
-0.0028071552515029
-0.0025005920324474
-0.0021149655804038
-0.0016848547384142
-0.0012463768944144
-0.0008334354497492
-0.0004725689068436
-0.0001786057837307
4.532979801297188e-05
0.0002037566155195
0.0003035375848412
0.0003500059247016
0.0003456999547779
0.0002904958091676
0.0001818924210965
1.575285568833351e-05
-0.0002117645926773
-0.0005016108043491
-0.0008502178825438
-0.0012494353577494
-0.0016870941035449
-0.0021481327712535
-0.0026173260994255
-0.0030835280194878
-0.0035453606396913
-0.0040183579549193
-0.00454011419788
-0.0051686074584722
-0.0059724664315581
-0.0070155458524823
-0.0083386283367872
-0.0099416654556989
-0.0117728887125849
-0.0137295555323362
-0.0156700704246759
-0.0174350142478942
-0.0188720598816871
-0.0198580715805292
-0.020314248278737
-0.0202130358666181
-0.0195770021528005
-0.0184705611318349
-0.0169870108366012
-0.0152356196194887
-0.013332282193005
-0.011392118409276
-0.009520917199552
-0.0078064077533781
-0.0063117388635873
-0.0050717741250991
-0.004092987626791
-0.0033567158970981
-0.0028242412954568
-0.0024424281436949
-0.0021485986653715
-0.0018757190555334
-0.0015605764929205
-0.0011534015648066
-0.000623635482043
3.996770828962326e-05
0.0008313842117786
0.0017291295807808
0.0026991928461939
0.0036999818403273
0.0046882387250661
0.0056247534230351
0.0064786728471517
0.007228912319988
0.0078632850199937
0.008377706632018
0.0087759122252464
0.0090683540329337
0.0092695942148566
0.0093957036733627
0.0094634946435689
0.0094905383884906
0.0094938967376947
0.0094879064708948
0.009483041241765
0.0094862794503569
0.0095013920217752
0.0095276990905404
0.0095572788268327
0.0095707485452294
0.0095310686156153
0.0093790106475353
0.009037273004651
0.0084249265491962
0.0074774767272174
0.0061654443852603
0.0045063868165016
0.0025693685747683
0.0004713791422545
-0.0016352287493646
-0.0035831145942211
-0.0052138050086796
-0.0063991979695856
-0.0070569654926657
-0.007158235181123
-0.0067270142026245
-0.0058331503532826
-0.004581990186125
-0.0031016715802252
-0.0015280796214938
9.3141570687294e-06
0.0013980022631585
0.0025503765791654
0.0034098634496331
0.0039548370987176
0.004199530929327
0.004190569743514
0.0039984877221286
0.0037058582529425
0.0033953685779124
0.0031404139008373
0.0029987797606736
0.0030080927535891
0.0031825567129999
0.0035133103374391
0.0039728987030684
0.0045210337266325
0.0051109436899423
0.0056960703805089
0.0062342365272343
0.0066898809745907
0.0070373453199863
0.007264161016792
0.0073719900101423
0.0073740864172577
0.0072901472449302
0.0071424562484025
0.0069544976577162
0.0067488010972738
0.0065435217693448
0.0063494513742625
0.0061662415973842
0.0059763649478554
0.0057388097047805
0.0053869257681071
0.0048348135314881
0.0039936690591275
0.0027935474645346
0.001203371793963
-0.0007551657035946
-0.0030027222819626
-0.0054087778553366
-0.0078083290718495
-0.0100246910005807
-0.0118938134983181
-0.0132855512201786
-0.0141179161146283
-0.0143623743206262
-0.0140412775799632
-0.0132209481671452
-0.0120026636868715
-0.010510804131627
-0.00887918099761
-0.0072388923726975
-0.0057085915468633
-0.0043856091797351
-0.0033377658110111
-0.002598081016913
-0.0021638176403939
-0.0019992461893707
-0.0020421599037945
-0.0022133071906864
-0.0024261835496872
-0.0025972472503781
-0.0026563075371086
-0.0025528939440846
-0.002257493790239
-0.0017609703354537
-0.001073008403182
-0.0002185569610446
0.00076628732495
0.0018377106171101
0.0029480904340744
0.0040505426004529
0.0051028877496719
0.0060699707828462
0.0069242189638316
0.0076458402909338
0.0082234665751457
0.008654267527163
0.0089425817131996
0.0090974513441324
0.0091299982741475
0.0090517662465572
0.0088746668770909
0.0086090741679072
0.0082543157041072
0.0077842087484896
0.0071401298046112
0.0062389289960265
0.00499216793105
0.0033307899720966
0.0012287760619074
-0.0012818776303902
-0.0041081765666604
-0.0071034608408808
-0.0100832162424921
-0.0128474682569503
-0.015205793082714
-0.0170004647225141
-0.0181243661791086
-0.0185309816151857
-0.0182353369891643
-0.0173075161874294
-0.0158611349761486
-0.0140383662655949
-0.0119940405711531
-0.0098808761686086
-0.0078360782936215
-0.0059704864397645
-0.0043616681359708
-0.0030509904026985
-0.0020435089245438
-0.0013102451339364
-0.0007945913821458
-0.0004227543249726
-0.0001147221773862
0.0002066460438072
0.0006080949679017
0.0011394703760743
0.001828983426094
0.0026819352060556
0.0036830357275903
0.0047996127977967
0.0059854006394743
0.0071875974535942
0.0083558391779661
0.0094485767185688
0.0104357497766613
0.0112991333007812
0.0120304962620139
0.0126281976699829
0.0130941020324826
0.0134314391762018
0.0136439837515354
0.0137373991310596
0.0137212984263896
0.0136088971048593
0.0134130092337727
0.0131383724510669
0.0127706667408347
0.0122662233188748
0.0115489577874541
0.0105181485414505
0.0090679703280329
0.0071163116954267
0.0046339123509824
0.0016634372295811
-0.0016769532812759
-0.0052049355581402
-0.0086962021887302
-0.0119132474064826
-0.0146355237811803
-0.0166854970157146
-0.0179474428296089
-0.0183772258460521
-0.0180021133273839
-0.0169119890779256
-0.01524537242949
-0.0131720006465911
-0.0108733903616666
-0.008526393212378
-0.006292100995779
-0.0043053235858678
-0.0026626149192452
-0.0014139811974018
-0.0005617416463792
-6.596464663743973e-05
0.0001448683906346
0.0001607702579349
7.775472477078438e-05
-1.303921453654766e-05
-3.423169255256653e-05
7.155747152864933e-05
0.000338441459462
0.000777498120442
0.0013807378709316
0.0021273647435009
0.0029894385952502
0.0039355107583105
0.0049336445517838
0.0059540420770645
0.0069701466709375
0.0079589895904064
0.0089011900126934
0.0097801331430673
0.0105816377326846
0.0112947793677449
0.0119118392467498
0.0124266296625137
0.0128332888707518
0.0131266796961426
0.0133028756827116
0.0133569268509745
0.0132751790806651
0.0130226165056228
0.0125323440879583
0.0117059610784053
0.0104277376085519
0.0085903694853186
0.0061271698214113
0.0030409125611186
-0.0005815844051539
-0.0045730886049568
-0.0087051521986722
-0.0127179659903049
-0.0163540840148925
-0.0193886812776327
-0.0216523203998804
-0.0230450201779603
-0.0235407687723636
-0.0231833159923553
-0.0220762938261032
-0.0203698799014091
-0.0182440001517534
-0.0158888977020978
-0.0134861171245574
-0.0111925154924392
-0.00912790838629
-0.0073670293204486
-0.0059376712888479
-0.0048252926208078
-0.0039816191419959
-0.0033350330777466
-0.0028022429905831
-0.0023000258952379
-0.0017553942743688
-0.001114048413001
-0.0003456347621977
0.0005562233272939
0.0015773944323882
0.0026879599317908
0.0038480027578771
0.0050138784572482
0.0061438987031579
0.0072025679983198
0.0081626567989587
0.0090049365535378
0.0097169168293476
0.0102924220263957
0.0107312686741352
0.0110380183905363
0.0112213399261236
0.0112939765676856
0.0112695666030049
0.0111520905047655
0.0109187383204698
0.0105064120143651
0.0098138870671391
0.0087215015664696
0.0071212039329111
0.0049476157873868
0.0022023164201527
-0.0010339086875319
-0.004603580571711
-0.0082889730110764
-0.0118388663977384
-0.0150008639320731
-0.0175532735884189
-0.0193311534821987
-0.0202425774186849
-0.0202726759016513
-0.0194778535515069
-0.0179745536297559
-0.0159244239330291
-0.0135175315663218
-0.0109547860920429
-0.0084297191351652
-0.0061112712137401
-0.0041290489025413
-0.0025620148517191
-0.0014335238374769
-0.0007146163843572
-0.0003333487547934
-0.0001872316934168
-0.0001574396155774
-0.0001235515810549
2.2772233933210373e-05
0.000367144588381
0.0009655402973294
0.0018409877084195
0.002984594553709
0.0043608760461211
0.0059158182702958
0.0075847641564905
0.0092990519478917
0.0109926639124751
0.0126076843589544
0.0140971019864082
0.0154261197894811
0.0165726952254772
0.0175269488245248
0.0182894356548786
0.0188686419278383
0.0192785505205392
0.0195367373526096
0.0196615550667047
0.0196671783924102
0.0195559170097112
0.0193059500306844
0.0188565403223037
0.0180999711155891
0.0168891306966543
0.0150626013055443
0.0124823274090886
0.009074417874217
0.0048619313165545
-1.9706087186932564e-05
-0.0053301327861845
-0.0107532190158963
-0.0159399285912513
-0.020554419606924
-0.0243149884045124
-0.0270244888961315
-0.0285861399024724
-0.0290032941848039
-0.0283673238009214
-0.0268394518643617
-0.0246294159442186
-0.0219721719622612
-0.0191043317317962
-0.0162423253059387
-0.0135638080537319
-0.0111942756921052
-0.009200407192111
-0.0075904196128249
-0.0063214511610567
-0.0053128777071833
-0.0044627175666391
-0.0036640441976487
-0.0028189811855554
-0.001849653199315
-0.0007068431004881
0.0006253700703382
0.0021314981859177
0.0037715816870331
0.0054897321388125
0.0072221369482576
0.0089044449850916
0.0104784704744815
0.0118969306349754
0.0131265185773372
0.0141498427838087
0.0149647872895002
0.0155812297016382
0.0160170812159776
0.0162944998592138
0.0164361428469419
0.0164624191820621
0.0163910910487175
0.0162380300462245
0.0160174872726202
0.0157425813376903
0.0154261561110615
0.0150796137750148
0.0147054074332118
0.0142809636890888
0.0137399267405271
0.0129626737907528
0.0117854326963424
0.010029430501163
0.0075432220473885
0.0042463690042495
0.0001623374409973
-0.0045688636600971
-0.0097016999498009
-0.0149156851693987
-0.0198581628501415
-0.0241911578923463
-0.0276335906237363
-0.0299908202141523
-0.0311672482639551
-0.0311655607074499
-0.0300781223922967
-0.0280711762607097
-0.025363253429532
-0.0222015902400016
-0.0188383888453245
-0.0155078256502747
-0.0124067310243844
-0.009681299328804
-0.0074178222566843
-0.0056371353566646
-0.0042982790619134
-0.0033125865738838
-0.0025618271902203
-0.0019158883951604
-0.0012499601580202
-0.0004606889560818
0.0005218633450567
0.0017296539153903
0.0031590219587087
0.0047769406810402
0.0065289721824228
0.0083484984934329
0.0101664923131465
0.0119192879647016
0.0135533399879932
0.0150281321257352
0.016317680478096
0.0174101367592811
0.0183047726750373
0.0190075039863586
0.0195278190076351
0.0198777429759502
0.0200712662190198
0.0201234929263591
0.0200499985367059
0.0198658816516399
0.0195836573839187
0.019211808219552
0.0187557898461818
0.0182179696857929
0.0175897851586341
0.0168357584625482
0.0158789604902267
0.0145985148847103
0.0128434086218476
0.0104613732546567
0.0073363599367439
0.0034248009324073
-0.0012185014784336
-0.0064314920455217
-0.0119555667042732
-0.0174645967781543
-0.0226072631776332
-0.0270531754940748
-0.0305330157279968
-0.0328660197556018
-0.0339715853333473
-0.0338679626584053
-0.0326636657118797
-0.0305431298911571
-0.0277464166283607
-0.0245441608130931
-0.0212094169110059
-0.0179899968206882
-0.0150856934487819
-0.0126318773254752
-0.0106904981657862
-0.0092502143234014
-0.0082360077649354
-0.0075268475338816
-0.0069776298478245
-0.0064407470636069
-0.005784748122096
-0.0049088411033153
-0.0037520295009016
-0.0022963066585361
-0.0005632385145872
0.0013945112004876
0.0035025463439524
0.0056742904707789
0.0078220255672931
0.0098670274019241
0.0117456186562776
0.0134112760424613
0.0148353390395641
0.0160075798630714
0.0169348828494548
0.017637200653553
0.0181424748152494
0.0184820853173732
0.0186877623200416
0.0187899637967348
0.0188166368752717
0.0187909491360187
0.0187262296676635
0.0186152644455432
0.0184132307767868
0.0180222019553184
0.0172893404960632
0.0160247012972831
0.0140371192246675
0.0111796986311674
0.0073917522095143
0.0027267117984592
-0.0026402082294225
-0.0084274504333734
-0.0142823420464992
-0.0198275651782751
-0.0247086361050605
-0.028633315116167
-0.0313987210392952
-0.0329056456685066
-0.0331601575016975
-0.0322644039988517
-0.0303995888680219
-0.027802737429738
-0.0247389636933803
-0.0214732773602008
-0.0182461738586425
-0.0152541678398847
-0.0126355942338705
-0.010463086888194
-0.0087433839216828
-0.0074245044961571
-0.00640962831676
-0.0055750203318893
-0.0047887973487377
-0.0039283754304051
-0.0028949892148375
-0.0016233958303928
-8.590519428253174e-05
0.0017082532867789
0.0037175556644797
0.0058771017938852
0.0081101916730403
0.0103387320414185
0.0124908359721302
0.0145062254741787
0.0163394138216972
0.0179610606282949
0.0193579103797674
0.0205300860106945
0.0214861780405044
0.022239651530981
0.0228079445660114
0.023211520165205
0.0234712082892656
0.0236059222370386
0.0236325375735759
0.0235673449933528
0.0234274566173553
0.0232301745563745
0.0229885838925838
0.022700123488903
0.0223259553313255
0.0217691902071237
0.0208669081330299
0.0194051284343004
0.0171571411192417
0.0139371119439601
0.0096526239067316
0.0043410779908299
-0.001816657371819
-0.0085083963349461
-0.015328636392951
-0.0218338966369628
-0.0276020355522632
-0.0322845727205276
-0.0356436446309089
-0.0375683940947055
-0.038071721792221
-0.0372736491262912
-0.0353773534297943
-0.0326409041881561
-0.0293482281267642
-0.0257823690772056
-0.0222009699791669
-0.0188147295266389
-0.0157724916934967
-0.0131548549979925
-0.0109750209376215
-0.0091859847307205
-0.0076936753466725
-0.0063740843906998
-0.0050919903442263
-0.0037199012003839
-0.0021551828831434
-0.0003322167322039
0.0017723720520734
0.0041412971913814
0.0067235035821795
0.009443650022149
0.012212049216032
0.0149349868297576
0.0175247490406036
0.01990707218647
0.0220252126455307
0.0238413326442241
0.0253359824419021
0.0265065506100654
0.0273642614483833
0.027929438278079
0.0282276198267936
0.0282880067825317
0.0281421858817338
0.0278221685439348
0.0273592490702867
0.0267834309488534
0.0261218510568141
0.025396866723895
0.0246250927448272
0.0238178167492151
0.0229809805750846
0.0221096072345972
0.0211727656424045
0.0200925190001726
0.0187282487750053
0.0168802943080663
0.014319784939289
0.0108387237414717
0.0063055045902729
0.0007105469703674
-0.005810054950416
-0.0129793994128704
-0.0204111710190773
-0.0276599749922752
-0.0342810451984405
-0.0398871377110481
-0.0441914126276969
-0.047030784189701
-0.0483700633049011
-0.0482914336025714
-0.0469749458134174
-0.0446729138493537
-0.0416798889636993
-0.0383012592792511
-0.0348234698176384
-0.0314878784120082
-0.0284709967672824
-0.0258731581270694
-0.023715753108263
-0.0219478327780962
-0.020461581647396
-0.0191138703376054
-0.0177519638091325
-0.0162387806922197
-0.0144709162414073
-0.0123884137719869
-0.0099786333739757
-0.0072740674950182
-0.004343778360635
-0.0012802830897271
0.0018145940266549
0.0048422529362142
0.0077175167389214
0.0103757921606302
0.0127765582874417
0.0149032473564147
0.0167600288987159
0.0183668043464422
0.0197532922029495
0.0209522303193807
0.0219929181039333
0.022897059097886
0.0236772913485765
0.0243381187319755
0.0248787440359592
0.0252955164760351
0.0255838930606842
0.0257423985749483
0.0257760658860206
0.0256945416331291
0.0255041867494583
0.0251937992870807
0.0247138123959302
0.0239573810249567
0.0227572508156299
0.0209060665220022
0.0181985609233379
0.014485839754343
0.0097260400652885
0.0040161344222724
-0.0024052527733147
-0.0091841295361518
-0.0158971212804317
-0.0221071690320968
-0.0274192802608013
-0.0315253585577011
-0.0342319756746292
-0.0354712605476379
-0.0352970473468303
-0.0338692888617515
-0.0314306356012821
-0.0282782055437564
-0.0247322879731655
-0.0211048237979412
-0.0176702812314033
-0.0146402716636657
-0.0121452203020453
-0.0102270385250449
-0.0088437972590327
-0.0078847538679838
-0.0071926773525774
-0.0065897931344807
-0.0059041399508714
-0.0049930103123188
-0.0037591382861137
-0.0021575465798377
-0.0001950347796082
0.0020760837942361
0.0045701782219111
0.007183738052845
0.0098087769001722
0.0123434755951166
0.0147023722529411
0.0168237052857875
0.0186716485768556
0.0202362164855003
0.0215306859463453
0.0225845016539096
0.0234356466680765
0.0241256039589643
0.024694375693798
0.0251751318573951
0.0255904179066419
0.0259507447481155
0.0262559857219457
0.0264984127134084
0.0266656093299388
0.0267423223704099
0.0267087928950786
0.0265317857265472
0.0261465907096862
0.025436071678996
0.0242218691855669
0.0222813058644533
0.0193898044526577
0.0153769180178642
0.0101807070896029
0.0038850679993629
-0.0032725818455219
-0.0109261823818087
-0.0186297483742237
-0.0259174816310405
-0.0323636494576931
-0.0376310832798481
-0.0415008775889873
-0.0438813120126724
-0.0447991639375686
-0.0443807318806648
-0.0428279265761375
-0.0403915457427501
-0.0373450852930545
-0.0339615903794765
-0.0304919406771659
-0.0271440260112285
-0.0240662992000579
-0.0213398970663547
-0.0189804285764694
-0.0169466044753789
-0.0151539426296949
-0.0134925581514835
-0.0118453577160835
-0.0101040918380022
-0.0081827165558934
-0.0060268365778028
-0.0036181402392685
-0.0009733885526657
0.0018609873950481
0.0048162820748984
0.0078100529499351
0.0107563408091664
0.0135762821882963
0.0162060875445604
0.0186009351164102
0.0207352451980114
0.0226001180708408
0.0241993218660354
0.0255456939339637
0.0266585927456617
0.0275615267455577
0.028278712183237
0.0288312267512083
0.0292356107383966
0.0295060146600008
0.0296565927565097
0.0297010075300931
0.0296503882855176
0.0295123569667339
0.0292918682098388
0.0289925467222929
0.0286164190620183
0.028160760179162
0.0276090912520885
0.0269132759422063
0.0259708315134048
0.0246112700551748
0.0226063951849937
0.0197090096771717
0.0157113820314407
0.0105067305266857
0.0041352584958076
-0.0031997943297028
-0.0111515931785106
-0.0192792136222124
-0.0271146036684513
-0.0342308357357978
-0.0402961671352386
-0.0451041050255298
-0.0485773794353008
-0.0507516674697399
-0.0517491400241851
-0.0517494045197963
-0.0509613454341888
-0.049597717821598
-0.0478539280593395
-0.0458921268582344
-0.0438307970762252
-0.0417392253875732
-0.0396370328962802
-0.0374998599290847
-0.0352712757885456
-0.0328796505928039
-0.0302570983767509
-0.027355533093214
-0.0241560265421867
-0.0206716749817132
-0.0169449932873249
-0.0130397966131567
-0.0090305740013718
-0.0049934973940253
-0.0009998874738812
0.0028888583183288
0.0066252490505576
0.0101776178926229
0.0135284578427672
0.0166699904948472
0.0195994805544614
0.022315515205264
0.0248154886066913
0.0270947590470314
0.0291483402252197
0.0309747271239757
0.0325791202485561
0.0339740887284278
0.0351777002215385
0.0362103581428527
0.0370921827852726
0.0378415174782276
0.038473691791296
0.0389993488788604
0.0394231937825679
0.0397446192800998
0.0399598218500614
0.0400638990104198
0.0400519855320453
0.0399197489023208
0.0396638289093971
0.0392787605524063
0.0387439988553524
0.0380000807344913
0.0369235649704933
0.0353176109492778
0.0329325124621391
0.0295157209038734
0.0248751789331436
0.0189376324415206
0.0117874275892972
0.0036750575527548
-0.0050058718770742
-0.0137667842209339
-0.0220887437462806
-0.02949083968997
-0.0355870574712753
-0.0401227474212646
-0.0429893247783184
-0.0442186743021011
-0.0439625717699527
-0.0424646586179733
-0.0400286614894866
-0.0369840897619724
-0.0336526669561862
-0.0303196068853139
-0.0272121578454971
-0.024486020207405
-0.0222190991044044
-0.0204134359955787
-0.0190057884901762
-0.0178844239562749
-0.016909085214138
-0.0159318968653678
-0.014816852286458
-0.013456005603075
-0.0117815136909484
-0.0097714979201555
-0.0074483165517449
-0.0048714345321059
-0.0021270532160997
0.0006839805282652
0.0034576319158077
0.0060964911244809
0.0085175726562738
0.0106575563549995
0.0124760176986455
0.0139566976577043
0.0151056982576847
0.0159472189843654
0.0165185425430536
0.016864214092493
0.0170294605195522
0.0170550309121608
0.0169748701155185
0.0168156083673238
0.0165964215993881
0.0163292028009891
0.016020443290472
0.0156749188899993
0.0152981681749224
0.0148961218073964
0.0144739095121622
0.0140354363247752
0.0135826580226421
0.0131119564175605
0.0126039534807205
0.0120045542716979
0.0112034976482391
0.0100260693579912
0.0082517825067043
0.0056593213230371
0.0020834058523178
-0.0025337077677249
-0.0081099988892674
-0.014418969862163
-0.0211128760129213
-0.0277678407728672
-0.0339411385357379
-0.03922950476408
-0.0433175787329673
-0.0460087060928344
-0.0472362190485
-0.0470573268830776
-0.0456341803073883
-0.0432077683508396
-0.0400684773921966
-0.0365251749753952
-0.0328743271529674
-0.029370991513133
-0.0262055583298206
-0.0234913416206836
-0.0212633442133665
-0.0194838531315326
-0.0180539935827255
-0.0168329160660505
-0.0156622864305973
-0.0143913896754384
-0.0128985121846199
-0.0111051071435213
-0.0089813992381095
-0.0065444139763712
-0.0038501019589602
-0.0009810221381485
0.001967716962099
0.0049004675820469
0.0077299955300986
0.0103848874568939
0.0128146326169371
0.0149908913299441
0.0169060081243515
0.0185696966946125
0.0200041644275188
0.0212386082857847
0.0223034806549549
0.0232249647378921
0.0240220222622156
0.024707306176424
0.0252887438982725
0.0257694274187088
0.0261479280889034
0.0264207832515239
0.0265863426029682
0.0266478974372148
0.0266141481697559
0.0264966581016778
0.0263045858591794
0.0260351002216339
0.0256570801138877
0.0250914357602596
0.0241982415318489
0.0227820482105016
0.0206216722726821
0.0175197701901197
0.0133574176579713
0.0081375623121857
0.002005644608289
-0.0047579873353242
-0.0117710614576935
-0.0185991376638412
-0.0248127281665802
-0.030042003840208
-0.0340187139809131
-0.0365987904369831
-0.0377649329602718
-0.0376125909388065
-0.0363257080316543
-0.0341486111283302
-0.0313568152487278
-0.0282281301915645
-0.0250169653445482
-0.0219339486211538
-0.0191314127296209
-0.0166957974433898
-0.0146476458758115
-0.0129482140764594
-0.0115113733336329
-0.0102204410359263
-0.0089484509080648
-0.0075774919241666
-0.0060133002698421
-0.0041943294927477
-0.0020954953506588
0.0002737957984209
0.0028758868575096
0.0056517431512475
0.0085273049771785
0.0114211365580558
0.0142533360049128
0.0169526487588882
0.0194595959037542
0.0217277351766824
0.0237253010272979
0.0254357866942882
0.0268563739955425
0.0279954858124256
0.0288708843290805
0.029508389532566
0.0299397930502891
0.0301992408931255
0.0303195212036371
0.030329305678606
0.0302516482770442
0.0301037859171628
0.0298974215984344
0.029639346525073
0.0293324962258338
0.0289762448519468
0.0285661537200212
0.028093772009015
0.0275432113558053
0.0268792212009429
0.0260280221700668
0.0248620063066482
0.023200623691082
0.0208332799375057
0.0175627395510673
0.0132582578808069
0.0079009616747498
0.0016085393726825
-0.0053660278208553
-0.0126617588102817
-0.0198562275618314
-0.026520300656557
-0.0322708897292614
-0.0368130542337894
-0.0399662218987941
-0.0416739322245121
-0.0419977456331253
-0.0410975590348243
-0.0392041616141796
-0.036590039730072
-0.0335416086018085
-0.030334623530507
-0.0272124111652374
-0.0243657939136028
-0.0219174977391958
-0.0199149865657091
-0.0183327477425336
-0.0170847382396459
-0.0160453766584396
-0.0150731038302183
-0.0140318358317017
-0.0128084551542997
-0.0113242324441671
-0.0095398053526878
-0.0074553480371832
-0.0051064882427453
-0.0025563552044332
0.0001144330017268
0.0028184105176478
0.0054715275764465
0.0080011915415525
0.0103513784706592
0.0124849937856197
0.0143831493332982
0.0160426329821348
0.0174732767045497
0.018694432452321
0.0197301879525184
0.0206048768013715
0.0213390737771987
0.0219468958675861
0.02243641205132
0.022811833769083
0.0230752881616354
0.0232277177274227
0.0232694689184427
0.0232013761997222
0.0230264030396938
0.0227504950016737
0.0223825834691524
0.0219341944903135
0.021416125819087
0.020827654749155
0.0201370827853679
0.0192612633109092
0.0180566906929016
0.0163307767361402
0.0138745419681072
0.0105101708322763
0.0061418423429131
0.0007953429594635
-0.0053671551868319
-0.0120605919510126
-0.0189115274697542
-0.0255057085305452
-0.0314421877264976
-0.0363826230168342
-0.0400846675038337
-0.0424186550080776
-0.0433706641197204
-0.0430328473448753
-0.0415837503969669
-0.0392628014087677
-0.0363425388932228
-0.0331020131707191
-0.0298022404313087
-0.0266633089631795
-0.0238457061350345
-0.0214399993419647
-0.0194664392620325
-0.0178825873881578
-0.0165971536189317
-0.0154887298122048
-0.0144263356924057
-0.0132887009531259
-0.0119795147329568
-0.0104365507140755
-0.0086352955549955
-0.0065874475985765
-0.0043342052958905
-0.0019367686472833
0.0005337339825928
0.0030053290538489
0.0054113948717713
0.0076946872286498
0.0098109412938356
0.0117314420640468
0.0134428991004824
0.014944807626307
0.0162464715540409
0.0173648744821548
0.0183220077306032
0.0191412810236215
0.0198453925549983
0.0204552765935659
0.0209876839071512
0.0214529633522033
0.0218560621142387
0.0221993550658226
0.0224837362766265
0.0227069612592458
0.0228582695126533
0.0229064244776964
0.0227822437882423
0.0223646983504295
0.0214825384318828
0.0199374984949827
0.0175454802811145
0.0141857154667377
0.0098443860188126
0.0046373857185244
-0.001195887569338
-0.0073218001052737
-0.0133538730442523
-0.0189004559069871
-0.0236138962209224
-0.0272311400622129
-0.0295957252383232
-0.0306608341634273
-0.0304809994995594
-0.0291972197592258
-0.0270160902291536
-0.024185175076127
-0.020967973396182
-0.0176206417381763
-0.0143715078011155
-0.0114041231572628
-0.008844674564898
-0.0067550959065556
-0.0051335468888282
-0.0039224657230079
-0.0030224346555769
-0.0023090415634214
-0.0016495687887072
-0.0009185560047626
-1.245364546775818e-05
0.0011396179907023
0.0025719534605741
0.0042830612510442
0.0062387185171246
0.0083778258413076
0.0106205251067876
0.0128776663914322
0.015061629936099
0.0170961953699588
0.018922884017229
0.0205037463456392
0.0218211486935615
0.0228752605617046
0.0236801002174615
0.0242588818073272
0.0246396772563457
0.0248516052961349
0.0249219685792922
0.0248749479651451
0.0247307904064655
0.024504417553544
0.0242042429745197
0.0238329228013753
0.0233905054628849
0.0228773355484008
0.0222921632230281
0.021621536463499
0.0208205245435237
0.0197930596768856
0.0183856654912233
0.016403317451477
0.0136457094922661
0.0099548287689685
0.0052622118964791
-0.0003771688789129
-0.0067750629968941
-0.0136266760528087
-0.0205492749810218
-0.0271332077682018
-0.0329945720732212
-0.0378206968307495
-0.0414008200168609
-0.043637465685606
-0.0445403605699539
-0.0442096143960952
-0.0428143851459026
-0.0405697263777256
-0.0377142764627933
-0.0344909280538558
-0.0311291180551052
-0.0278283208608627
-0.024745225906372
-0.0219850130379199
-0.0195957850664854
-0.0175680220127105
-0.0158421527594327
-0.0143238920718431
-0.0129024228081107
-0.0114670833572745
-0.0099212974309921
-0.0081928633153438
-0.006239759735763
-0.004051499068737
-0.0016473745927214
0.0009270743466913
0.003606574377045
0.0063158050179481
0.0089785819873213
0.0115243289619684
0.0138934450224041
0.0160419289022684
0.0179425552487373
0.0195829551666975
0.0209639389067888
0.0220973081886768
0.0230016633868217
0.023699264973402
0.024215767160058
0.0245802104473114
0.0248229876160621
0.024972278624773
0.0250507742166519
0.0250745099037885
0.0250540077686309
0.0249956585466861
0.0249018166214227
0.0247699506580829
0.0245896913111209
0.0243332311511039
0.0239373724907636
0.0232856646180152
0.0222045108675956
0.0204813368618488
0.0179039128124713
0.0143119636923074
0.0096460850909352
0.0039794174954295
-0.0024766447022557
-0.0093940431252121
-0.0163706131279468
-0.0229830332100391
-0.0288403183221817
-0.0336286723613739
-0.0371399670839309
-0.0392817556858062
-0.0400726199150085
-0.0396273098886013
-0.0381343699991703
-0.0358299762010574
-0.0329718105494976
-0.0298145413398742
-0.0265888646245002
-0.0234848465770483
-0.02063849568367
-0.0181237235665321
-0.0159533377736806
-0.0140882609412074
-0.0124513916671276
-0.0109434593468904
-0.0094594517722725
-0.0079037034884095
-0.006201316602528
-0.0043050004169344
-0.0021983217447996
0.0001035672612488
0.0025570914149284
0.005098232999444
0.0076524983160197
0.0101434867829084
0.0124989664182066
0.0146557483822107
0.01656474173069
0.0181944351643323
0.019530564546585
0.0205734521150589
0.0213357284665107
0.0218401197344064
0.0221162773668766
0.0221973713487386
0.0221172645688056
0.0219080429524183
0.0215973295271396
0.0212066173553466
0.0207526218146085
0.0202500782907009
0.0197133086621761
0.0191566012799739
0.0185944139957427
0.0180417858064174
0.0175139531493186
0.0170232951641082
0.0165726672857999
0.0161437205970287
0.0156794488430023
0.015067970380187
0.0141409682109951
0.0126945301890373
0.010528065264225
0.0074894884601235
0.0035152751952409
-0.0013433760032057
-0.0069147506728768
-0.012923089787364
-0.0190236996859312
-0.0248490292578935
-0.0300554558634758
-0.0343618653714656
-0.0375757329165935
-0.0396053940057754
-0.0404588133096694
-0.0402312949299812
-0.039086528122425
-0.0372347980737686
-0.0349095910787582
-0.0323431156575679
-0.0297424644231796
-0.0272692069411277
-0.0250256564468145
-0.0230498928576707
-0.0213198643177747
-0.019765181466937
-0.0182843543589115
-0.0167662128806114
-0.0151118263602256
-0.0132496170699596
-0.0111408280208706
-0.0087796468287706
-0.0061913100071251
-0.0034273373894393
-0.000559102743864
0.0023279064334928
0.0051411520689725
0.0077911368571221
0.0102015901356935
0.0123164672404527
0.0141034442931413
0.0155546944588422
0.0166858192533254
0.0175338238477706
0.0181536637246608
0.018611991778016
0.0189779307693243
0.0193132162094116
0.0196655131876468
0.02006596326828
0.0205283127725124
0.0210487283766269
0.0216085314750671
0.0221797227859497
0.0227292794734239
0.0232179462909698
0.0235911142081022
0.0237629283219575
0.0236015561968088
0.0229290574789047
0.021544175222516
0.0192635878920555
0.0159688983112573
0.0116462726145982
0.0064094522967934
0.0005002561956644
-0.0057363947853446
-0.011898293159902
-0.0175799969583749
-0.0224224664270877
-0.0261507499963045
-0.0285968389362096
-0.0297078695148229
-0.0295405127108097
-0.0282432585954666
-0.0260313674807548
-0.0231599546968936
-0.0198979601263999
-0.0165035631507635
-0.0132023813202977
-0.0101709747686982
-0.0075273187831044
-0.0053270584903657
-0.0035642529837787
-0.0021782787516713
-0.0010684123262763
-0.0001139268279075
0.000805452466011
0.001793673262
0.0029282895848155
0.0042554112151265
0.0057889986783266
0.0075131179764866
0.0093859191983938
0.0113450000062584
0.0133142732083797
0.0152127016335725
0.016964167356491
0.0185057893395423
0.0197929292917251
0.0208020508289337
0.0215317141264677
0.0220006313174963
0.0222432725131511
0.022304642945528
0.0222352594137191
0.0220857933163642
0.0219008103013038
0.0217135120183229
0.0215443409979343
0.0214027091860771
0.0212885774672031
0.0211931224912405
0.021100103855133
0.0209887642413377
0.0208368059247732
0.0206194799393415
0.0203009601682424
0.0198174864053726
0.0190593916922807
0.0178668741136789
0.0160491876304149
0.0134225478395819
0.0098555795848369
0.005311232060194
-0.0001264857128262
-0.006249469704926
-0.0127476016059517
-0.0192502290010452
-0.0253760702908039
-0.0307804439216852
-0.0351934134960174
-0.0384453050792217
-0.0404761806130409
-0.0413283109664917
-0.0411259196698665
-0.0400497429072856
-0.0383124351501464
-0.0361365675926208
-0.0337347686290741
-0.0312925986945629
-0.0289556700736284
-0.0268217623233795
-0.0249374322593212
-0.0232987403869628
-0.0218572802841663
-0.0205327291041612
-0.0192291811108589
-0.0178507771342992
-0.0163142960518598
-0.0145580600947141
-0.0125482194125652
-0.0102823991328477
-0.0077880243770778
-0.0051158210262656
-0.0023325395304709
0.0004863362992182
0.0032648611813783
0.0059343352913856
0.0084387920796871
0.0107374228537082
0.0128040201961994
0.0146256573498249
0.0162017066031694
0.0175418406724929
0.0186630245298147
0.019586531445384
0.0203351527452468
0.0209310371428728
0.021393833681941
0.0217387210577726
0.0219755209982395
0.0221093259751796
0.0221423506736755
0.0220761932432651
0.0219128634780645
0.0216549560427665
0.0213068202137947
0.0208762101829051
0.0203732922673225
0.0198036469519138
0.0191540271043777
0.0183739345520734
0.0173611231148242
0.015961792320013
0.013992503285408
0.0112797496840357
0.0077045308426022
0.0032397285103797
-0.0020281551405787
-0.0078977942466735
-0.0140728699043393
-0.0201989188790321
-0.0259103812277317
-0.0308784879744052
-0.0348488800227642
-0.0376620404422283
-0.0392582677304744
-0.0396719425916671
-0.0390175022184848
-0.0374696254730224
-0.0352410040795803
-0.0325605683028698
-0.0296535845845937
-0.0267235543578863
-0.023935692384839
-0.0214034970849752
-0.0191815830767154
-0.0172675400972366
-0.01561223808676
-0.0141341798007488
-0.0127341225743293
-0.0113102570176124
-0.0097730522975325
-0.0080559588968753
-0.0061214426532387
-0.0039638974703848
-0.0016083819791674
0.0008949721232056
0.0034787254408001
0.0060668713413178
0.0085834870114922
0.010960154235363
0.0131425876170396
0.0150957982987165
0.0168047323822975
0.018269807100296
0.0195015221834182
0.0205170139670372
0.0213380046188831
0.0219897404313087
0.0225000064820051
0.0228971578180789
0.0232077166438102
0.0234538950026035
0.023651834577322
0.0238115899264812
0.0239367727190256
0.0240201596170663
0.0240328479558229
0.0239083804190158
0.0235300231724977
0.022732425481081
0.021323200315237
0.0191211029887199
0.0160012692213058
0.0119348829612135
0.0070113399997353
0.0014372469158843
-0.0044864793308079
-0.0104037644341588
-0.0159500855952501
-0.0207968018949031
-0.024685550481081
-0.0274493210017681
-0.0290202125906944
-0.0294259544461965
-0.0287776719778776
-0.0272509790956974
-0.0250630937516689
-0.022449180483818
-0.0196403469890356
-0.0168437473475933
-0.0142247891053557
-0.0118946619331836
-0.0099067371338605
-0.0082599753513932
-0.0069061322137713
-0.005760446190834
-0.0047158114612102
-0.0036588450893759
-0.0024852938950061
-0.0011132871732115
0.0005069021135568
0.0023892121389508
0.0045140828005969
0.0068332906812429
0.0092764496803283
0.0117605924606323
0.0142009314149618
0.0165188163518905
0.0186464712023735
0.0205310508608818
0.022138025611639
0.0234517157077789
0.0244731325656175
0.0252163708209991
0.0257041379809379
0.0259641073644161
0.0260269157588481
0.0259243659675121
0.0256872996687889
0.0253439173102378
0.0249189902096986
0.0244343001395463
0.0239086523652076
0.0233557913452386
0.0227819979190826
0.0221827663481235
0.0215321667492389
0.0207637157291173
0.0197541788220405
0.0183243192732334
0.0162624157965183
0.0133671071380376
0.0094979284331202
0.0046189296990633
-0.0011765081435441
-0.0076659228652715
-0.0145215764641761
-0.0213518906384706
-0.0277539789676666
-0.0333669260144233
-0.0379127785563468
-0.0412185452878475
-0.043221428990364
-0.0439615920186042
-0.0435644201934337
-0.0422159358859062
-0.040137380361557
-0.0375626310706138
-0.0347179062664508
-0.0318034626543521
-0.0289791766554117
-0.0263556465506553
-0.0239908006042242
-0.0218912661075592
-0.0200181566178798
-0.0182974375784397
-0.0166338104754686
-0.014926197938621
-0.0130828665569424
-0.011034058406949
-0.0087406504899263
-0.0061977817676961
-0.0034333262592554
-0.0005026101134717
0.0025194692425429
0.0055482313036918
0.0084994034841656
0.0112975677475333
0.0138818547129631
0.0162094999104738
0.0182572677731513
0.0200201869010925
0.0215080473572015
0.0227410774677991
0.0237456448376178
0.0245498791337013
0.0251800566911697
0.0256587117910385
0.0260038711130619
0.0262289717793464
0.0263438913971185
0.0263569299131631
0.0262758862227201
0.0261077564209699
0.0258591547608375
0.0255378242582082
0.0251521281898021
0.0247054118663072
0.0241831839084625
0.023533770814538
0.0226514562964439
0.0213756822049617
0.0195126477628946
0.0168755538761615
0.0133321825414896
0.0088454643264412
0.0034964168444275
-0.0025148969143629
