bvp
-0.027792228385806
-0.0326355397701263
-0.0362676419317722
-0.0385447405278682
-0.0394367650151252
-0.0390195287764072
-0.0374552570283412
-0.0349657759070396
-0.0318047180771827
-0.0282325390726327
-0.0244939252734184
-0.0207963474094867
-0.0172926969826221
-0.0140728522092103
-0.0111650703474879
-0.0085446340963244
-0.0061467811465263
-0.0038812952116131
-0.0016477294266223
0.0006490042433142
0.0030849343165755
0.0057071456685662
0.0085278619080781
0.0115229319781064
0.0146348476409912
0.0177797060459852
0.0208561401814222
0.0237534865736961
0.0263597518205642
0.0285714715719223
0.0303042009472847
0.0315011776983737
0.0321393236517906
0.0322317145764827
0.031825728714466
0.0309974532574415
0.0298436637967824
0.0284734666347503
0.0270006097853183
0.0255349967628717
0.0241730995476245
0.0229896642267704
0.0220329128205776
0.021323112770915
0.0208540447056293
0.0205948427319526
0.0204844325780868
0.0204161405563354
0.020224267616868
0.0196872353553771
0.0185536500066518
0.0165879614651203
0.0136232823133468
0.0096056126058101
0.004617927595973
-0.0011207633651793
-0.0072797583416104
-0.0134592410176992
-0.0192443802952766
-0.0242603588849306
-0.0282170139253139
-0.0309361778199672
-0.0323591157793998
-0.0325367711484432
-0.0316093787550926
-0.0297809727489948
-0.0272933021187782
-0.0244027003645896
-0.0213588178157806
-0.01838343963027
-0.0156515724956989
-0.0132780186831951
-0.0113112349063158
-0.0097361383959651
-0.0084854699671268
-0.0074563445523381
-0.0065289828926324
-0.0055854846723377
-0.0045252246782183
-0.00327421259135
-0.0017890380695462
-5.750686977989972e-05
0.001902088872157
0.0040426631458103
0.0062935068272054
0.0085705257952213
0.0107881408184766
0.0128685282543301
0.0147469658404588
0.0163732636719942
0.0177112743258476
0.0187397189438343
0.0194528084248304
0.0198576282709836
0.0199702717363834
0.0198130011558532
0.0194128844887018
0.018802210688591
0.0180181134492158
0.0170990340411663
0.0160807687789201
0.0149947181344032
0.0138676073402166
0.0127221019938588
0.0115770483389496
0.0104425735771656
0.0093043250963091
0.0080988593399524
0.0066944863647222
0.0048937667161226
0.0024628415703773
-0.0008184388279914
-0.0050974125042557
-0.0103964824229478
-0.016584925353527
-0.0233828350901603
-0.0303935520350933
-0.0371562726795673
-0.0432083159685134
-0.0481441542506217
-0.0516604669392108
-0.0535813048481941
-0.0538637563586235
-0.0525895170867443
-0.0499470867216587
-0.0462067499756813
-0.0416909158229827
-0.0367423854768276
-0.0316925942897796
-0.026832016184926
-0.0223865639418363
-0.018503800034523
-0.0152486898005008
-0.0126076769083738
-0.0105017479509115
-0.0088064037263393
-0.0073734554462134
-0.0060516404919326
-0.0047051343135535
-0.0032277163118124
-0.0015501286834478
0.0003592679277062
0.0024984888732433
0.004838079214096
0.0073279263451695
0.0099043874070048
0.0124971633777022
0.0150364376604557
0.0174610540270805
0.0197250079363584
0.0217992439866065
0.023669296875596
0.025331012904644
0.0267867147922515
0.0280429478734731
0.0291086733341217
0.0299928802996873
0.030702568590641
0.0312415976077318
0.0316060706973075
0.0317698344588279
0.0316619016230106
0.03114840015769
0.0300336349755525
0.0280871726572513
0.0250924322754144
0.0209038499742746
0.0154975187033414
0.0090020485222339
0.0016998301725834
-0.0060031567700207
-0.0136312143877148
-0.0207034163177013
-0.0267941877245903
-0.0315787456929683
-0.0348584242165088
-0.0365659520030021
-0.0367550775408744
-0.0355809330940246
-0.0332762338221073
-0.0301251634955406
-0.0264347493648529
-0.0225051380693912
-0.0186028722673654
-0.0149408634752035
-0.0116654876619577
-0.0088498219847679
-0.0064946329221129
-0.0045380983501672
-0.0028717759996652
-0.001360872760415
0.0001328708603978
0.0017302669584751
0.0035202195867896
0.0055530173704028
0.0078396461904048
0.0103544890880584
0.0130414310842752
0.0158236101269722
0.0186142865568399
0.0213270634412765
0.0238845851272344
0.0262243151664733
0.0283015370368957
0.0300904083997011
0.0315830186009407
0.0327868573367595
0.0337210707366466
0.0344120115041732
0.0348895378410816
0.0351835712790489
0.0353196375072002
0.0353156849741935
0.0351828373968601
0.0349286682903766
0.0345599092543125
0.0340829826891422
0.033501349389553
0.0328067988157272
0.0319606252014637
0.0308684706687927
0.0293641928583383
0.0272177867591381
0.0241716522723436
0.0199991874396801
0.0145690785720944
0.0078948838636279
0.0001570200547575
-0.0083073256537318
-0.0170445442199707
-0.0255462825298309
-0.0333180204033851
-0.0399399511516094
-0.0451103411614894
-0.0486659668385982
-0.0505796931684017
-0.0509425662457942
-0.0499393828213214
-0.0478222072124481
-0.0448817200958728
-0.0414169207215309
-0.0377080850303173
-0.0339965596795082
-0.0304704532027244
-0.0272560231387615
-0.0244152285158634
-0.0219490639865398
-0.019806245341897
-0.0178973991423845
-0.0161129534244537
-0.0143401995301246
-0.0124766342341899
-0.0104403244331479
-0.0081779733300209
-0.0056696278043091
-0.0029291152022778
-1.0701478458940985e-07
0.0030511054210364
0.0061436318792402
0.0091898990795016
0.0121039422228932
0.0148089751601219
0.0172431245446205
0.0193628445267677
0.021143265068531
0.0225763786584138
0.0236692298203706
0.0244423877447843
0.0249267444014549
0.0251584239304065
0.025174519047141
0.0250107068568468
0.024699917063117
0.024272009730339
0.0237537696957588
0.0231681056320667
0.0225332304835319
0.0218623764812946
0.0211613662540912
0.0204178877174854
0.019578717648983
0.0185241624712944
0.0170591659843921
0.014933718368411
0.011889224871993
0.0077189579606056
0.0023289714008569
-0.0042174626141786
-0.0116870123893022
-0.0196984130889177
-0.0277724675834178
-0.0353984721004962
-0.0421026423573493
-0.0475047305226326
-0.051353957504034
-0.0535419173538684
-0.0540958642959594
-0.0531582459807395
-0.0509586073458194
-0.0477827824652195
-0.0439417324960231
-0.0397415570914745
-0.0354573503136634
-0.0313129872083663
-0.0274675600230693
-0.0240091271698474
-0.0209563300013542
-0.0182680282741785
-0.0158593226224184
-0.0136205051094293
-0.0114361345767974
-0.0092014912515878
-0.006834321655333
-0.0042824088595807
-0.0015274081379175
0.0014158263802528
0.0045039705000817
0.0076724938116967
0.0108445463702082
0.0139406807720661
0.0168877616524696
0.01962511241436
0.0221071504056453
0.024304125458002
0.0262029021978378
0.0278065763413906
0.0291309878230094
0.0301993116736412
0.0310371126979589
0.031669046729803
0.0321170575916767
0.032399620860815
0.0325323939323425
0.0325295105576515
0.0324034839868545
0.0321646817028522
0.0318219810724258
0.0313834957778453
0.030855992808938
0.0302439983934164
0.0295495148748159
0.0287688300013542
0.0278784744441509
0.0268096607178449
0.0254272315651178
0.0235319789499044
0.0208904892206192
0.0172845814377069
0.0125684160739183
0.0067199105396866
-0.0001272978261113
-0.0076829292811453
-0.01553326100111
-0.0231990069150924
-0.0302016846835613
-0.0361240059137344
-0.040655244141817
-0.0436173155903816
-0.0449707396328449
-0.0448040701448917
-0.0433124117553234
-0.0407685935497283
-0.0374899059534072
-0.0338046848773956
-0.0300209876149892
-0.0263989176601171
-0.0231302194297313
-0.0203275457024574
-0.0180234406143426
-0.0161788873374462
-0.0146995261311531
-0.0134554980322718
-0.0123018622398376
-0.0110982526093721
-0.0097265997901558
-0.0081050582230091
-0.0061956467106938
-0.0040034977719187
-0.001569487620145
0.0010390598326921
0.0037382440641522
0.0064383996650576
0.009053430519998
0.0115076918154954
0.0137418247759342
0.0157171953469514
0.017417274415493
0.0188449323177337
0.0200170557945966
0.0209597125649452
0.0217049047350883
0.0222871582955122
0.022739291191101
0.0230892822146415
0.0233593694865703
0.0235652923583984
0.0237150676548481
0.0238092988729476
0.0238434337079525
0.0238100904971361
0.0236989203840494
0.0234897378832101
0.0231357235461473
0.0225416161119937
0.0215504430234432
0.0199529118835926
0.0175236072391271
0.0140749551355838
0.009513727389276
0.0038843313232064
-0.002614916767925
-0.0096482280641794
-0.0167860239744186
-0.0235637053847312
-0.0295428745448589
-0.0343634411692619
-0.0377783328294754
-0.0396702140569686
-0.0400521643459796
-0.0390532165765762
-0.0368937216699123
-0.0338559597730636
-0.0302512273192405
-0.0263864956796169
-0.0225363932549953
-0.0189227145165205
-0.0157009456306695
-0.0129543719813227
-0.0106959352269768
-0.0088766729459166
-0.0073995413258671
-0.0061378227546811
-0.0049572214484214
-0.0037382687442004
-0.0023932666517794
-0.0008745971135795
0.0008249469101428
0.0026781940832734
0.004634064156562
0.0066294865682721
0.0085993399843573
0.0104830712080001
0.0122295776382088
0.0138010699301958
0.015174651518464
0.0163417253643274
0.0173063948750495
0.0180837884545326
0.0186983365565538
0.0191807094961404
0.0195635166019201
0.0198776647448539
0.0201502796262502
0.020403616130352
0.0206543635576963
0.0209136717021465
0.0211881082504987
0.0214811880141496
0.0217948853969573
0.0221300423145294
0.0224850475788116
0.0228528697043657
0.0232175700366497
0.023550983518362
0.0238061659038066
0.0239032469689846
0.0237113870680332
0.0230411738157272
0.0216608140617609
0.0193358119577169
0.0158800743520259
0.0112053221091628
0.0053574340417981
-0.001470579765737
-0.0089530795812606
-0.0166703388094902
-0.0241630971431732
-0.0309912972152233
-0.03678510338068
-0.0412802584469318
-0.0443345047533512
-0.0459276661276817
-0.0461509190499782
-0.0451873801648616
-0.0432854369282722
-0.0407295599579811
-0.0378114357590675
-0.0348010696470737
-0.0319204740226268
-0.0293247886002063
-0.0270930752158164
-0.0252284072339534
-0.0236670244485139
-0.0222952682524919
-0.0209712367504835
-0.019548200070858
-0.0178958047181367
-0.015915285795927
-0.013548158109188
-0.0107799191027879
-0.0076394118368625
-0.0041932822205126
-0.0005354844033718
0.0032258867286145
0.0069813122972846
0.0106296818703413
0.0140837468206882
0.0172722451388835
0.0201412253081798
0.0226548835635185
0.0247944854199886
0.0265557989478111
0.0279462914913892
0.0289823673665523
0.0296868681907653
0.0300864912569522
0.0302093662321567
0.0300844442099332
0.0297421608120203
0.0292142089456319
0.0285322554409503
0.0277263801544904
0.0268235001713037
0.0258464738726615
0.0248142220079898
0.023741653189063
0.0226383078843355
0.0215062722563743
0.0203351248055696
0.0190884508192539
0.0176850259304046
0.0159895047545433
0.0138243800029158
0.0110032083466649
0.0073762340471148
0.0028749639168381
-0.0024565244093537
-0.0084508527070283
-0.014829646795988
-0.0212360396981239
-0.0272809769958257
-0.0325946658849716
-0.0368720926344394
-0.0399044416844844
-0.0415949970483779
-0.0419601574540138
-0.0411164946854114
-0.039258137345314
-0.036630306392908
-0.0335020720958709
-0.0301401671022176
-0.0267856046557426
-0.0236343052238225
-0.020823411643505
-0.0184248331934213
-0.0164458639919757
-0.0148364827036857
-0.0135032208636403
-0.0123277185484766
-0.0111861173063516
-0.0099660139530897
-0.0085791014134883
-0.0069689336232841
-0.0051144827157258
-0.003029175568372
-0.0007544718682765
0.0016495771706104
0.0041126767173409
0.0065608955919742
0.0089236991479992
0.0111414231359958
0.0131698697805404
0.0149802714586257
0.0165566839277744
0.0178938955068588
0.0189972594380378
0.0198827795684337
0.0205748602747917
0.0211020112037658
0.0214929766952991
0.0217739604413509
0.0219661928713321
0.0220847558230161
0.0221399553120136
0.0221396647393703
0.0220889504998922
0.0219866409897804
0.0218204427510499
0.0215578116476535
0.021131819114089
0.0204310901463031
0.019305245950818
0.0175889171659946
0.0151384277269244
0.0118703795596957
0.0077922064810991
0.0030185147188603
-0.0022311965003609
-0.0076551372185349
-0.0129076894372701
-0.0176445730030536
-0.0215652771294116
-0.0244456268846988
-0.026157321408391
-0.0266751665621995
-0.0260732825845479
-0.0245103295892477
-0.0222054664045572
-0.0194100849330425
-0.0163803305476903
-0.0133534213528037
-0.0105286501348018
-0.0080524422228336
-0.0060083693824708
-0.0044151083566248
-0.0032337512820959
-0.0023814034648239
-0.0017468226142227
-0.0012071994133293
-0.0006457483395934
3.3420510590076447e-05
0.0008957120589911
0.0019714762456715
0.0032574844080954
0.0047235102392733
0.0063196402043104
0.0079835467040538
0.0096485577523708
0.011250514537096
0.012732763774693
0.0140503626316785
0.0151728242635726
0.0160846151411533
0.0167840141803026
0.0172803681343793
0.0175902266055345
0.0177346616983413
0.0177383087575435
0.0176271814852952
0.0174243580549955
0.0171466805040836
0.0168053545057773
0.0164093263447284
0.0159675702452659
0.0154883256182074
0.0149757396429777
0.0144218085333704
0.0137914922088384
0.0130064208060503
0.0119387339800596
0.0104236062616109
0.0082892104983329
0.0053959088400006
0.0016749603673815
-0.0028420272283256
-0.0080103445798158
-0.0135816782712936
-0.0192349143326282
-0.0246190652251243
-0.0293977819383144
-0.0332886762917041
-0.0360930487513542
-0.0377122201025486
-0.0381481572985649
-0.037491075694561
-0.0359008461236953
-0.0335862301290035
-0.0307822730392217
-0.027726886793971
-0.0246382467448711
-0.0216953065246343
-0.0190247111022472
-0.0166959799826145
-0.0147237079218029
-0.0130738969892263
-0.011674053966999
-0.0104276053607463
-0.0092289485037326
-0.0079763382673263
-0.0065842350013554
-0.0049945972859859
-0.0031829793006181
-0.0011578272096812
0.0010439399629831
0.0033627268858253
0.0057245539501309
0.0080518359318375
0.0102733001112937
0.0123309260234236
0.0141839087009429
0.0158090218901634
0.0171986557543277
0.0183580964803695
0.0193010866641998
0.020045518875122
0.02061228454113
0.0210247039794921
0.0213061720132827
0.0214783176779747
0.0215606708079576
0.0215704198926687
0.0215215906500816
0.0214241724461317
0.021283883601427
0.0211018752306699
0.0208724606782197
0.0205754786729812
0.0201614815741777
0.0195364411920309
0.018557671457529
0.0170488189905881
0.014833066612482
0.0117749413475394
0.0078201321884989
0.0030245971865952
-0.002436151728034
-0.0082822050899267
-0.0141644310206174
-0.0197100210934877
-0.0245704464614391
-0.0284645427018404
-0.0312073118984699
-0.0327201820909976
-0.0330269038677215
-0.0322406888008117
-0.0305456034839153
-0.0281735137104988
-0.025377644225955
-0.0224059429019689
-0.0194781720638275
-0.0167680718004703
-0.0143911391496658
-0.0123992972075939
-0.0107830539345741
-0.0094811543822288
-0.0083961933851242
-0.0074125966057181
-0.0064143375493586
-0.0053006238304078
-0.0039971959777176
-0.0024622515775263
-0.0006878906860947
0.0013024010695517
0.0034602498635649
0.0057205990888178
0.0080092679709196
0.0102512910962104
0.0123799080029129
0.0143425688147544
0.0161031614989042
0.0176417157053947
0.0189520251005888
0.0200385823845863
0.0209145098924636
0.0215997323393821
0.0221173800528049
0.0224893279373645
0.0227336380630731
0.0228641852736473
0.0228917207568883
0.0228250939399003
0.0226711276918649
0.0224347710609436
0.0221208576112985
0.0217340737581253
0.0212744660675525
0.0207282397896051
0.020053306594491
0.0191645808517932
0.0179306585341691
0.0161881987005472
0.013771841302514
0.0105533562600612
0.0064799198880791
0.0016012238338589
-0.0039206212386488
-0.0098221879452466
-0.0157698392868042
-0.0214029904454946
-0.0263803899288177
-0.0304207503795623
-0.0333303101360797
-0.0350157991051673
-0.0354855880141258
-0.0348408967256546
-0.0332585088908672
-0.0309680327773094
-0.0282265059649944
-0.0252921655774116
-0.0223992709070444
-0.0197364166378974
-0.0174306146800518
-0.0155390836298465
-0.0140509279444813
-0.0128987096250057
-0.0119756516069173
-0.0111542046070098
-0.0103046912699937
-0.0093127340078353
-0.0080929184332489
-0.0065969508141279
-0.0048157745040953
-0.002776188775897
-0.0005341251380741
0.0018338544759899
0.0042412015609443
0.0066023478284478
0.008840468712151
0.010892242193222
0.0127115780487656
0.0142715089023113
0.0155626889318227
0.0165904555469751
0.0173732191324234
0.0179401654750108
0.0183259136974811
0.0185652673244476
0.0186910293996334
0.0187325906008481
0.0187131445854902
0.0186476465314626
0.0185432806611061
0.0184000246226787
0.0182057246565818
0.0179218966513872
0.0174658205360174
0.0167027208954095
0.0154579021036624
0.013547888956964
0.0108224526047706
0.0072078807279467
0.0027408301830291
-0.0024186836089938
-0.0080008329823613
-0.0136604877188801
-0.0190222822129726
-0.0237289536744356
-0.0274856686592102
-0.0300912596285343
-0.0314524285495281
-0.0315833948552608
-0.0305946823209524
-0.0286738239228725
-0.0260604172945022
-0.0230186600238084
-0.019810689613223
-0.0166723951697349
-0.0137925129383802
-0.0112971058115363
-0.0092425011098384
-0.0076178009621798
-0.006356090772897
-0.0053517878986895
-0.0044793961569666
-0.0036106780171394
-0.002630609087646
-0.00145158264786
-2.2984575480222705e-05
0.0016661928966641
0.0035913903266191
0.0057002995163202
0.00792165286839
0.0101740313693881
0.0123746450990438
0.0144479228183627
0.0163322351872921
0.0179831273853778
0.0193737186491489
0.0204934738576412
0.0213461834937334
0.0219483077526092
0.0223273262381553
0.022518116980791
0.0225578323006629
0.0224810410290956
0.0223157182335853
0.0220816899091005
0.0217920579016208
0.0214552916586399
0.0210758130997419
0.0206524543464183
0.0201747920364141
0.0196140594780445
0.0189065802842378
0.0179385002702474
0.0165449120104312
0.0145298773422837
0.011705869808793
0.0079432018101215
0.0032146498560905
-0.0023789573460817
-0.0086095090955495
-0.015146879479289
-0.0216011572629213
-0.0275735110044479
-0.0327067747712135
-0.0367256142199039
-0.0394602268934249
-0.0408537648618221
-0.040956113487482
-0.0399072766304016
-0.0379151701927185
-0.0352308079600334
-0.0321215912699699
-0.0288453307002782
-0.0256277360022068
-0.022643506526947
-0.0200031325221061
-0.0177483242005109
-0.0158554669469594
-0.0142461499199271
-0.0128051321953535
-0.0114029645919799
-0.0099175665527582
-0.0082511249929666
-0.0063419467769563
-0.0041718231514096
-0.0017694672569632
0.0007900279015302
0.0033908607438206
0.0058882655575871
0.008126332424581
0.009959302842617
0.011272232979536
0.0119987037032842
0.0121328504756093
0.0117318434640765
0.0109078017994761
0.0098117757588624
0.0086136534810066
0.0074815768748521
0.0065636271610856
0.0059734433889389
0.0057817427441477
0.0060151675716042
0.0066597769036889
0.0076665831729769
0.0089606251567602
0.0104531412944197
0.0120538705959916
0.013681692071259
0.0152713991701602
0.0167739186435937
0.0181477293372154
0.0193425677716732
0.0202847737818956
0.0208767466247081
0.0210137665271759
0.0206097606569528
0.019620643928647
0.0180576704442501
0.0159882493317127
0.0135257877409458
0.0108130099251866
0.0080035515129566
0.0052448459900915
0.0026640268042683
0.0003583747893571
-0.0016082488000392
-0.0032029177527874
-0.0044180871918797
-0.0052669495344161
-0.0057813255116343
-0.0060118110850453
-0.0060276160947978
-0.005911448970437
-0.0057484889402985
-0.0056131831370294
-0.005557233467698
-0.0056012296117842
-0.005732134450227
-0.0059068780392408
-0.0060599315911531
-0.0061131590045988
-0.0059876022860407
-0.0056152120232582
-0.0049480129964649
-0.0039640255272388
-0.0026696384884417
-0.0010978835634887
0.0006968087982386
0.0026452641468495
0.0046702227555215
0.0066934768110513
0.0086429519578814
0.0104574309661984
0.0120887458324432
0.0135033261030912
0.0146833071485161
0.0156259145587682
0.0163406375795602
0.0168447606265544
0.0171587187796831
0.0173035245388746
0.0173007324337959
0.0171718765050172
0.0169359073042869
0.0166078694164752
0.0162004083395004
0.0157253295183181
0.0151935387402772
0.0146145867183804
0.0139969419687986
0.0133485393598675
0.0126767065376043
0.0119851604104042
0.0112629402428865
0.0104640200734138
0.0094868559390306
0.0081685185432434
0.0063025671988725
0.0036791171878576
0.0001368355005979
-0.0043881926685571
-0.0098306080326437
-0.015988178551197
-0.0225406251847744
-0.0290918387472629
-0.0352248102426528
-0.0405560731887817
-0.0447796136140823
-0.0476946234703063
-0.0492168590426445
-0.0493769459426403
-0.0483088456094265
-0.0462296307086944
-0.0434113927185535
-0.0401493981480598
-0.0367314592003822
-0.0334104746580123
-0.0303816013038158
-0.0277665462344884
-0.0256073139607906
-0.0238704904913902
-0.0224614851176738
-0.0212456621229648
-0.0200717598199844
-0.018794072791934
-0.0172910131514072
-0.0154781294986605
-0.0133150219917297
-0.0108059449121356
-0.0079946191981434
-0.0049550542607903
-0.0017803933005779
0.001427604118362
0.0045679821632802
0.0075503345578908
0.0103027336299419
0.0127756912261247
0.0149433873593807
0.0168020892888307
0.0183655731379985
0.0196599848568439
0.0207197312265634
0.0215834695845842
0.0222889892756938
0.022868825122714
0.0233492963016033
0.0237510669976472
0.0240889489650726
0.0243725422769784
0.0246078893542289
0.0247972793877124
0.0249353628605604
0.0249994546175003
0.024932375177741
0.0246239509433507
0.0239041950553655
0.022558357566595
0.0203642006963491
0.0171425528824329
0.0128076002001762
0.0074027595110237
0.0011127231409773
-0.0057502081617712
-0.0127825746312737
-0.0195413436740636
-0.0255986973643302
-0.0305890440940856
-0.0342420302331447
-0.0364002920687198
-0.0370240919291973
-0.0361848175525665
-0.0340487509965896
-0.0308538600802421
-0.0268828533589839
-0.0224346667528152
-0.0177965201437473
-0.0132189122959971
-0.0088970996439456
-0.0049623167142271
-0.0014819372445344
0.0015344815328717
0.0041242064908146
0.0063563124276697
0.0083153080195188
0.0100869378075003
0.0117473248392343
0.0133543107658624
0.0149428155273199
0.0165259819477796
0.0180991478264331
0.0196437500417232
0.0211311168968677
0.02252659201622
0.0237934812903404
0.0248968489468097
0.0258079078048467
0.0265073329210281
0.026986788958311
0.0272510461509227
0.02731878682971
0.0272182524204254
0.0269803255796432
0.026633758097887
0.0262028463184833
0.0257060881704092
0.0251557752490043
0.0245585963129997
0.0239176135510206
0.0232354346662759
0.022516218945384
0.0217648819088935
0.0209849961102008
0.0201779641211032
0.0193431824445724
0.0184740014374256
0.0175441950559616
0.0164871551096439
0.015177933499217
0.013430536724627
0.0110188070684671
0.0077206334099173
0.0033752862364053
-0.002063344232738
-0.0084943827241659
-0.0156680271029472
-0.0232142116874456
-0.0306937098503112
-0.0376585125923156
-0.0437083318829536
-0.0485337451100349
-0.0519409775733947
-0.0538584850728511
-0.0543299354612827
-0.0534979738295078
-0.0515812262892723
-0.048846498131752
-0.0455791987478733
-0.0420555882155895
-0.038518987596035
-0.0351603776216506
-0.0321041978895664
-0.0294025279581546
-0.0270399320870637
-0.0249461364001035
-0.0230125244706869
-0.0211119037121534
-0.0191203150898218
-0.0169361531734466
-0.0144919771701097
-0.011758292093873
-0.008742737583816
-0.0054872496984899
-0.0020619230344891
0.001445853151381
0.0049442364834249
0.0083466805517673
0.0115775652229785
0.0145761370658874
0.0172993130981922
0.0197225287556648
0.0218383520841598
0.0236533191055059
0.0251844003796577
0.026455882936716
0.0274964328855276
0.0283362437039613
0.0290040262043476
0.0295243710279464
0.0299165528267622
0.0301944427192211
0.0303672775626182
0.0304412879049778
0.0304211024194955
0.0303102824836969
0.0301112215965986
0.0298243407160043
0.0294472649693489
0.0289736874401569
0.028387377038598
0.027646355330944
0.0266613904386758
0.0252834148705005
0.0233135968446731
0.0205389596521854
0.0167838800698518
0.0119615131989121
0.0061114700511097
-0.0005854498594999
-0.0078200409188866
-0.0151921603828668
-0.0222638249397277
-0.0286165457218885
-0.0339016318321228
-0.0378749221563339
-0.0404130816459655
-0.0415136441588401
-0.0412823110818862
-0.039911039173603
-0.0376511514186859
-0.0347850322723388
-0.0315979160368442
-0.0283511169254779
-0.025259269401431
-0.022474180907011
-0.0200764443725347
-0.0180748179554939
-0.0164148174226284
-0.0149963004514575
-0.0136938653886318
-0.0123762711882591
-0.0109259206801652
-0.0092551000416278
-0.007314262446016
-0.0050929086282849
-0.0026159081608057
6.244657561182976e-05
0.0028664264827966
0.0057092886418104
0.0085040479898452
0.0111725367605686
0.0136515628546476
0.0158956237137317
0.0178776681423187
0.0195887126028537
0.0210354756563901
0.0222356785088777
0.0232124999165534
0.0239911284297704
0.0245971959084272
0.0250545274466276
0.0253826342523098
0.0255963802337646
0.0257075540721416
0.0257258303463459
0.0256584975868463
0.0255101099610328
0.0252831783145666
0.0249801110476255
0.0246048849076032
0.024161959066987
0.0236498080193996
0.0230476632714271
0.0222975723445415
0.0212893038988113
0.0198598094284534
0.0178146474063396
0.0149672599509358
0.0111856050789356
0.0064351251348853
0.0008058417588472
-0.0054848031140863
-0.0121134398505091
-0.0186923146247863
-0.0248218402266502
-0.0301409494131803
-0.0343659929931163
-0.037315797060728
-0.0389232635498046
-0.0392327159643173
-0.0383838266134262
-0.0365874134004116
-0.0340973883867263
-0.0311804115772247
-0.0280862562358379
-0.0250235814601182
-0.0221449676901102
-0.019541336223483
-0.0172438025474548
-0.0152319110929965
-0.0134461177513003
-0.011802171356976
-0.010207176208496
-0.0085758306086063
-0.0068433349952101
-0.0049725538119673
-0.002955287694931
-0.0008096828823909
0.0014245989732444
0.0036933140363544
0.0059359148144721
0.0080934735015034
0.0101143335923552
0.011957005597651
0.0135919386520981
0.0150024928152561
0.0161839462816715
0.0171411167830228
0.0178859010338783
0.0184352621436119
0.0188090167939662
0.0190269518643617
0.0191071704030036
0.0190664250403642
0.0189206860959529
0.0186853390187025
0.0183752328157424
0.0180044565349817
0.0175859089940786
0.0171304550021886
0.0166443493217229
0.0161222033202648
0.0155323501676321
0.0147965522482991
0.0137762241065502
0.0122789684683084
0.0100894710049033
0.007018145173788
0.0029532723128795
-0.0020984448492527
-0.0079931728541851
-0.0144579065963625
-0.0211232248693704
-0.0275728441774845
-0.0333984531462192
-0.0382494367659091
-0.0418704859912395
-0.0441215373575687
-0.0449791848659515
-0.0445253551006317
-0.0429289750754833
-0.0404226519167423
-0.0372758470475673
-0.0337669923901557
-0.0301566142588853
-0.0266638416796922
-0.0234492607414722
-0.0206060707569122
-0.0181596055626869
-0.0160736665129661
-0.0142629453912377
-0.0126114524900913
-0.0109939537942409
-0.0092950481921434
-0.0074233654886484
-0.0053212894126772
-0.0029691094532608
-0.0003827549517154
0.0023926114663481
0.0052914638072252
0.008237961679697
0.0111542334780097
0.0139659279957413
0.0166071653366088
0.0190256536006927
0.0211856365203857
0.0230676047503948
0.0246665626764297
0.0259898975491523
0.0270548965781927
0.0278860032558441
0.0285110380500555
0.0289568863809108
0.0292473342269659
0.0294038094580173
0.0294461250305175
0.0293909236788749
0.0292500741779804
0.0290316175669431
0.0287418607622385
0.0283866021782159
0.0279712863266468
0.0275000091642141
0.0269729886204004
0.0263807792216539
0.0256906636059284
0.0248254556208848
0.0236474256962537
0.0219625905156135
0.0195502657443285
0.016212198883295
0.0118271559476852
0.0063936803489923
5.024299025535584e-05
-0.0069305193610489
-0.0141719859093427
-0.0212422367185354
-0.0277120359241962
-0.0332098342478275
-0.0374620743095874
-0.0403141640126705
-0.0417336001992225
-0.0417988039553165
-0.0406782776117324
-0.0386049449443817
-0.0358487479388713
-0.0326890461146831
-0.0293878726661205
-0.0261664520949125
-0.0231884904205799
-0.02055099979043
-0.0182823333889246
-0.016348710283637
-0.0146685922518372
-0.0131317349150776
-0.0116194998845458
-0.0100227333605289
-0.0082549825310707
-0.0062614050693809
-0.0040231840685009
-0.0015556523576378
0.0010982537642121
0.0038751633837819
0.0066993213258683
0.0094926347956061
0.0121827907860279
0.0147068873047828
0.0170141458511352
0.0190694816410541
0.0208547450602054
0.0223666206002235
0.0236133188009262
0.0246113110333681
0.0253822728991508
0.0259501263499259
0.0263384375721216
0.0265688020735979
0.0266598612070083
0.0266268625855445
0.0264826323837041
0.0262395590543746
0.0259101018309593
0.025504695251584
0.025029981508851
0.0244901273399591
0.023889722302556
0.0232349764555692
0.022531621158123
0.0217795111238956
0.0209629330784082
0.0200342368334531
0.0188952907919883
0.0173903964459896
0.0153214074671268
0.0124846389517188
0.0087199751287698
0.0039586666971445
-0.0017431285232305
-0.0081945639103651
-0.0150867337360978
-0.0220304708927869
-0.0286065451800823
-0.0344192460179328
-0.0391439832746982
-0.0425606854259967
-0.0445686504244804
-0.0451840795576572
-0.0445262901484966
-0.0427981093525886
-0.040261410176754
-0.0372073389589786
-0.0339237935841083
-0.0306660458445549
-0.0276341624557971
-0.0249580927193164
-0.0226933248341083
-0.0208269655704498
-0.0192894637584686
-0.0179704166948795
-0.0167385563254356
-0.0154631249606609
-0.0140324318781495
-0.0123665276914834
-0.0104235289618372
-0.0082006780430674
-0.0057303160429
-0.0030718317721039
-0.0003028190694749
0.0024894480593502
0.0052173165604472
0.0078015374019742
0.0101774130016565
0.0122985821217298
0.0141393654048442
0.0156950056552886
0.01697813346982
0.0180119518190622
0.0188240837305784
0.0194437690079212
0.0199004914611578
0.0202220045030117
0.0204327050596475
0.020553208887577
0.020600251853466
0.0205869171768426
0.0205240845680236
0.0204222034662961
0.0202910006046295
0.020136160776019
0.0199543237686157
0.0197258107364177
0.0194015726447105
0.0188867338001728
0.0180334243923425
0.0166543051600456
0.0145569071173667
0.0115900207310915
0.0076892827637493
0.002908919006586
-0.0025690014008432
-0.008450336754322
-0.0143663696944713
-0.0199241545051336
-0.0247587263584136
-0.0285782255232334
-0.0311953537166118
-0.032542884349823
-0.0326755605638027
-0.0317597314715385
-0.0300517845898866
-0.0278687700629234
-0.0255533978343009
-0.0234341863542795
-0.021784396842122
-0.0207877233624458
-0.0205178558826446
-0.0209331698715686
-0.0218853261321783
-0.0231405273079872
-0.0244097039103508
-0.0253816973417997
-0.025754515081644
-0.0252604559063911
-0.0236833281815052
-0.0208730362355709
-0.0167638156563043
-0.0113940751180052
-0.0049194376915693
0.0023902915418148
0.0101749757304787
0.0180236063897609
0.0255188979208469
0.0322794653475284
0.0379953756928443
0.0424524769186973
0.045543149113655
0.047266412526369
0.0477196872234344
0.047081358730793
0.0455858521163463
0.0434977300465106
0.041089478880167
0.0386221222579479
0.0363277420401573
0.0343960933387279
0.0329661406576633
0.0321200862526893
0.0318760871887207
0.0321793854236602
0.0328970663249492
0.0338191576302051
0.0346641726791858
0.0350903905928134
0.0347193628549575
0.0331768095493316
0.0301470085978508
0.0254289600998163
0.0189821571111679
0.0109522575512528
0.0016707340255379
-0.0083723263815045
-0.0185780245810747
-0.0283022429794073
-0.0369225442409515
-0.0438988804817199
-0.0488225072622299
-0.0514536723494529
-0.0517475828528404
-0.0498615130782127
-0.0461367070674896
-0.0410570278763771
-0.0351909212768077
-0.0291248019784688
-0.0233974158763885
-0.0184447783976793
-0.0145627940073609
-0.0118903378024697
-0.010412260890007
-0.0099805742502212
-0.0103493956848979
-0.0112170567736029
-0.0122691066935658
-0.0132167031988501
-0.0138259418308734
-0.0139362514019012
-0.0134681267663836
-0.0124199725687503
-0.0108552277088165
-0.0088839270174503
-0.0066427960991859
-0.0042761610820889
-0.001918367226608
0.0003206573892384
0.0023634142708033
0.0041664652526378
0.0057176630944013
0.0070289350114762
0.0081266053020954
0.0090440493077039
0.0098175415769219
0.0104823214933276
0.0110682286322116
0.0115969721227884
0.0120819918811321
0.0125293284654617
0.0129391830414533
0.0133088808506727
0.0136351184919476
0.0139137869700789
0.0141382683068513
0.0142970252782106
0.0143668204545974
0.0142956990748643
0.0139817483723163
0.0132654272019863
0.0119462013244628
0.0098203597590327
0.0067296838387846
0.00260766223073
-0.0024899798445403
-0.0083796111866831
-0.0147709138691425
-0.0213088542222976
-0.0276249162852764
-0.0333854891359806
-0.0383272245526313
-0.0422732904553413
-0.045132853090763
-0.0468920320272445
-0.0476013496518135
-0.0473607592284679
-0.0463041774928569
-0.0445845834910869
-0.0423590093851089
-0.0397724397480487
-0.0369417481124401
-0.0339438393712043
-0.0308094248175621
-0.0275198966264724
-0.0240083876997232
-0.0201716292649507
-0.0158961620181798
-0.0110932439565658
-0.0057304725050926
0.0001500621438026
0.0064300373196601
0.0129268849268555
0.0194162279367446
0.0256607327610254
0.0314386710524559
0.0365664921700954
0.0409137904644012
0.0444096624851226
0.0470402315258979
0.0488409698009491
0.0498867817223072
0.0502798855304718
0.050137061625719
0.0495782420039176
0.0487164258956909
0.0476492010056972
0.0464531853795051
0.0451821349561214
0.043868388980627
0.0425262190401554
0.0411556735634803
0.0397475585341453
0.0382898859679698
0.0367729887366294
0.0351911038160324
0.0335415713489055
0.0318214893341064
0.030017776414752
0.0280892737209796
0.0259489566087722
0.0234589762985706
0.0204463861882686
0.0167379640042781
0.0122042167931795
0.006800684146583
0.0005963928997516
-0.0062187062576413
-0.0133499773219227
-0.020433634519577
-0.0270831733942031
-0.0329372882843017
-0.037700954824686
-0.0411743000149726
-0.0432673692703247
-0.0440017879009246
-0.0435015447437763
-0.0419744290411472
-0.039685383439064
-0.0369246490299701
-0.033975426107645
-0.0310860536992549
-0.0284479353576898
-0.0261799655854702
-0.0243236869573593
-0.0228509828448295
-0.0216800216585397
-0.0206945203244686
-0.0197638347744941
-0.0187611263245344
-0.0175783224403858
-0.0161388032138347
-0.0144052915275096
-0.0123803056776523
-0.0101012978702783
-0.0076320203952491
-0.0050514456816017
-0.0024435392115265
0.0001109169679693
0.0025410612579435
0.0047911824658513
0.0068243565037846
0.008623139001429
0.0101859699934721
0.011522015556693
0.0126477247104048
0.01358522195369
0.0143615407869219
0.0150067498907446
0.015549792908132
0.0160140562802553
0.0164149869233369
0.0167594905942678
0.0170440655201673
0.0172480903565883
0.0173203293234109
0.0171599425375461
0.0166005566716194
0.0154122998937964
0.013330609537661
0.0101083703339099
0.0055796219967305
-0.000283133238554
-0.0073361797258257
-0.0152656296268105
-0.0236214250326156
-0.0318747647106647
-0.0394848249852657
-0.0459624156355857
-0.0509215630590915
-0.0541124790906906
-0.0554332882165908
-0.0549238994717597
-0.0527472198009491
-0.0491603352129459
-0.0444772839546203
-0.0390267819166183
-0.0331109315156936
-0.0269743409007787
-0.020791657269001
-0.0146741243079304
-0.008689247071743
-0.0028842501342296
0.0026953499764204
0.0079957880079746
0.012952622026205
0.0174941103905439
0.0215508751571178
0.0250703897327184
0.0280301123857498
0.0304452273994684
0.0323734879493713
0.0339179672300815
0.0352217517793178
0.0364496149122715
0.0377588719129562
0.0392668917775154
0.0410256087779998
0.0430107861757278
0.0451256334781646
0.0472163334488868
0.0490980893373489
0.0505865179002285
0.0515274927020072
0.0518215596675872
0.051440704613924
0.0504339598119258
0.0489186011254787
0.0470582842826843
0.0450338125228881
0.0430115163326263
0.0411140695214271
0.0394000969827175
0.037857037037611
0.0364068523049354
0.0349185317754745
0.0332199037075042
0.0311065800487995
0.0283518005162477
0.0247246827930212
0.0200226921588182
0.0141147337853908
0.0069820489734411
-0.0012555588036775
-0.0103358663618564
-0.019876642152667
-0.0294211320579051
-0.0384962111711502
-0.0466713011264801
-0.0536073334515094
-0.0590864866971969
-0.0630192160606384
-0.0654338225722312
-0.0664567202329635
-0.0662876889109611
-0.0651714950799942
-0.0633693411946296
-0.0611342452466487
-0.0586911812424659
-0.0562210008502006
-0.0538486689329147
-0.0516377985477447
-0.0495930463075637
-0.0476691201329231
-0.0457834340631961
-0.0438305735588073
-0.0416968390345573
-0.0392715595662593
-0.0364528261125087
-0.033148419111967
-0.0292782355099916
-0.0247851200401783
-0.0196531098335981
-0.0139249172061681
-0.0077117052860558
-0.0011928346939384
0.0053955959156155
0.0117833390831947
0.0176960173994302
0.0228863023221492
0.0271606370806694
0.0303994677960872
0.0325698815286159
0.0337269529700279
0.0340025946497917
0.0335871987044811
0.0327097177505493
0.0316176228225231
0.0305557735264301
0.0297427494078874
0.0293445885181427
0.0294496845453977
0.0300537794828414
0.031062351539731
0.0323090404272079
0.0335841327905654
0.0346669517457485
0.0353570505976676
0.0354999601840972
0.0350019000470638
0.0338291153311729
0.0319951586425304
0.0295444130897521
0.0265359841287136
0.0230289697647094
0.0190720818936824
0.0147019298747181
0.0099526513367891
0.004872384481132
-0.0004637846723198
-0.0059498157352209
-0.0114521943032741
-0.0168189816176891
-0.0218913089483976
-0.0265129636973142
-0.0305376313626766
-0.033835157752037
-0.0362953841686248
-0.0378295220434665
-0.0383738838136196
-0.0379014238715171
-0.0364404283463954
-0.0340910330414772
-0.0310297720134258
-0.0274986866861581
-0.0237796418368816
-0.0201582256704568
-0.0168861150741577
-0.01415038947016
-0.0120541751384735
-0.0106113459914922
-0.0097569236531853
-0.0093708308413624
-0.0093094296753406
-0.0094378534704446
-0.0096562234684824
-0.0099138543009758
-0.0102066881954669
-0.0105579504743218
-0.0109912529587745
-0.0115096056833863
-0.0120860794559121
-0.012662936002016
-0.0131559651345014
-0.013463013805449
-0.0134745351970195
-0.0130840595811605
-0.0121986139565706
-0.0107486164197325
-0.0086948713287711
-0.0060304952785372
-0.0027800239622592
0.0009985323995351
0.005208752118051
