bvp
0.0036852718330919
-0.0030000079423189
-0.0096863759681582
-0.0159630309790372
-0.021465428173542
-0.0259164217859506
-0.0291475821286439
-0.0311020649969577
-0.0318247303366661
-0.0314437597990036
-0.0301460027694702
-0.0281505100429058
-0.0256844256073236
-0.022962175309658
-0.0201688017696142
-0.0174491945654153
-0.0149028422310948
-0.0125815160572528
-0.0104899350553751
-0.0085917292162776
-0.0068206489086151
-0.0050959610380232
-0.0033390133175998
-0.0014868475263938
0.0004973242757841
0.0026178390253335
0.0048490217886865
0.0071449647657573
0.009449346922338
0.0117025878280401
0.013847729191184
0.0158343352377414
0.017620213329792
0.0191728863865137
0.020471341907978
0.0215071626007556
0.0222843680530786
0.0228181574493646
0.0231332369148731
0.0232615061104297
0.0232386365532875
0.0231010951101779
0.0228837989270687
0.0226132720708847
0.0222908779978752
0.0218676533550024
0.0212223418056964
0.0201590880751609
0.0184331238269805
0.0157996714115142
0.0120733622461557
0.0071814749389886
0.0011952258646488
-0.0056679146364331
-0.0130677316337823
-0.0205848570913076
-0.0277787894010543
-0.0342470966279506
-0.0396703705191612
-0.043838758021593
-0.046661514788866
-0.0481589660048484
-0.0484413355588912
-0.0476840212941169
-0.0461029969155788
-0.043929424136877
-0.0413853041827678
-0.0386639460921287
-0.0359168499708175
-0.0332465730607509
-0.0307052638381719
-0.0282985866069793
-0.0259939786046743
-0.0237327944487333
-0.0214444790035486
-0.019059132784605
-0.0165176261216402
-0.0137801002711057
-0.0108307814225554
-0.0076783262193202
-0.0043545109219849
-0.000910856295377
0.0025886259973049
0.0060759000480175
0.0094860661774873
0.0127630904316902
0.0158629734069108
0.0187530480325222
0.0214095972478389
0.0238171890377998
0.0259685106575489
0.0278630480170249
0.0295065231621265
0.0309110060334205
0.0320939607918262
0.0330766849219799
0.0338830165565013
0.0345381088554859
0.0350657999515533
0.0354827903211116
0.0357872024178504
0.0359385535120964
0.035834040492773
0.0352969393134117
0.0340901128947734
0.0319546684622764
0.0286660194396972
0.0240950565785169
0.0182554703205823
0.0113210473209619
0.0036111297085881
-0.004448601976037
-0.0123831741511821
-0.019732266664505
-0.0261059049516916
-0.0312225315719842
-0.0349276326596736
-0.0371935106813907
-0.0381024740636348
-0.037820491939783
-0.0365693718194961
-0.0345991067588329
-0.0321605056524276
-0.0294820945709943
-0.0267536453902721
-0.0241143349558115
-0.0216450560837984
-0.0193686503916978
-0.0172597337514162
-0.0152603648602962
-0.0132975578308105
-0.0112992040812969
-0.0092058088630437
-0.0069780745543539
-0.0046010962687432
-0.0020853485912084
0.0005354112945497
0.003208742942661
0.0058697378262877
0.0084487283602356
0.0108811073005199
0.0131171718239784
0.0151281636208295
0.016907388344407
0.0184667371213436
0.0198296271264553
0.0210230685770511
0.022072646766901
0.0230021607130765
0.0238340720534324
0.0245832875370979
0.0252386294305324
0.0257354900240898
0.0259363055229187
0.0256364643573761
0.0245981570333242
0.0226026177406311
0.0195066556334495
0.0152872242033481
0.0100623071193695
0.0040846671909093
-0.0022880367469042
-0.0086395721882581
-0.0145502798259258
-0.0196515414863824
-0.0236671492457389
-0.0264322012662887
-0.0278931260108947
-0.0280992574989795
-0.0271877907216548
-0.0253602880984544
-0.0228551886975765
-0.0199215002357959
-0.0167949274182319
-0.0136780403554439
-0.0107266157865524
-0.0080415476113557
-0.0056661865673959
-0.0035901358351111
-0.0017591612413525
-9.01692546904087e-05
0.0015120711177587
0.0031395154073834
0.004866324365139
0.0067373812198638
0.0087639205157756
0.0109250368550419
0.0131720472127199
0.015435492619872
0.0176340471953153
0.0196841843426227
0.0215101744979619
0.0230531282722949
0.0242775697261095
0.0251740179955959
0.0257562845945358
0.0260549709200859
0.0261106248944997
0.025966128334403
0.025651179254055
0.0251550152897834
0.0243989769369363
0.0232281312346458
0.0214318335056304
0.0187892820686101
0.0151276756078004
0.0103766992688179
0.0046043284237384
-0.0019739908166229
-0.0090145319700241
-0.0160900205373764
-0.0227495618164539
-0.0285791885107755
-0.0332502424716949
-0.0365479700267314
-0.0383816100656986
-0.0387810282409191
-0.0378809608519077
-0.035895075649023
-0.0330867990851402
-0.0297411866486072
-0.0261380858719348
-0.0225275419652462
-0.0191098172217607
-0.0160226207226514
-0.0133367292582988
-0.0110595906153321
-0.0091471131891012
-0.0075211767107248
-0.0060864151455461
-0.004743929952383
-0.0034054783172905
-0.0020068804733455
-0.0005137901753187
0.0010809730738401
0.0027627414092421
0.0045000715181231
0.0062515102326869
0.0079743834212422
0.0096332617104053
0.0112064238637685
0.0126884561032056
0.0140879908576607
0.0154217025265097
0.0167058557271957
0.0179438944905996
0.0191061347723007
0.0201049298048019
0.020780449733138
0.0209132842719554
0.0202669706195592
0.01864605396986
0.0159487817436456
0.0122004896402359
0.0075628818012773
0.0023192919325083
-0.0031610797159373
-0.0084740445017814
-0.0132365664467215
-0.0171347819268703
-0.0199543293565511
-0.0215926449745893
-0.0220570880919694
-0.0214525759220123
-0.0199613254517316
-0.0178163442760705
-0.0152725763618946
-0.0125804105773568
-0.0099616944789886
-0.007587528321892
-0.0055622486397624
-0.0039185010828077
-0.0026228297501802
-0.0015887822955846
-0.0006952728144824
0.0001928000710904
0.0012050783261656
0.0024491692893207
0.0039986167103052
0.0058862422592937
0.0081013096496462
0.0105915702879428
0.0132730323821306
0.0160454381257295
0.0188074260950088
0.0214672107249498
0.0239493958652019
0.0261988807469606
0.0281802844256162
0.029872640967369
0.0312599800527095
0.0323144979774951
0.0329714566469192
0.0331074073910713
0.0325384028255939
0.0310450848191976
0.0284206122159957
0.0245297607034444
0.0193598866462707
0.0130464108660817
0.0058677541092038
-0.0017869416624307
-0.0094695100560784
-0.0167318973690271
-0.0231805071234703
-0.0285164639353752
-0.0325557626783847
-0.0352299399673938
-0.0365732461214065
-0.036701925098896
-0.0357912257313728
-0.0340539254248142
-0.0317194908857345
-0.0290128365159034
-0.0261344909667968
-0.0232452247291803
-0.0204566977918148
-0.0178277622908353
-0.0153671484440565
-0.0130427461117506
-0.0107945883646607
-0.0085494257509708
-0.0062357895076274
-0.0037967425305396
-0.0011990456841886
0.0015604979125782
0.0044533899053931
0.007424690760672
0.0104032233357429
0.0133122326806187
0.0160770323127508
0.0186292771250009
0.0209108013659715
0.0228794030845165
0.0245140790939331
0.0258155446499586
0.0268015600740909
0.0274998620152473
0.0279388055205345
0.0281296912580728
0.0280387289822101
0.0275610517710447
0.0265169143676757
0.024679746478796
0.0218280460685491
0.0178057998418808
0.0125762894749641
0.0062537472695112
-0.0008971923962235
-0.0084920190274715
-0.0160771738737821
-0.0231907553970813
-0.0294218193739652
-0.03445565700531
-0.038097895681858
-0.0402792133390903
-0.0410448014736175
-0.0405330024659633
-0.0389488711953163
-0.0365372076630592
-0.0335571281611919
-0.0302584692835807
-0.0268605910241603
-0.0235360227525234
-0.0204002056270837
-0.0175082311034202
-0.0148604121059179
-0.0124145802110433
-0.010100869461894
-0.0078378897160291
-0.0055481889285147
-0.0031696148216724
-0.0006623687222599
0.0019873138517141
0.004766862373799
0.0076398407109081
0.0105503592640161
0.013429713435471
0.0162047818303108
0.0188067313283681
0.0211785435676574
0.0232788119465112
0.025081442669034
0.0265744850039482
0.0277596991509199
0.0286511518061161
0.0292717479169368
0.0296503752470016
0.0298209507018327
0.0298203974962234
0.029683731496334
0.0294342748820781
0.0290649980306625
0.0285139605402946
0.0276463218033313
0.0262573771178722
0.0241034347563982
0.0209549460560083
0.0166569929569959
0.011180093511939
0.0046477280557155
-0.0026671588420867
-0.0103752026334404
-0.0180235691368579
-0.0251564215868711
-0.0313706994056701
-0.0363576486706733
-0.0399266928434371
-0.0420131310820579
-0.0426712967455387
-0.0420548990368843
-0.0403888449072837
-0.0379368513822555
-0.0349695719778537
-0.0317388474941253
-0.0284598506987094
-0.0252986587584018
-0.0223635714501142
-0.0197016187012195
-0.0173031985759735
-0.0151148196309804
-0.0130555192008614
-0.011033465154469
-0.0089624822139739
-0.0067773414775729
-0.0044441600330173
-0.0019634559284895
0.0006328689632937
0.00328817544505
0.0059308619238436
0.0084870178252458
0.0108933243900537
0.0131065305322408
0.0151065187528729
0.0168918669223785
0.0184715054929256
0.0198583025485277
0.021065754815936
0.0221057627350091
0.0229868739843368
0.0237140413373708
0.0242909230291843
0.0247229412198066
0.0250192712992429
0.0251943320035934
0.0252668987959623
0.0252534262835979
0.0251547116786241
0.0249364078044891
0.0245093889534473
0.0237234123051166
0.0223828330636024
0.0202819891273975
0.0172524489462375
0.0132110081613063
0.0081959646195173
0.0023812977597117
-0.0039373375475406
-0.0103819454088807
-0.0165459290146827
-0.0220494605600833
-0.0265852212905883
-0.0299483127892017
-0.0320484563708305
-0.0329053848981857
-0.032632503658533
-0.0314144343137741
-0.0294809807091951
-0.0270791463553905
-0.0244472306221723
-0.0217945799231529
-0.0192869585007429
-0.0170376189053058
-0.0151039566844701
-0.0134884249418973
-0.0121455397456884
-0.0109960287809371
-0.0099450796842575
-0.0089014843106269
-0.0077935764566063
-0.0065776212140917
-0.0052389106713235
-0.0037887175567448
-0.0022587291896343
-0.0006934042321518
0.0008585453033447
0.0023513841442763
0.0037463307380676
0.0050133960321545
0.0061333165504038
0.0070988507941365
0.0079143531620502
0.0085932146757841
0.0091528305783867
0.0096099972724914
0.0099799763411283
0.0102780703455209
0.0105208540335297
0.0107255196198821
0.0109079908579587
0.0110813621431589
0.0112533448264002
0.0114181619137525
0.0115388613194227
0.0115247964859008
0.0112206460908055
0.0104202115908265
0.0089037781581282
0.0064889448694884
0.003081233240664
-0.0012897888664156
-0.0064584109932184
-0.0121384300291538
-0.0179626420140266
-0.023534532636404
-0.0284800603985786
-0.0324914120137691
-0.035356905311346
-0.0369739793241024
-0.0373479910194873
-0.0365811698138713
-0.0348526425659656
-0.0323908366262912
-0.0294426120817661
-0.0262450762093067
-0.0230042524635791
-0.0198807045817375
-0.0169810224324464
-0.0143547728657722
-0.0119975926354527
-0.0098605845123529
-0.0078638792037963
-0.0059127248823642
-0.0039145573973655
-0.0017934944480657
0.0005002934485673
0.002985157072544
0.0056453701108694
0.008433467708528
0.0112789580598473
0.0141011802479624
0.0168218500912189
0.0193733945488929
0.0217029824852943
0.02377375587821
0.0255641750991344
0.0270676836371421
0.0282934308052063
0.0292648635804653
0.0300150997936725
0.0305805169045925
0.0309884715825319
0.0312362853437662
0.0312709137797355
0.0309812128543853
0.0302085280418396
0.0287772193551063
0.026538673788309
0.023416094481945
0.0194389056414365
0.0147569589316844
0.0096283229067921
0.0043847654014825
-0.0006153304129838
-0.0050367107614874
-0.0086080702021718
-0.0111463023349642
-0.0125657841563224
-0.0128770880401134
-0.0121778156608343
-0.0106369033455848
-0.0084727257490158
-0.0059265475720167
-0.0032354407012462
-0.0006088595837354
0.0017897365614771
0.0038554994389414
0.0055467616766691
0.0068806363269686
0.0079206386581063
0.0087593095377087
0.0095004243776202
0.0102436337620019
0.0110724121332168
0.0120446514338254
0.0131849562749266
0.0144815389066934
0.0158909689635038
0.0173489656299352
0.0187830124050378
0.0201223343610763
0.0213033705949783
0.0222739353775978
0.0229979548603296
0.0234574452042579
0.0236512497067451
0.0235939063131809
0.0233131349086761
0.0228396095335483
0.0221844371408224
0.0213096663355827
0.0201098807156085
0.0184214245527982
0.0160598084330558
0.0128713026642799
0.0087811257690191
0.0038267904892563
-0.0018300563097
-0.0079173594713211
-0.0140883326530456
-0.0199691280722618
-0.0252076722681522
-0.0295157022774219
-0.0326983667910099
-0.0346664115786552
-0.0354324541985988
-0.0350985303521156
-0.033837828785181
-0.0318706110119819
-0.0294382516294717
-0.0267793741077184
-0.0241082143038511
-0.0215960312634706
-0.0193580389022827
-0.0174466092139482
-0.0158528573811054
-0.0145181016996502
-0.0133512364700436
-0.0122467242181301
-0.0110999727621674
-0.009819003753364
-0.0083347847685217
-0.0066105327568948
-0.004644501954317
-0.0024648373946547
-0.000122106866911
0.0023173545487225
0.0047777248546481
0.0071801426820456
0.0094501338899135
0.0115256356075406
0.0133633064106106
0.0149403689429163
0.0162524003535509
0.0173105038702487
0.01813730224967
0.0187584403902292
0.0191881544888019
0.0194080118089914
0.019343314692378
0.0188514161854982
0.0177345667034387
0.0157760716974735
0.0127898678183555
0.0086731445044279
0.0034489803947508
-0.0027143568731844
-0.0095133855938911
-0.016546219587326
-0.0233674142509698
-0.0295476876199245
-0.0347251035273075
-0.0386390686035156
-0.0411467440426349
-0.0422252044081687
-0.0419607795774936
-0.0405271351337432
-0.0381561517715454
-0.0351079329848289
-0.0316440500319004
-0.028003828600049
-0.0243842769414186
-0.0209269002079963
-0.0177129171788692
-0.0147660626098513
-0.0120607269927859
-0.0095337154343724
-0.0070993667468428
-0.0046674646437168
-0.0021619107574224
0.0004643304273486
0.0032226275652647
0.0060904864221811
0.0090185143053531
0.0119394240900874
0.0147769078612327
0.017453009262681
0.0198943186551332
0.0220385324209928
0.0238418690860271
0.0252860188484191
0.0263803396373987
0.0271567329764366
0.0276624355465173
0.0279543586075305
0.0280920397490263
0.0281299985945224
0.0281107909977436
0.0280525423586368
0.0279270615428686
0.0276363939046859
0.0270039476454257
0.0257939435541629
0.0237585864961147
0.0206981413066387
0.0165162086486816
0.0112565774470567
0.0051136659458279
-0.0015846913447603
-0.008418433368206
-0.0149330254644155
-0.0207014828920364
-0.0253773722797632
-0.028730658814311
-0.0306624248623847
-0.0311990641057491
-0.0304737351834774
-0.0287023335695266
-0.0261541325598955
-0.0231173932552337
-0.0198668874800205
-0.0166396517306566
-0.0136190820485353
-0.0109251169487833
-0.0086101703345775
-0.0066622169688344
-0.0050157932564616
-0.003569146618247
-0.0022042617201805
-0.0008060028776526
0.0007225973531603
0.0024494193494319
0.0044059883803129
0.0065852883271873
0.0089462157338857
0.0114228641614317
0.0139358704909682
0.0164038445800542
0.0187529362738132
0.0209229551255702
0.0228698104619979
0.024565752595663
0.0259987711906433
0.0271711610257625
0.0280968863517045
0.0287981946021318
0.0293025188148021
0.0296402350068092
0.0298425555229187
0.0299371555447578
0.0299379043281078
0.0298250950872898
0.0295186191797256
0.0288588870316743
0.0276135448366403
0.0255159270018339
0.0223262067884206
0.0178961623460054
0.0122174145653843
0.0054429974406957
-0.0021196138113737
-0.0100441509857773
-0.0178431868553161
-0.0250325966626405
-0.0311898924410343
-0.0359987989068031
-0.0392749086022377
-0.040972527116537
-0.0411753617227077
-0.0400726199150085
-0.0379257313907146
-0.035032745450735
-0.0316943638026714
-0.0281842537224292
-0.0247267521917819
-0.0214844048023223
-0.0185542032122612
-0.0159687492996454
-0.0137021150439977
-0.0116828009486198
-0.0098130395635962
-0.0079900147393345
-0.0061241732910275
-0.0041526774875819
-0.0020476775243878
0.0001825906801968
0.0025008309166878
0.0048514506779611
0.0071695270016789
0.009388169273734
0.0114474482834339
0.0133024072274565
0.0149245485663414
0.0162974745035171
0.0174114610999822
0.0182603299617767
0.0188426580280065
0.0191655978560447
0.0192473158240318
0.0191163439303636
0.0188081823289394
0.0183590836822986
0.017792135477066
0.0170908961445093
0.0161704048514366
0.0148665634915232
0.0129568949341773
0.0102088106796145
0.0064412374049425
0.0015824139118194
-0.0042920736595988
-0.0109507795423269
-0.0180290807038545
-0.0250785555690526
-0.0316311456263065
-0.0372619777917861
-0.0416386872529983
-0.0445508435368537
-0.0459189638495445
-0.0457889288663864
-0.04431739076972
-0.0417480841279029
-0.0383780114352703
-0.0345194712281227
-0.0304671172052621
-0.0264732372015714
-0.0227289795875549
-0.0193513836711645
-0.0163790974766016
-0.0137794921174645
-0.0114664994180202
-0.0093238390982151
-0.0072287078946828
-0.0050724055618047
-0.0027741743251681
-0.0002879332751035
0.0023957984521985
0.0052523645572364
0.0082298507913947
0.0112578552216291
0.0142563451081514
0.0171445608139038
0.0198484025895595
0.022305516526103
0.024469593539834
0.0263137072324752
0.0278311446309089
0.0290332436561584
0.029940441250801
0.0305610932409763
0.0308630391955375
0.030752832069993
0.0300760306417942
0.0286439340561628
0.0262814536690711
0.022881407290697
0.0184487905353307
0.0131235644221305
0.0071761361323297
0.0009769992902874
-0.0050509572029113
-0.010487737134099
-0.0149690154939889
-0.0182265266776084
-0.0201124474406242
-0.0206080041825771
-0.0198148488998413
-0.017931105569005
-0.0152201633900403
-0.0119778458029031
-0.0084995497018098
-0.0050516054034233
-0.0018509170040488
0.0009496193379163
0.0032716114073991
0.0051123243756592
0.0065339757129549
0.0076453518122434
0.008579883724451
0.0094734504818916
0.0104448460042476
0.0115812085568904
0.0129306763410568
0.0145012568682432
0.0162630304694175
0.0181545242667198
0.020094783976674
0.0219976045191288
0.0237827990204095
0.0253836363554
0.0267516449093818
0.0278593953698873
0.0287007689476013
0.0292838718742132
0.0296106524765491
0.029645973816514
0.0292902179062366
0.0283734500408172
0.0266814231872558
0.0240079760551452
0.0202163252979517
0.015290698967874
0.0093641392886638
0.0027144365012645
-0.0042701628990471
-0.0111452722921967
-0.017471570521593
-0.022870909422636
-0.0270685590803623
-0.0299156457185745
-0.0313905254006385
-0.0315848402678966
-0.0306798163801431
-0.028915699571371
-0.0265605114400386
-0.0238826982676982
-0.0211271718144416
-0.0184954348951578
-0.0161311719566583
-0.0141124399378895
-0.0124525502324104
-0.0111082438379526
-0.0099922716617584
-0.008990004658699
-0.0079783871769905
-0.0068438784219324
-0.0054970616474747
-0.0038822118658572
-0.0019809361547231
0.0001891432330012
0.0025789896026253
0.0051159183494746
0.0077129490673542
0.0102761853486299
0.0127113191410899
0.0149327628314495
0.0168734192848205
0.0184902064502239
0.0197641476988792
0.0206971615552902
0.0213077664375305
0.0216268263757228
0.0216940157115459
0.0215532220900058
0.0212407931685447
0.0207618493586778
0.0200596414506435
0.018994165584445
0.0173477362841367
0.0148641299456357
0.0113112442195415
0.0065455511212348
0.0005607847124338
-0.0064869560301303
-0.0142831830307841
-0.0223909076303243
-0.030311893671751
-0.0375570282340049
-0.0437081232666969
-0.0484600700438022
-0.051640935242176
-0.0532128699123859
-0.0532576777040958
-0.0519524663686752
-0.0495409965515136
-0.0463033579289913
-0.0425269827246665
-0.0384822152554988
-0.0344018377363681
-0.030464332550764
-0.026783924549818
-0.0234089083969593
-0.0203275047242641
-0.0174808446317911
-0.0147818010300397
-0.0121363773941993
-0.0094623137265443
-0.0067007760517299
-0.0038215483073145
-0.0008236315916292
0.0022680424153804
0.0054086023010313
0.0085401302203536
0.0115982284769415
0.014517811127007
0.0172395128756761
0.0197165459394454
0.0219187438488006
0.0238330587744712
0.0254614744335412
0.0268167294561862
0.0279183574020862
0.0287904255092144
0.029459074139595
0.0299502201378345
0.0302886627614498
0.0304944198578596
0.0305701419711112
0.0304772350937128
0.0301090478897094
0.0292810797691345
0.027752473950386
0.025275694206357
0.0216602142900228
0.0168306939303874
0.0108621586114168
0.0039853914640843
-0.0034359148703515
-0.0109521001577377
-0.0180900283157825
-0.0244168397039175
-0.0295898951590061
-0.0333850756287574
-0.0357051044702529
-0.0365724265575408
-0.0361108034849166
-0.0345209836959838
-0.0320540443062782
-0.0289829485118389
-0.0255745165050029
-0.0220659095793962
-0.0186471808701753
-0.0154498070478439
-0.012543199583888
-0.0099388882517814
-0.0075990306213498
-0.0054486510343849
-0.003392863087356
-0.0013375147245824
0.0007926849648356
0.0030441279523074
0.0054323971271514
0.0079435780644416
0.0105359340086579
0.0131453471258282
0.0156964249908924
0.0181154571473598
0.0203405022621154
0.0223263651132583
0.024045780301094
0.0254888143390417
0.0266606770455837
0.0275779515504837
0.0282641239464283
0.028745599091053
0.0290492642670869
0.0292025543749332
0.029234129935503
0.0291713327169418
0.0290345419198274
0.0288295410573482
0.0285325981676578
0.0280658714473247
0.0272767413407564
0.0259416811168193
0.0238031800836324
0.0206302925944328
0.016283068805933
0.0107618579640984
0.004229855723679
-0.0029949112795293
-0.0104767540469765
-0.0177219081670045
-0.0242478027939796
-0.0296454839408397
-0.0336229652166366
-0.036028116941452
-0.0368538610637187
-0.0362267568707466
-0.0343808531761169
-0.0316208377480506
-0.0282813441008329
-0.0246901400387287
-0.0211374163627624
-0.0178524982184171
-0.0149912312626838
-0.0126322768628597
-0.0107793547213077
-0.0093704061582684
-0.0082935821264982
-0.0074082938954234
-0.0065686651505529
-0.0056453822180628
-0.0045432057231664
-0.0032123755663633
-0.0016518039628863
9.72047564573586e-05
0.0019646708387881
0.0038673405069857
0.0057219397276639
0.0074567557312548
0.0090199541300535
0.0103809516876935
0.011527569964528
0.0124641042202711
0.0132088363170623
0.0137891620397567
0.0142370462417602
0.01458634249866
0.014870012179017
0.0151154873892664
0.0153384739533066
0.0155336679890751
0.0156585853546857
0.0156148001551628
0.0152416788041591
0.0143337436020374
0.0126794492825865
0.0101109351962804
0.0065529569983482
0.0020588394254446
-0.003178781364113
-0.0088483123108744
-0.0145643893629312
-0.0199241917580366
-0.0245612747967243
-0.0281869918107986
-0.0306154750287532
-0.0317735485732555
-0.0316981673240661
-0.0305226687341928
-0.0284539721906185
-0.0257448554039001
-0.0226647332310676
-0.0194710791110992
-0.0163838043808937
-0.0135655924677848
-0.0111120184883475
-0.009053437039256
-0.0073640313930809
-0.0059720398858189
-0.0047724200412631
-0.003644102718681
-0.0024684527888894
-0.0011455113999545
0.0003929096274077
0.0021751876920461
0.0041892379522323
0.006388469133526
0.0087015917524695
0.0110447276383638
0.0133341755717992
0.0154957752674818
0.0174680761992931
0.0192023236304521
0.0206636115908622
0.0218330956995487
0.0227085500955581
0.0233021322637796
0.0236369222402572
0.0237434171140193
0.0236518830060958
0.0233742129057645
0.022877998650074
0.0220680572092533
0.0207907073199749
0.0188628211617469
0.0161170419305562
0.0124515304341912
0.0078693376854062
0.0024950180668383
-0.0034319884143769
-0.0095817632973194
-0.0155735053122043
-0.0210250075906515
-0.0256003253161907
-0.0290454979985952
-0.0312096383422613
-0.0320527255535125
-0.0316407307982444
-0.0301288478076457
-0.0277362037450075
-0.0247162356972694
-0.0213266871869564
-0.0178034603595733
-0.0143417445942759
-0.011084858328104
-0.0081193950027227
-0.0054764389060437
-0.0031390953809022
-0.0010533854365348
0.000860113184899
0.002691501751542
0.0045230770483613
0.0064134546555578
0.0083901518955826
0.0104502476751804
0.0125643648207187
0.0146803921088576
0.0167292263358831
0.0186358131468296
0.0203320253640413
0.0217650309205055
0.0229002330452203
0.0237221382558345
0.0242348387837409
0.0244610421359539
0.0244382917881011
0.0242098122835159
0.0238052960485219
0.0232129581272602
0.0223572198301553
0.0210987702012062
0.0192613769322633
0.0166781898587942
0.0132447415962815
0.0089621013030409
0.0039555327966809
-0.0015352759510278
-0.0071884514763951
-0.0126454755663871
-0.0175598599016666
-0.0216394290328025
-0.024675752967596
-0.0265588574111461
-0.0272790398448705
-0.0269181504845619
-0.0256324112415313
-0.0236295666545629
-0.0211438704282045
-0.0184113308787345
-0.0156459175050258
-0.0130195030942559
-0.0106498850509524
-0.008597245439887
-0.0068666650913655
-0.0054162554442882
-0.004170574247837
-0.0030361621174961
-0.0019156043417751
-0.0007198327220976
0.0006194354500621
0.0021386654116213
0.0038385556545108
0.0056896326132118
0.0076424190774559
0.0096354559063911
0.0116013307124376
0.0134756751358509
0.0152070857584476
0.0167606547474861
0.018116170540452
0.0192668419331312
0.0202180538326501
0.0209822710603475
0.0215668007731437
0.0219520833343267
0.0220666266977787
0.0217745434492826
0.0208876561373472
0.0192013680934906
0.0165439024567604
0.0128249768167734
0.0080725774168968
0.0024500768631696
-0.0037537075113505
-0.0101618589833378
-0.0163623634725809
-0.0219635348767042
-0.0266419891268014
-0.030173847451806
-0.0324463099241256
-0.0334548875689506
-0.0332913100719451
-0.0321245342493057
-0.0301770456135272
-0.0276976022869348
-0.0249326732009649
-0.0221005156636238
-0.0193699281662702
-0.0168472491204738
-0.0145762152969837
-0.0125480070710182
-0.0107148122042417
-0.0090038105845451
-0.0073307398706674
-0.0056138690561056
-0.0037885983474552
-0.001818723976612
0.0002991189248859
0.0025369271170347
0.0048416214995086
0.0071456721052527
0.0093783345073461
0.0114739164710044
0.0133783165365457
0.0150558799505233
0.0164932496845722
0.017694991081953
0.0186739824712276
0.019443767145276
0.0200109854340553
0.0203611850738525
0.0204390455037355
0.0201343912631273
0.0192879196256399
0.0177205633372068
0.0152780897915363
0.011878453195095
0.0075482605025172
0.002437621820718
-0.0031897686421871
-0.0089880200102925
-0.0145750753581523
-0.0195848643779754
-0.023713082075119
-0.0267453342676162
-0.0285680368542671
-0.0291688330471515
-0.0286298338323831
-0.0271131210029125
-0.0248383097350597
-0.0220544524490833
-0.0190105810761451
-0.0159298069775104
-0.0129892900586128
-0.0103064747527241
-0.0079329889267683
-0.0058581447228789
-0.0040214471518993
-0.0023306990042328
-0.0006824675947427
0.0010183462873101
0.0028433836996555
0.0048310039564967
0.00698197260499
0.0092627387493848
0.0116163818165659
0.0139761818572878
0.0162761639803648
0.0184584222733974
0.0204787962138652
0.0223094522953033
0.0239373017102479
0.0253586545586586
0.0265685953199863
0.0275425128638744
0.0282132886350154
0.0284572727978229
0.0281025692820549
0.0269607063382864
0.0248718410730361
0.0217524673789739
0.017633693292737
0.0126775782555341
0.0071661239489912
0.0014654439873993
-0.0040275123901665
-0.0089416597038507
-0.0129764769226312
-0.0159283392131328
-0.0176995936781168
-0.0182941816747188
-0.017805827781558
-0.016401257365942
-0.0142968744039535
-0.0117314644157886
-0.0089406482875347
-0.0061348457820713
-0.0034805024042725
-0.0010862261988222
0.00100261811167
0.0027979298029094
0.0043543362990021
0.0057522067800164
0.0070814462378621
0.0084270341321825
0.0098563255742192
0.0114092612639069
0.0130935981869697
0.0148854311555624
0.0167353451251983
0.0185791552066802
0.0203487742692232
0.0219805408269166
0.0234214477241039
0.0246339440345764
0.0255985688418149
0.0263130664825439
0.0267880279570817
0.0270374845713377
0.0270601734519004
0.0268132090568542
0.0261916890740394
0.0250310637056827
0.0231375247240066
0.0203360319137573
0.0165202505886554
0.011691877618432
0.0059796720743179
-0.0003666374832391
-0.0070058647543191
-0.0135522028431296
-0.0196283962577581
-0.0249115675687789
-0.0291634649038314
-0.0322448797523975
-0.0341161899268627
-0.034827135503292
-0.0345012508332729
-0.0333164222538471
-0.0314809493720531
-0.0292100291699171
-0.0267058163881301
-0.0241407342255115
-0.0216465983539819
-0.0193102303892374
-0.0171730797737836
-0.0152344238013029
-0.0134593062102794
-0.0117918159812688
-0.0101704653352499
-0.0085399206727743
-0.0068578333593904
-0.0050993924960494
-0.0032611647620797
-0.0013624308630824
0.000559234060347
0.0024565272033214
0.004280412569642
0.0059859752655029
0.0075359512120485
0.0089020561426877
0.0100658508017659
0.0110202208161354
0.0117708276957273
0.0123360157012939
0.0127435028553009
0.0130247641354799
0.0132099371403455
0.0133246183395385
0.0133890565484762
0.0134187303483486
0.0134236477315425
0.0134065058082342
0.0133622027933597
0.0132767725735902
0.0131181143224239
0.0128170419484376
0.0122506916522979
0.011243300512433
0.0095904506742954
0.0071025975048542
0.0036552418023347
-0.0007697418332099
-0.0060624089092016
-0.0119884870946407
-0.0182195976376533
-0.0243815127760171
-0.030105747282505
-0.0350740142166614
-0.0390502735972404
-0.041896104812622
-0.0435694046318531
-0.0441138483583927
-0.0436446741223335
-0.0423288978636264
-0.0403607264161109
-0.0379390269517898
-0.0352510623633861
-0.0324604623019695
-0.0296956822276115
-0.0270397253334522
-0.0245269518345594
-0.0221510156989097
-0.0198794901371002
-0.0176667608320713
-0.0154629200696945
-0.0132212620228528
-0.0109049277380108
-0.0084922621026635
-0.005980048328638
-0.0033829710446298
-0.0007307400228455
0.0019343426683917
0.0045602074824273
0.0070902700535953
0.009470802731812
0.011658345349133
0.0136247929185628
0.0153584247455
0.016860919073224
0.0181434117257595
0.0192243121564388
0.0201276503503322
0.020880963653326
0.021512746810913
0.0220482926815748
0.0225053317844867
0.0228923298418521
0.0232085175812244
0.0234447326511144
0.0235872641205787
0.0236241854727268
0.0235504806041717
0.0233694110065698
0.0230894517153501
0.0227195620536804
0.0222665164619684
0.0217332504689693
0.0211145486682653
0.0203870479017496
0.0194936078041791
0.0183320418000221
0.0167625918984413
0.0146352499723434
0.011825930327177
0.0082716410979628
0.0039967484772205
-0.0008772946894168
-0.0061408132314682
-0.0115202525630593
-0.0167146045714616
-0.0214376412332057
-0.0254543721675872
-0.0286023579537868
-0.0307973213493824
-0.0320286191999912
-0.0323501862585544
-0.0318691171705722
-0.0307315457612276
-0.0291064400225877
-0.0271688625216484
-0.0250832363963127
-0.0229876991361379
-0.0209819786250591
-0.0191210601478815
-0.0174167603254318
-0.0158471409231424
-0.0143688051030039
-0.0129274595528841
-0.0114669650793075
-0.0099378572776913
-0.0083048287779092
-0.0065525225363671
-0.0046872943639755
-0.0027337279170751
-0.0007292190566658
0.0012809494510293
0.0032475874759256
0.005121040623635
0.0068571842275559
0.0084249591454863
0.0098089212551712
0.0110056679695844
0.0120202377438545
0.0128655415028333
0.0135618085041642
0.0141338417306542
0.0146068837493658
0.0150033812969923
0.0153426164761185
0.015642013400793
0.0159167256206274
0.0161769613623619
0.0164262596517801
0.0166620314121246
0.0168778244405984
0.0170671455562114
0.0172242540866136
0.0173361338675022
0.0173675827682018
0.0172470975667238
0.0168617218732833
0.0160667411983013
0.0147107932716608
0.0126703940331935
0.0098843425512313
0.006379900034517
0.0022835601121187
-0.0021894164383411
-0.0067647076211869
-0.0111487172544002
-0.0150680225342512
-0.0183002986013889
-0.0206933319568634
-0.0221736915409564
-0.0227477215230464
-0.0224944241344928
-0.0215483698993921
-0.0200759842991828
-0.0182531513273715
-0.016248021274805
-0.0142069077119231
-0.0122430576011538
-0.010431095957756
-0.0088070109486579
-0.0073703359812498
-0.0060878656804561
-0.0049012526869773
-0.0037387516349554
-0.0025293007493019
-0.0012159068137407
0.0002356246113777
0.0018342770636081
0.0035668313503265
0.0054028462618589
0.0072990981861948
0.0092051355168223
0.0110693341121077
0.0128432027995586
0.0144845340400934
0.0159598980098962
0.0172465462237596
0.0183332581073045
0.0192205961793661
0.0199220143258571
0.0204629749059677
0.0208757258951663
0.0211932621896266
0.0214453563094139
0.0216558445245027
0.02183673158288
0.0219743214547634
0.0220119431614875
0.0218419842422008
0.0213156640529632
0.0202687606215477
0.0185556430369615
0.0160849150270223
0.0128494361415505
0.008940840139985
0.0045443605631589
-8.352287113666534e-05
-0.0046499539166688
-0.0088658267632126
-0.0124826030805706
-0.0153183219954371
-0.0172698181122541
-0.0183134619146585
-0.018498096615076
-0.0179327186197042
-0.0167696475982666
-0.0151840532198548
-0.0133535899221897
-0.0114413183182477
-0.0095821674913167
-0.0078736534342169
-0.0063712270930409
-0.005087336525321
-0.003995407372713
-0.0030399458482861
-0.0021498119458556
-0.0012502493336796
-0.0002736886963248
0.0008294507861137
0.0020835464820265
0.0034865229390561
0.0050123096443712
0.0066161286085844
0.0082432013005018
0.0098379058763384
0.0113494452089071
0.0127350417897105
0.0139635419473052
0.0150182927027344
0.015895863994956
0.0166015215218067
0.0171454418450593
0.0175385437905788
0.0177826024591922
0.0178532283753156
0.0176826044917106
0.0171528197824955
0.0161075107753276
0.0143829006701707
0.0118499435484409
0.0084538860246539
0.0042399303056299
-0.0006404248997569
-0.0059407819062471
-0.0113478377461433
-0.0165258254855871
-0.0211657620966434
-0.025022430345416
-0.0279327128082513
-0.029818994924426
-0.0306836459785699
-0.0305981822311878
-0.0296890288591384
-0.0281213857233524
-0.0260814018547534
-0.0237573999911546
-0.0213216971606016
-0.0189150664955377
-0.0166362095624208
-0.0145370699465274
-0.0126253198832273
-0.0108742909505963
-0.0092351706698536
-0.0076468316838145
-0.0060448492877185
-0.0043716551735997
-0.002585916314274
-0.0006686011329293
0.0013742828741669
0.0035124141722917
0.0056968936696648
0.0078694401308894
0.0099714463576674
0.0119515564292669
0.0137713002040982
0.0154072251170873
0.0168487690389156
0.0180946085602045
0.0191505011171102
0.0200282260775566
0.0207440666854381
0.0213152170181274
0.0217521917074918
0.0220444872975349
0.0221396032720804
0.0219261273741722
0.0212361570447683
0.0198718402534723
0.0176477245986461
0.0144377816468477
0.010217348113656
0.0050876871682703
-0.0007256008684635
-0.0068988953717052
-0.0130547145381569
-0.018813744187355
-0.0238422136753797
-0.0278850868344306
-0.0307818297296762
-0.0324685238301754
-0.0329735875129699
-0.0324084088206291
-0.0309496819972991
-0.0288145113736391
-0.0262332279235124
-0.0234238412231206
-0.0205709841102361
-0.0178122352808713
-0.0152329392731189
-0.0128684733062982
-0.0107114445418119
-0.0087205516174435
-0.0068304464221
-0.0049642054364085
-0.003047545440495
-0.0010213525965809
0.0011498648673295
0.0034741801209747
0.0059331646189093
0.0084870848804712
0.0110822049900889
0.0136576890945434
0.016151187941432
0.0185039993375539
0.0206666346639394
0.0226016342639923
0.0242827832698822
0.0256960429251194
0.0268423650413751
0.0277379173785448
0.0284101776778697
0.0288878083229064
0.0291823744773864
0.0292650405317544
0.0290472414344549
0.0283773075789213
0.0270593632012605
0.024890387430787
0.0217072907835245
0.0174354631453752
0.0121252918615937
0.0059625720605254
-0.0007501444779336
-0.0076329531148076
-0.0142778269946575
-0.0202983636409044
-0.0253721494227647
-0.0292699821293354
-0.0318698324263095
-0.0331569910049438
-0.0332135595381259
-0.0322011187672615
-0.0303393620997667
-0.0278799701482057
-0.025075763463974
-0.0221518371254205
-0.0192869864404201
-0.0166049692779779
-0.0141708366572856
-0.0119926230981946
-0.0100300889462232
-0.0082092834636569
-0.006440729368478
-0.004637686535716
-0.0027301050722599
-0.0006725345738232
0.0015523610636591
0.003932979889214
0.0064316280186176
0.0089915785938501
0.0115455463528633
0.014024319127202
0.0163655988872051
0.0185195505619049
0.0204491131007671
0.0221277605742216
0.0235378369688987
0.0246712118387222
0.025531318038702
0.0261338949203491
0.0265057142823934
0.0266807787120342
0.0266913473606109
0.0265509765595197
0.0262301042675972
0.0256333108991384
0.0245940797030925
0.0228964947164058
0.0203191898763179
0.0166890434920787
0.0119326850399374
0.006113251671195
-0.0005588419735431
-0.0077444431371986
-0.0150185273960232
-0.0219279266893863
-0.0280524976551532
-0.0330563001334667
-0.0367186777293682
-0.0389450676739215
-0.039762694388628
-0.0393049046397209
-0.0377861559391021
-0.0354704223573207
-0.0326389148831367
-0.0295623801648616
-0.0264776106923818
-0.0235672444105148
-0.0209456570446491
-0.0186540856957435
-0.016667578369379
-0.0149127840995788
-0.0132898595184087
-0.011692140251398
-0.0100222155451774
-0.0082045597955584
-0.0061931563541293
-0.0039741308428347
-0.0015655551105737
0.000985738239251
0.0036119809374213
0.0062349564395844
0.0087755126878619
0.0111616747453808
0.0133356237784028
0.0152584379538893
0.0169115997850894
0.0182949528098106
0.0194201860576868
0.0202957391738891
0.0209021233022212
0.0211671944707632
0.0209560953080654
0.0200868658721447
0.0183709394186735
0.0156656838953495
0.0119234109297394
0.0072241234593093
0.0017839430365711
-0.0040638041682541
-0.0099124331027269
-0.0153405331075191
-0.0199698638170957
-0.0235086306929588
-0.0257750507444143
-0.0267050545662641
-0.0263480972498655
-0.0248515345156192
-0.0224360898137092
-0.019367391243577
-0.0159265361726284
-0.0123815201222896
-0.008961284533143
-0.0058353748172521
-0.003103110473603
-0.0007926952093839
0.0011306055821478
0.0027487627230584
0.0041722897440195
0.0055217435583472
0.0069111338816583
0.0084356721490621
0.0101632522419095
0.0121277403086423
0.0143267773091793
0.0167275760322809
0.019276762381196
0.0219080280512571
0.0245474968105554
0.0271182600408792
0.0295446664094924
0.031757403165102
0.0336953997611999
0.0352967530488967
0.0364787280559539
0.0371182560920715
0.0370459370315074
0.0360609479248523
0.0339672714471817
0.0306241195648908
0.0259965285658836
0.0201888121664524
0.0134498905390501
0.0061501488089561
-0.0012656180188059
-0.0083384700119495
-0.0146530829370021
-0.0198822971433401
-0.023814633488655
-0.0263637192547321
-0.0275615043938159
-0.027539987117052
-0.02650579623878
