bvp
-0.024910407140851
-0.0316183939576149
-0.0370267927646636
-0.0409313738346099
-0.0432579591870307
-0.0440495498478412
-0.0434471853077411
-0.0416667461395263
-0.0389723218977451
-0.0356472730636596
-0.0319673828780651
-0.0281784739345312
-0.0244777165353298
-0.021000113338232
-0.017812306061387
-0.0149147883057594
-0.0122538693249225
-0.0097413472831249
-0.007276851683855
-0.0047681238502264
-0.0021465066820383
0.0006235903128981
0.0035430556163191
0.0065829334780573
0.0096903853118419
0.0127948056906461
0.0158167630434036
0.0186778120696544
0.0213088635355234
0.0236578024923801
0.0256946049630641
0.02741140127182
0.0288189314305782
0.0299418196082115
0.0308133400976657
0.0314716398715972
0.0319584980607032
0.0323169119656086
0.0325857326388359
0.032795250415802
0.0329655259847641
0.0331015847623348
0.0331769399344921
0.0331063158810138
0.0327221564948558
0.0317732319235801
0.0299560595303773
0.0269770175218582
0.0226272419095039
0.0168440677225589
0.009741561487317
0.0016076657921075
-0.0071275071240961
-0.0159478411078453
-0.0243228413164615
-0.0317768305540084
-0.0379395633935928
-0.0425721406936645
-0.0455705374479293
-0.0469544604420661
-0.046847891062498
-0.045454517006874
-0.0430304259061813
-0.039854135364294
-0.0361970253288745
-0.0323004052042961
-0.0283602830022573
-0.0245170257985591
-0.0208502542227506
-0.0173820815980434
-0.0140876378864049
-0.0109101077541708
-0.0077795423567295
-0.0046313451603055
-0.0014193812385201
0.0018765712156891
0.0052474155090749
0.008654398843646
0.0120328301563858
0.0153017956763505
0.0183774530887603
0.0211836583912372
0.023658163845539
0.0257574524730443
0.0274608433246612
0.0287712756544351
0.0297112707048654
0.0303163528442382
0.0306301806122064
0.0306993220001459
0.0305593311786651
0.0302108228206634
0.0295947939157485
0.0285790152847766
0.0269671846181154
0.0245370659977197
0.0210993941873312
0.0165578387677669
0.0109515143558382
0.0044703288003802
-0.0025591128505766
-0.0097153279930353
-0.0165419857949018
-0.0226095933467149
-0.0275657214224338
-0.0311665441840887
-0.0332879535853862
-0.0339224934577941
-0.033168476074934
-0.0312121137976646
-0.0283022820949554
-0.0247202664613723
-0.0207499861717224
-0.0166532211005687
-0.0126498090103268
-0.0089022321626544
-0.0055065499618649
-0.0024921684525907
0.0001694299280643
0.0025499975308775
0.0047468566335737
0.0068631330505013
0.0089880898594856
0.0111825177446007
0.0134725095704197
0.0158499870449304
0.0182770621031522
0.0206937883049249
0.0230279583483934
0.0252042841166257
0.0271529480814933
0.0288177579641342
0.030162576586008
0.0311751868575811
0.031866654753685
0.0322655327618122
0.0324071832001209
0.0323132686316967
0.0319598838686943
0.0312486253678798
0.0300019532442092
0.0279923975467681
0.0249960366636514
0.0208515897393226
0.015510918572545
0.009070860221982
0.0017755962908267
-0.006012993864715
-0.0138657726347446
-0.0213435906916856
-0.0280514508485794
-0.0336805060505867
-0.0380296260118484
-0.0410063117742538
-0.0426161140203475
-0.0429481491446495
-0.04215819388628
-0.0404488816857337
-0.0380469299852848
-0.0351811461150646
-0.0320640914142131
-0.0288753323256969
-0.0257471334189176
-0.0227571353316307
-0.0199300236999988
-0.0172469764947891
-0.014660800807178
-0.0121127655729651
-0.0095462771132588
-0.0069172666408121
-0.0042019290849566
-0.0013988856226205
0.001473054755479
0.0043769585900008
0.0072608585469424
0.0100653581321239
0.0127335507422685
0.0152192590758204
0.0174916703253984
0.019535444676876
0.0213477630168199
0.0229337774217128
0.0243016388267278
0.0254597812891006
0.0264154225587844
0.0271691437810659
0.0277021862566471
0.027955625206232
0.0278075896203517
0.0270644761621952
0.0254793036729097
0.0227977279573678
0.0188207887113094
0.0134651772677898
0.0068026445806026
-0.0009307749569416
-0.0093572996556758
-0.0180057622492313
-0.0263739209622144
-0.0339924730360507
-0.0404788926243782
-0.0455699190497398
-0.0491299666464328
-0.0511426515877246
-0.0516930744051933
-0.0509459823369979
-0.0491235852241516
-0.0464822277426719
-0.0432857125997543
-0.0397795960307121
-0.0361728407442569
-0.0326251313090324
-0.0292374696582555
-0.0260500330477952
-0.0230498164892196
-0.0201846212148666
-0.0173794589936733
-0.0145539296790957
-0.0116388546302914
-0.0085879899561405
-0.0053832940757274
-0.0020360795315355
0.0014157851692289
0.0049155494198203
0.0083969021216034
0.011790944263339
0.0150317279621958
0.0180628914386034
0.0208436604589223
0.0233513545244932
0.0255810357630252
0.0275431331247091
0.0292586628347635
0.0307540632784366
0.0320575796067714
0.0331952907145023
0.0341857820749282
0.0350356474518775
0.035735547542572
0.0362507589161396
0.0365017764270305
0.0363449975848197
0.0355727933347225
0.0339420512318611
0.0312240235507488
0.0272617284208536
0.0220211278647184
0.0156223885715007
0.0083397105336189
0.0005677435547113
-0.0072344760410487
-0.0146052986383438
-0.0211354922503232
-0.0265087094157934
-0.0305226854979991
-0.0330929793417453
-0.0342444665729999
-0.0340938605368137
-0.0328271947801113
-0.0306760761886835
-0.0278927739709615
-0.0247257631272077
-0.0214000362902879
-0.0181028321385383
-0.0149733182042837
-0.012098342180252
-0.0095167234539985
-0.0072290739044547
-0.0052068890072405
-0.0033994331024587
-0.0017430665902793
-0.0001740446314215
0.0013597444631159
0.00289136916399
0.0044324770569801
0.005975242704153
0.0074975909665226
0.0089705903083086
0.0103655196726322
0.0116591397672891
0.0128372982144355
0.0138957891613245
0.0148387467488646
0.0156770125031471
0.016427282243967
0.0171114262193441
0.0177543554455041
0.0183787792921066
0.0189997963607311
0.0196239463984966
0.0202504657208919
0.020869331434369
0.0214543621987104
0.0219480730593204
0.0222394671291112
0.0221529453992843
0.0214657746255397
0.0199496746063232
0.0174206271767616
0.0137851387262344
0.0090748937800526
0.0034610326401889
-0.0027598782908171
-0.009205974638462
-0.0154623501002788
-0.021132469177246
-0.0258829742670059
-0.0294764768332242
-0.0317857190966606
-0.0327909253537654
-0.0325691401958465
-0.0312779732048511
-0.0291319135576486
-0.0263747163116931
-0.023254370316863
-0.0200022216886281
-0.0168138369917869
-0.0138336671516299
-0.0111473444849252
-0.0087803956121206
-0.0067031439393758
-0.0048443344421684
-0.0031115529127418
-0.0014106100425124
0.0003404021263122
0.0021995925344526
0.0041934419423341
0.0063173957169055
0.0085420226678252
0.0108193401247262
0.013089345768094
0.0152877159416675
0.0173535849899053
0.0192361585795879
0.0208994708955287
0.0223250314593315
0.0235116351395845
0.0244716592133045
0.0252259187400341
0.0257996190339326
0.0262168794870376
0.0264874156564474
0.0265849456191062
0.0264274291694164
0.0258716028183698
0.0247298665344715
0.0228091813623905
0.0199606399983167
0.0161258857697248
0.0113688968122005
0.0058820354752242
-3.551505506038666e-05
-0.0060170008800923
-0.0116749368607997
-0.016648806631565
-0.0206471066921949
-0.0234769340604543
-0.0250554103404283
-0.0254036821424961
-0.0246306043118238
-0.0229118596762418
-0.0204678587615489
-0.0175416991114616
-0.0143770538270473
-0.0111971721053123
-0.0081857545301318
-0.0054714097641408
-0.0031205937266349
-0.0011404934339225
0.0005112974904477
0.001911555416882
0.0031523779034614
0.004323209170252
0.0054960548877716
0.0067144683562219
0.0079898657277226
0.0093061495572328
0.0106277884915471
0.0119064450263977
0.0130866430699825
0.0141139151528477
0.0149435475468635
0.0155448904260993
0.0159023590385913
0.0160167068243026
0.015905350446701
0.0155990505591034
0.0151357352733612
0.0145517075434327
0.0138649567961692
0.0130505450069904
0.012022316455841
0.0106351058930158
0.0087091233581304
0.0060696508735418
0.0025934316217899
-0.0017489474266767
-0.0068689743056893
-0.0125625394284725
-0.0185343325138092
-0.0244364235550165
-0.0299150068312883
-0.0346564054489135
-0.0384218022227287
-0.041066326200962
-0.0425426810979843
-0.0428904145956039
-0.0422171130776405
-0.0406793430447578
-0.0384647920727729
-0.0357729941606521
-0.0327957645058631
-0.0297002308070659
-0.0266171842813491
-0.0236380994319915
-0.0208175480365753
-0.0181744322180748
-0.0156947597861289
-0.0133405113592743
-0.0110614448785781
-0.008806724101305
-0.0065349815413355
-0.0042200540192425
-0.0018524443730711
0.0005603500176221
0.0029941471293568
0.0054116114042699
0.0077682454138994
0.0100174257531762
0.0121149132028222
0.0140235852450132
0.0157167483121156
0.0171800814568996
0.0184125378727912
0.0194249097257852
0.0202355459332466
0.0208657849580049
0.0213382467627525
0.0216765105724334
0.0219015758484601
0.0220215991139411
0.0220129694789648
0.0217977408319711
0.0212321747094392
0.0201185550540685
0.0182404052466154
0.0154141541570425
0.0115447035059332
0.0066662887111306
0.0009547853842377
-0.0052895350381731
-0.0116818202659487
-0.0178063418716192
-0.0232745334506034
-0.0277742519974708
-0.0310988686978817
-0.0331549569964408
-0.0339545346796512
-0.0335983373224735
-0.0322533845901489
-0.030127178877592
-0.0274431500583887
-0.0244193691760301
-0.0212493427097797
-0.0180878192186355
-0.0150445569306612
-0.0121823353692889
-0.0095174070447683
-0.0070259673520922
-0.0046574398875236
-0.0023502372205257
-4.512351006269455e-05
0.0023045884445309
0.0047254674136638
0.0072203753516077
0.0097696427255868
0.0123367737978696
0.0148750739172101
0.0173317790031433
0.0196532420814037
0.0217918902635574
0.0237096212804317
0.0253784395754337
0.026782177388668
0.0279173180460929
0.0287920385599136
0.0294260401278734
0.0298500787466764
0.030102964490652
0.0302270669490098
0.0302637107670307
0.0302502661943435
0.0302169993519783
0.0301748625934124
0.0300916545093059
0.0298684630542993
0.0293330736458301
0.0282586552202701
0.0264050867408514
0.0235746223479509
0.0196677520871162
0.0147203346714377
0.008911202661693
0.0025419120211154
-0.0040046055801212
-0.0103179654106497
-0.0160161051899194
-0.0207909233868122
-0.0244359299540519
-0.0268562510609626
-0.028064651414752
-0.0281666442751884
-0.0273394025862216
-0.025808285921812
-0.0238208062946796
-0.0216196794062852
-0.0194196347147226
-0.0173895210027694
-0.0156391598284244
-0.0142130088061094
-0.0130930999293923
-0.0122115807607769
-0.0114708570763468
-0.01076465472579
-0.0099937096238136
-0.00907738879323
-0.0079617565497756
-0.0066217039711773
-0.0050605935975909
-0.0033098054118454
-0.0014235521666705
0.000531448982656
0.0024863118305802
0.0043791327625513
0.0061624012887477
0.0078064175322651
0.0093003036454319
0.0106507483869791
0.0118756014853715
0.0129958223551511
0.0140310674905776
0.0149977579712867
0.0159087032079696
0.0167743619531393
0.0175992175936698
0.0183654371649026
0.0190075226128101
0.0193937178701162
0.0193283259868621
0.0185780506581068
0.0169179905205965
0.0141868935897946
0.0103361159563064
0.0054582469165325
-0.0002130006905645
-0.006331006065011
-0.0124832885339856
-0.0182473957538604
-0.02324596978724
-0.0271897073835134
-0.0299012009054422
-0.0313191823661327
-0.0314869359135627
-0.030532231554389
-0.0286458171904087
-0.026059553027153
-0.0230216104537248
-0.0197705440223217
-0.0165139902383089
-0.0134147219359874
-0.0105836689472198
-0.0080773970112204
-0.0058992723934352
-0.0040078535676002
-0.0023317504674196
-0.0007858406752347
0.0007130065932869
0.0022326270118355
0.0038180719129741
0.0054892385378479
0.0072409640997648
0.0090456027537584
0.0108585720881819
0.0126263499259948
0.0142940636724233
0.01580979116261
0.0171279050409793
0.0182133596390485
0.0190440528094768
0.0196111276745796
0.0199205074459314
0.0199938919395208
0.0198656022548675
0.0195780619978904
0.0191780775785446
0.0187085531651973
0.0181890223175287
0.0175877343863248
0.0168005172163248
0.0156527683138847
0.0139294415712356
0.0114239128306508
0.0079907989129424
0.0035919728688895
-0.0016747271874919
-0.0075740213505923
-0.0137579031288623
-0.0198102332651615
-0.0253050569444894
-0.0298653338104486
-0.0332061648368835
-0.0351573005318641
-0.0356702134013175
-0.0348135605454444
-0.0327563397586345
-0.0297416262328624
-0.0260562673211097
-0.0219999030232429
-0.0178560316562652
-0.0138667486608028
-0.010213803499937
-0.0070094596594572
-0.0042963437736034
-0.0020531127229332
-0.0002062106505036
0.0013516414910554
0.0027405750006437
0.0040748636238276
0.0054464465938508
0.0069121834821999
0.008489578962326
0.0101613504812121
0.0118833929300308
0.0135919582098722
0.0152120431885123
0.0166703835129737
0.0179093796759843
0.0188946984708309
0.0196166019886732
0.0200890190899372
0.020345289260149
0.0204295590519905
0.0203869044780731
0.0202507898211479
0.0200221315026283
0.019644746556878
0.0189930703490972
0.0178834795951843
0.0161101017147302
0.0134966121986508
0.0099495891481637
0.0054993154481053
0.0003155237063765
-0.0053071011789143
-0.0109877418726682
-0.016313187777996
-0.0208964198827743
-0.024427143856883
-0.0267028864473104
-0.0276394449174404
-0.0272689051926136
-0.0257290489971637
-0.0232420414686203
-0.0200844462960958
-0.0165539011359214
-0.0129365716129541
-0.0094785122200846
-0.0063643530011177
-0.0037055406719446
-0.0015381826087832
0.0001692352816462
0.0015007350593805
0.0025749308988451
0.0035251285880804
0.0044787423685193
0.0055398447439074
0.006776921916753
0.0082179177552461
0.0098540149629116
0.0116488393396139
0.0135486349463462
0.0154921300709247
0.0174198262393474
0.0192812383174896
0.0210372004657983
0.0226574204862117
0.0241179931908845
0.0253993235528469
0.0264793243259191
0.0273185316473245
0.027838310226798
0.0279024727642536
0.0273199565708637
0.0258770771324634
0.0233901888132095
0.0197615381330251
0.0150220161303877
0.0093476008623838
0.003045686520636
-0.0034830956719815
-0.0097996639087796
-0.0154859516769647
-0.0201950185000896
-0.0236851125955581
-0.0258369147777557
-0.0266533829271793
-0.0262452065944671
-0.0248079895973205
-0.0225950554013252
-0.019888300448656
-0.0169677548110485
-0.0140819251537323
-0.0114242667332291
-0.0091197248548269
-0.0072226412594318
-0.00572279561311
-0.0045560710132122
-0.0036211318802088
-0.0027994681149721
-0.0019734436646103
-0.0010427166707813
6.292061880230904e-05
0.0013785795308649
0.0029044803231954
0.0046087112277746
0.0064342427067458
0.008308345451951
0.0101522179320454
0.011891852132976
0.0134662184864282
0.0148284416645765
0.0159431509673595
0.0167773105204105
0.0172774400562047
0.0173436012119054
0.0168213322758674
0.0155204003676772
0.0132555356249213
0.0098983151838183
0.0054254196584224
-5.08064404129982e-05
-0.0062782675959169
-0.0128908073529601
-0.0194568522274494
-0.0255368463695049
-0.0307379998266696
-0.0347583591938018
-0.0374139547348022
-0.0386466160416603
-0.038514032959938
-0.0371688455343246
-0.0348337925970554
-0.0317742228507995
-0.0282686166465282
-0.0245816018432378
-0.0209417082369327
-0.017523193731904
-0.0144337490200996
-0.0117123341187834
-0.0093369409441947
-0.0072381850332021
-0.0053169382736086
-0.0034653963521122
-0.0015870362985879
0.000390522996895
0.002509138546884
0.0047769309021532
0.0071701752021908
0.0096411975100636
0.0121282860636711
0.0145668797194957
0.0169039275497198
0.0191111341118812
0.0211896002292633
0.0231619030237197
0.0250495374202728
0.0268380809575319
0.028443805873394
0.0296992510557174
0.03036655113101
0.030179189518094
0.0289036910980939
0.0264017973095178
0.0226734578609466
0.0178704150021076
0.0122800366953015
0.0062851137481629
0.0003091027028858
-0.005239431746304
-0.0100116841495037
-0.0137507114559412
-0.0163112021982669
-0.0176641345024108
-0.0178866237401962
-0.017142578959465
-0.0156576875597238
-0.013687739148736
-0.0114838378503918
-0.0092643685638904
-0.0071969125419855
-0.0053868358954787
-0.0038740464951843
-0.0026396804023534
-0.0016199653036892
-0.0007247065659612
0.000143012497574
0.0010698996484279
0.0021202820353209
0.003330510109663
0.0047092381864786
0.0062391110695898
0.0078796744346618
0.0095760226249694
0.0112715978175401
0.0129173658788204
0.0144740343093872
0.0159102380275726
0.0171965807676315
0.0182897001504898
0.0191070958971977
0.0195060409605503
0.0192809682339429
0.018185943365097
0.015981663018465
0.0124964667484164
0.0076818959787487
0.0016444725915789
-0.0053540719673037
-0.0129244895651936
-0.0205978788435459
-0.0278846845030784
-0.0343323796987533
-0.0395715720951557
-0.0433480702340602
-0.0455394461750984
-0.0461532995104789
-0.0453115180134773
-0.0432274006307125
-0.0401758775115013
-0.0364589132368564
-0.0323735252022743
-0.0281854961067438
-0.0241073481738567
-0.0202830135822296
-0.0167834311723709
-0.0136121325194835
-0.0107177514582872
-0.0080132856965065
-0.005398831795901
-0.0027807406149804
-8.536223322153091e-05
0.0027312189340591
0.0056792260147631
0.0087370052933692
0.0118561442941427
0.0149697959423065
0.0180028025060892
0.0208807699382305
0.0235370695590972
0.0259172692894935
0.0279815271496772
0.0297048278152942
0.0310702919960021
0.0320499241352081
0.032578557729721
0.0325391143560409
0.0317722894251346
0.0301094595342874
0.0274206567555665
0.0236649308353662
0.0189250838011503
0.0134137561544775
0.0074511943385005
0.0014233861584216
-0.0042696371674537
-0.0092650353908538
-0.0132773593068122
-0.0161214135587215
-0.0177181810140609
-0.0180886127054691
-0.0173411164432764
-0.0156563390046358
-0.0132671650499105
-0.0104310950264334
-0.0074000684544444
-0.0043947389349341
-0.0015850375639274
0.0009220096399076
0.0030854097567498
0.0049226367846131
0.0064930403605103
0.0078797033056616
0.0091743851080536
0.0104627553373575
0.0118090733885765
0.0132459430024027
0.014773067086935
0.0163620617240667
0.0179640669375658
0.0195198636502027
0.020969545468688
0.02225829847157
0.0233404748141765
0.0241852775216102
0.0247820392251014
0.0251401402056217
0.0252832919359207
0.0252420827746391
0.0250471420586109
0.0247233025729656
0.0242809597402811
0.0237001702189445
0.0229128096252679
0.0217958819121122
0.0201859381049871
0.0179146472364664
0.0148549154400825
0.0109620857983827
0.0062987096607685
0.0010381620377302
-0.0045535806566476
-0.0101542258635163
-0.015429688617587
-0.0200774278491735
-0.0238619316369295
-0.0266348253935575
-0.0283383131027221
-0.0290000531822443
-0.0287239458411932
-0.0276744477450847
-0.0260547269135713
-0.0240820590406656
-0.0219630133360624
-0.0198722779750823
-0.0179392620921134
-0.0162417776882648
-0.0148047879338264
-0.0136059718206524
-0.0125893931835889
-0.0116827012971043
-0.010811953805387
-0.009914107620716
-0.0089480271562933
-0.0079000545665621
-0.0067830998450517
-0.0056327264755964
-0.0045008324086666
-0.003447126597166
-0.0025313384830951
-0.0018062274903059
-0.0013099461793899
-0.0010599959641695
-0.0010509714484214
-0.0012571923434734
-0.0016395989805459
-0.0021523125469684
-0.0027471743524074
-0.0033784601837396
-0.0040067136287689
-0.00459910556674
-0.0051284246146678
-0.0055753793567419
-0.0059342505410313
-0.0062217386439442
-0.00648954231292
-0.0068316329270601
-0.0073741124942898
-0.0082486756145954
-0.009561120532453
-0.0113642765209078
-0.013639897108078
-0.0162925217300653
-0.0191585291177034
-0.0220295190811157
-0.0246817376464605
-0.0269045531749725
-0.0285264812409877
-0.029434211552143
-0.029579222202301
-0.0289753824472427
-0.0276928842067718
-0.0258473046123981
-0.0235836617648601
-0.0210594926029443
-0.0184282511472702
-0.0158240534365177
-0.0133516592904925
-0.0110814683139324
-0.0090474998578429
-0.0072492314502596
-0.0056564514525234
-0.0042170290835201
-0.0028695319779217
-0.0015561922919005
-0.0002299717161804
0.0011423679534345
0.0025768938940018
0.004070283845067
0.0056017884053289
0.0071390559896826
0.0086459014564752
0.0100877601653337
0.0114326402544975
0.0126527203246951
0.0137290703132748
0.0146550666540861
0.0154356658458709
0.0160841029137372
0.0166188050061464
0.0170604865998029
0.0174280293285846
0.0177361890673637
0.0179974436759948
0.0182230826467275
0.0184206832200288
0.0185913480818271
0.0187266208231449
0.0188010483980178
0.0187619794160127
0.0185259878635406
0.0179889351129531
0.0170461311936378
0.0156161095947027
0.0136643890291452
0.0112210875377058
0.0083851907402277
0.00531403766945
0.0022011403925716
-0.0007519153878092
-0.0033617531880736
-0.0054831164889037
-0.0070216651074588
-0.0079390024766325
-0.0082504767924547
-0.0080181313678622
-0.0073404619470238
-0.0063389958813786
-0.0051422389224171
-0.0038705496117472
-0.0026250835508108
-0.001480296254158
-0.0004798173904418
0.0003641694784164
0.0010679420083761
0.0016678860411047
0.0022092815488576
0.0027377232909202
0.0032938001677393
0.0039084330201148
0.0045981081202626
0.0053620170801877
0.0061826598830521
0.0070295766927301
0.0078655174002051
0.0086538102477788
0.0093647707253694
0.009979392401874
0.0104894135147333
0.0108944606035947
0.0112000070512294
0.0114173851907253
0.011562212370336
0.0116510763764381
0.0116991503164172
0.0117183504626154
0.0117157939821481
0.0116929411888122
0.0116464719176292
0.0115717770531773
0.0114638973027467
0.0113116595894098
0.0110894199460744
0.0107508897781372
0.0102267619222402
0.0094302641227841
0.0082725938409566
0.0066837724298238
0.0046335621736943
0.0021477348636835
-0.0006854222156107
-0.0037218776997178
-0.0067826891317963
-0.0096834460273385
-0.0122618256136775
-0.0143951727077364
-0.016006177291274
-0.0170616023242473
-0.0175695344805717
-0.0175742041319608
-0.0171475075185298
-0.0163803938776254
-0.0153739750385284
-0.0142290219664573
-0.0130369234830141
-0.0118723716586828
-0.0107854818925261
-0.0097964880988001
-0.0088975448161363
-0.0080615142360329
-0.0072534112259745
-0.0064392974600195
-0.0055912239477038
-0.0046901488676667
-0.0037282109260559
-0.0027098758146166
-0.0016497960314154
-0.0005682967603206
0.0005103521980345
0.0015573697164654
0.0025430680252611
0.0034434963017702
0.0042435717768967
0.0049374620430171
0.0055278912186622
0.0060223145410418
0.0064288321882486
0.0067555229179561
0.0070118475705385
0.0072099845856428
0.0073648230172693
0.007493071258068
0.0076123867183923
0.0077385893091559
0.0078811701387166
0.0080417394638061
0.0082160141319036
0.0083957547321915
0.0085698114708065
0.0087206996977329
0.008811461739242
0.0087706828489899
0.00849075242877
0.0078438073396682
0.0067083681933581
0.0049978173337876
0.0026854826137423
-0.0001790462993085
-0.0034698008093982
-0.0070009250193834
-0.0105517953634262
-0.0138961086049675
-0.0168316420167684
-0.0192019958049058
-0.0209067743271589
-0.0219048224389553
-0.0222133286297321
-0.0219018012285232
-0.0210797227919101
-0.0198798701167106
-0.018442178145051
-0.01689981110394
-0.0153665458783507
-0.0139273423701524
-0.0126328282058238
-0.0114959608763456
-0.0104940729215741
-0.0095789143815636
-0.0086892191320657
-0.0077614672482013
-0.0067388238385319
-0.0055773397907614
-0.0042511662468314
-0.0027590673416852
-0.0011278968304395
0.0005936473608016
0.0023486912250518
0.0040823826566338
0.0057459231466054
0.0073008695617318
0.0087229516357183
0.0100004691630601
0.0111304372549057
0.012117376551032
0.0129726873710751
0.0137131847441196
0.0143603198230266
0.014937006868422
0.0154608320444822
0.0159398578107357
0.0163748394697904
0.0167649630457162
0.0171124506741762
0.0174231994897127
0.0177039634436368
0.0179565101861953
0.0181655772030353
0.0182820297777652
0.0182114169001579
0.017816737294197
0.0169369354844093
0.0154180712997913
0.0131502151489257
0.0101007865741848
0.0063347797840833
0.0020142262801527
-0.0026220818981528
-0.0072904275730252
-0.0116992564871907
-0.0155853675678372
-0.0187424905598163
-0.0210385471582412
-0.0224209055304527
-0.0229131411761045
-0.0226066000759601
-0.0216450802981853
-0.0202030278742313
-0.0184625498950481
-0.0165931098163127
-0.0147351771593093
-0.0129898702725768
-0.0114153586328029
-0.0100275874137878
-0.0088039506226778
-0.0076916981488466
-0.0066210143268108
-0.0055182445794343
-0.0043160617351531
-0.0029624216258525
-0.0014284346252679
0.0002891104668378
0.0021705534309148
0.0041767712682485
0.0062532071024179
0.0083374306559562
0.0103678191080689
0.0122898733243346
0.0140601191669702
0.0156478304415941
0.0170349366962909
0.0182148199528455
0.0191910956054925
0.019977431744337
0.0205960646271705
0.0210735406726598
0.0214372612535953
0.0217133536934852
0.0219206232577562
0.0220567844808101
0.0220795832574367
0.0218924582004547
0.0213461592793464
0.0202593728899955
0.0184531845152378
0.0157943069934844
0.0122385919094085
0.0078586591407656
0.002845331095159
-0.0025146007537841
-0.0078775333240628
-0.0128904283046722
-0.0172365754842758
-0.0206719674170017
-0.0230465084314346
-0.0243103019893169
-0.0245092660188674
-0.0237708240747451
-0.0222802851349115
-0.0202536024153232
-0.017912995070219
-0.0154676642268896
-0.0130973132327198
-0.0109358439221978
-0.0090595176443457
-0.0074859578162431
-0.0061820233240723
-0.0050761559978127
-0.0040743667632341
-0.0030772304162383
-0.0019947942346334
-0.0007585193961858
0.000671861693263
0.0023080008104443
0.0041358228772878
0.0061180554330348
0.0081972265616059
0.0103014567866921
0.0123533587902784
0.0142808062955737
0.0160271525382995
0.0175561774522066
0.0188496075570583
0.0199029631912708
0.020724656060338
0.0213346574455499
0.0217599924653768
0.0220302566885948
0.0221714675426483
0.0221895333379507
0.0220436230301857
0.0216256566345691
0.0207630470395088
0.0192480478435754
0.016885221004486
0.0135447578504681
0.0092076072469353
0.0039886916056275
-0.0018691383302211
-0.0080273449420928
-0.0140984570607543
-0.0196965020149946
-0.0244851280003786
-0.028214082121849
-0.0307366698980331
-0.0320125557482242
-0.0321017540991306
-0.0311497822403907
-0.0293646417558193
-0.0269903745502233
-0.0242803953588008
-0.0214705523103475
-0.0187551155686378
-0.0162716079503297
-0.0140956072136759
-0.012242249213159
-0.0106724444776773
-0.0093052294105291
-0.0080352909862995
-0.0067514413967728
-0.0053547429852187
-0.0037729633040726
-0.0019667381420731
6.849970668554306e-05
0.0023019048385322
0.0046727368608117
0.0071021360345184
0.0095052942633628
0.0118010537698864
0.0139196533709764
0.0158077217638492
0.0174288637936115
0.0187629032880067
0.0198073051869869
0.0205780770629644
0.0211065653711557
0.0214339755475521
0.0216068513691425
0.0216721314936876
0.0216674674302339
0.0216045565903186
0.0214470122009515
0.0210907123982906
0.0203594751656055
0.0190253220498561
0.0168516691774129
0.0136480117216706
0.0093223471194505
0.0039189485833048
-0.0023691575042903
-0.0092179840430617
-0.01621575653553
-0.0229193903505802
-0.0289121568202972
-0.0338527485728263
-0.0375084280967712
-0.039770171046257
-0.0406515747308731
-0.0402741432189941
-0.0388423614203929
-0.0366132967174053
-0.0338657796382904
-0.0308715030550956
-0.0278682392090559
-0.0250386223196983
-0.022498058155179
-0.0202905870974063
-0.0183929074555635
-0.0167287196964025
-0.0151892146095633
-0.0136522483080625
-0.0119999228045344
-0.0101378373801708
-0.0080118477344512
-0.0056145978160202
-0.0029802806675434
-0.0001717470586299
0.0027329646982252
0.0056493268348276
0.0084923021495342
0.0111847389489412
0.0136675275862216
0.0159053467214107
0.0178855881094932
0.0196137782186269
0.0211071111261844
0.0223840996623039
0.0234470851719379
0.0242572464048862
0.0247131511569023
0.0246506445109844
0.0238696541637182
0.0221794974058866
0.0194520335644483
0.0156685728579759
0.0109446886926889
0.0055275484919548
-0.0002308208495378
-0.0059200432151556
-0.0111282784491777
-0.0154950022697448
-0.0187497958540916
-0.0207341220229864
-0.0214072093367576
-0.0208400059491395
-0.0192002598196268
-0.0167289357632398
-0.0137079982087016
-0.0104253757745027
-0.0071449754759669
-0.0040822401642799
-0.001384655945003
0.0008775005117058
0.0027087666094303
0.0041784509085118
0.0054035019129514
0.0065247737802565
0.0076823527924716
0.0089954789727926
0.0105488188564777
0.012384352274239
0.0144986379891633
0.0168467182666063
0.0193508379161357
0.0219119824469089
0.0244255848228931
0.0267968233674764
0.0289483945816755
0.0308237373828887
0.0323891304433345
0.0336304828524589
0.0345418602228164
0.0351049154996871
0.0352629013359546
0.0349030941724777
0.0338610112667083
0.0319492891430854
0.0290057715028524
0.0249473638832569
0.0198117140680551
0.0137751549482345
0.007142721209675
0.0003109220415353
-0.0062869684770703
-0.0122380889952182
-0.0171988885849714
-0.0209299176931381
-0.0233122259378433
-0.0243459288030862
-0.0241374615579843
-0.0228791497647762
-0.0208225958049297
-0.0182493012398481
-0.0154399722814559
-0.0126454755663871
-0.0100652929395437
-0.0078341094776988
-0.0060144271701574
-0.0045976531691849
-0.0035155452787876
-0.0026589026674628
-0.0019001560285687
-0.0011167749762535
-0.0002089021727442
0.0008919658139348
0.0022185342386364
0.0037655532360076
0.0054921144619584
0.0073283314704895
0.0091859754174947
0.0109729031100869
0.0126080121845006
0.0140303242951631
0.0152008086442947
0.0161020569503307
0.0167366825044155
0.0171196646988391
0.0172605589032173
0.0171360205858945
0.0166628248989582
0.0156890861690044
0.0140149518847465
0.0114384647458791
0.0078117419034242
0.0030907522886991
-0.0026341788470745
-0.0091324802488088
-0.0160532016307115
-0.0229695308953523
-0.0294389314949512
-0.0350628420710563
-0.0395331680774688
-0.0426596216857433
-0.0443761385977268
-0.0447300933301448
-0.0438631512224674
-0.0419887006282806
-0.0393643900752067
-0.0362617745995521
-0.0329387784004211
-0.0296169035136699
-0.0264637693762779
-0.0235835239291191
-0.0210156515240669
-0.0187406223267316
-0.0166931934654712
-0.0147820254787802
-0.0129083190113306
-0.0109799075871706
-0.0089244861155748
-0.0067005823366343
-0.0043012453243136
-0.0017516268417239
0.0008976943790912
0.0035807564854621
0.0062259202823042
0.0087630487978458
0.0111286304891109
0.0132695669308304
0.0151466559618711
0.0167380794882774
0.0180412381887435
0.019072089344263
0.0198617167770862
0.020449012517929
0.0208713393658399
0.0211543068289756
0.0212952904403209
0.0212397500872612
0.0208622217178344
0.0199684724211692
0.0183273535221815
0.015725303441286
0.0120265446603298
0.00722211971879
0.0014540459960699
-0.0049906997010111
-0.0117139853537082
-0.0182630661875009
-0.0241969302296638
-0.029144138097763
-0.0328409895300865
-0.0351484008133411
-0.0360503196716308
-0.0356397703289985
-0.0340982601046562
-0.0316689573228359
-0.0286253578960895
-0.0252419337630271
-0.0217695422470569
-0.0184151194989681
-0.0153257166966795
-0.012578354217112
-0.0101803187280893
-0.0080819465219974
-0.0061956830322742
-0.0044153267517685
-0.0026354161091148
-0.000768341764342
0.0012461587321013
0.0034377768170088
0.0058042439632117
0.008312557823956
0.0109050245955586
0.0135082565248012
0.0160424783825874
0.0184306167066097
0.02060585655272
0.0225169509649276
0.0241323132067918
0.0254414957016706
0.0264525711536407
0.0271886195987463
0.027685958892107
0.0279903374612331
0.0281493626534938
0.0282058157026767
0.028191402554512
0.0281149670481681
0.0279434956610202
0.0275819562375545
0.0268655642867088
0.0255762822926044
0.0234839841723442
0.020402293652296
0.0162425599992275
0.0110508119687438
0.0050190696492791
-0.0015332670882344
-0.0082042645663023
-0.0145670128986239
-0.0202255174517631
-0.0248600505292415
-0.028257168829441
-0.0303222313523292
-0.0310759544372558
-0.0306394696235656
-0.0292116422206163
-0.027041345834732
-0.0243985615670681
-0.0215469077229499
-0.0187176633626222
-0.0160880014300346
-0.0137673513963818
-0.0117927556857466
-0.0101350490003824
-0.0087168822064995
-0.0074360803700983
-0.0061855446547269
-0.0048674643039703
-0.003404424060136
-0.0017481426475569
0.0001156378129962
0.0021677482873201
0.0043614720925688
0.0066305133514106
0.0088975811377167
0.0110837444663047
0.0131170311942696
0.0149396173655986
0.0165126528590917
0.0178164802491664
0.0188476499170064
0.0196167044341564
0.0201464537531137
0.0204688142985105
0.0206220019608736
0.0206477157771587
0.0205850191414356
0.0204623974859714
0.0202874299138784
0.0200289394706487
0.0195966474711895
0.0188344549387693
0.0175385102629661
0.0154986288398504
0.0125509342178702
0.0086255343630909
0.0037776557728648
-0.0018035853281617
-0.0078134257346391
-0.0138751557096838
-0.0195948854088783
-0.0246126130223274
-0.0286435894668102
-0.0315047353506088
-0.0331239514052867
-0.0335352793335914
-0.0328623577952384
-0.0312949270009994
-0.0290635861456394
-0.0264129023998975
-0.0235744789242744
-0.0207462348043918
-0.0180793963372707
-0.0156696774065494
-0.0135537320747971
-0.0117132039740681
-0.0100853759795427
-0.0085793333128094
-0.0070949550718069
-0.0055405381135642
-0.0038473913446068
-0.0019804025068879
5.918461829423904e-05
0.0022392561659216
0.0045050587505102
0.0067874030210077
0.0090116122737526
0.0111061576753854
0.0130101116374135
0.0146796638146042
0.0160922463983297
0.017246076837182
0.0181555952876806
0.0188457127660512
0.0193469673395156
0.0196915045380592
0.0199090912938117
0.0200241170823574
0.0200524237006902
0.0199915301054716
0.0198023654520511
0.0193916223943233
0.0186077486723661
0.0172589402645826
0.0151517791673541
0.0121403681114315
0.0081723099574446
0.0033189042005687
-0.0022193766199052
-0.0081342877820134
-0.0140521693974733
-0.0195863973349332
-0.0243889410048723
-0.0281923692673444
-0.030834948644042
-0.032265368849039
-0.0325322411954402
-0.0317664183676242
-0.0301589090377092
-0.0279356874525547
-0.025333646684885
-0.0225790403783321
-0.0198662113398313
-0.0173392873257398
-0.0150824459269642
-0.0131191508844494
-0.0114184059202671
-0.0099074253812432
-0.0084891663864254
-0.0070616686716675
-0.0055345119908452
-0.0038406439125537
-0.0019446993246674
0.0001547932624816
0.0024295272305607
0.0048269415274262
0.0072767548263072
0.0097006661817431
0.0120235281065106
0.0141825452446937
0.0161320660263299
0.0178440995514392
0.0193070601671934
0.0205245688557624
0.0215132646262645
0.0222978889942169
0.0229020994156599
0.0233312845230102
0.0235493145883083
0.0234624072909355
0.0229221917688846
0.021750122308731
0.0197782404720783
0.0168963484466075
0.0130937965586781
0.0084837842732667
0.0033006472513079
-0.002129659987986
-0.007436585612595
-0.0122568532824516
-0.0162799321115016
-0.0192801989614963
-0.0211329106241464
-0.0218148343265056
-0.021394170820713
-0.020015301182866
-0.0178798027336597
-0.0152221349999308
-0.0122830187901854
-0.0092854369431734
-0.0064135417342185
-0.0037955231964588
-0.0014958959072828
0.000480419024825
0.0021763127297163
0.0036672884598374
0.0050450023263692
0.0064014084637165
0.0078148348256945
0.0093394881114363
0.0109997950494289
0.0127892103046178
0.0146729815751314
0.0165955629199743
0.0184919517487287
0.0202983208000659
0.0219574682414531
0.0234223864972591
0.0246627759188413
0.0256696976721286
0.0264519862830638
0.0270260386168956
0.0274014547467231
0.0275615323334932
0.0274416916072368
0.0269182194024324
0.0258204899728298
0.0239664781838655
0.0212102774530649
0.0174896288663148
0.0128602143377065
0.0075044352561235
0.0017134111840277
-0.0041505116969347
-0.0097039910033345
-0.0145962610840797
-0.0185517035424709
-0.0213926043361425
-0.0230456683784723
-0.0235389415174722
-0.022988760843873
-0.0215761698782444
-0.0195208638906478
-0.017059538513422
-0.014425323344767
-0.0118249366059899
-0.0094184940680861
-0.0073070134967565
-0.0055278912186622
-0.004059019498527
-0.0028315486852079
-0.0017481686081737
-0.0007032628636807
0.0003987003583461
0.0016293544322252
0.0030284179374575
0.0046023335307836
0.0063282041810452
0.0081591932103037
0.0100305201485753
0.0118692787364125
0.0136073818430304
0.0151912653818726
0.0165854524821043
0.0177722666412591
0.0187487956136465
0.0195210427045822
0.0200947001576423
0.0204598307609558
0.0205694120377302
0.0203204937279224
0.0195520669221878
0.0180669762194156
0.0156748406589031
0.0122462240979075
0.0077600535005331
0.00232794880867
-0.0038077142089605
-0.010299771092832
-0.0167429447174072
-0.0227313600480556
-0.0279115792363882
-0.0320195071399211
-0.034898791462183
-0.0365033634006977
-0.0368875488638877
-0.03618785738945
-0.0345997959375381
-0.0323528908193111
-0.0296865999698638
-0.0268272180110216
-0.0239671468734741
-0.0212506353855133
-0.0187667217105627
-0.0165472198277711
-0.0145709421485662
-0.0127758057788014
-0.0110756792128086
-0.0093781892210245
-0.0076012541539967
-0.0056864512152969
-0.0036072842776775
-0.0013702360447496
0.0009901649318635
0.0034186451230198
0.005848154425621
0.0082099623978137
0.0104413963854312
0.0124900816008448
0.0143168689683079
0.0158975590020418
0.0172224007546901
0.0182947684079408
0.0191299207508564
0.01975261233747
0.0201943460851907
0.020490925759077
0.0206784419715404
0.0207887738943099
0.0208464823663234
0.020866971462965
0.0208548102527856
0.0207962989807128
0.0206397026777267
0.020269863307476
0.0194973479956388
0.0180768501013517
0.0157523602247238
0.0123168909922242
0.0076720155775547
0.0018706414848566
-0.0048708952963352
-0.0121956672519445
-0.0196562483906745
-0.0267773903906345
-0.0331187024712562
-0.0383276343345642
-0.0421717837452888
-0.0445467233657836
-0.0454679317772388
-0.0450547561049461
-0.0435076802968978
-0.0410815179347991
-0.0380562767386436
-0.0347051620483398
-0.031265303492546
-0.0279178023338317
-0.0247785300016403
-0.0218984223902225
-0.0192703641951084
-0.0168412514030933
-0.0145289590582251
-0.0122411400079727
-0.0098929349333047
-0.007420971058309
-0.0047908378764986
-0.0019994117319583
0.0009258561767637
0.0039321021176874
0.0069502713158726
0.0099047478288412
0.0127215115353465
0.0153351929038763
0.0176944807171821
0.0197648666799068
0.0215294286608696
0.0229880288243293
0.0241551622748374
0.0250572115182876
0.0257288236171007
