bvp
-0.0145299155265092
-0.0209152214229106
-0.0263158809393644
-0.0304741505533456
-0.0332507193088531
-0.034621886909008
-0.0346660688519477
-0.0335459224879741
-0.031487863510847
-0.0287584718316793
-0.025637000799179
-0.022385898977518
-0.0192245692014694
-0.0163107141852378
-0.0137322880327701
-0.0115106562152504
-0.0096108261495828
-0.0079555958509445
-0.0064434185624122
-0.0049668485298752
-0.0034280442632734
-0.001751366071403
0.0001078434288501
0.0021601605694741
0.0043838676065206
0.0067301057279109
0.0091300122439861
0.0115026785060763
0.0137646412476897
0.0158406607806682
0.0176721420139074
0.0192209091037511
0.0204700268805027
0.0214229561388492
0.0221008565276861
0.022537462413311
0.0227692406624555
0.0228177420794963
0.0226631239056587
0.0222162380814552
0.0213069655001163
0.0197029411792755
0.0171580929309129
0.0134774465113878
0.0085774976760149
0.0025252969935536
-0.0044512981548905
-0.0119851306080818
-0.0196197591722011
-0.0268744546920061
-0.0333074145019054
-0.038565956056118
-0.0424168966710567
-0.0447560548782348
-0.0456022918224334
-0.0450802072882652
-0.0433937944471836
-0.0407959222793579
-0.0375591628253459
-0.033950462937355
-0.0302092004567384
-0.0265275612473487
-0.0230372697114944
-0.0198081787675619
-0.0168551839888095
-0.0141470190137624
-0.011617973446846
-0.009183875285089
-0.0067588333040475
-0.0042704083025455
-0.0016716513782739
0.0010538338683545
0.003893322777003
0.006808235310018
0.0097401076927781
0.0126201547682285
0.0153774134814739
0.0179454833269119
0.0202710926532745
0.0223193988204002
0.0240709651261568
0.025515828281641
0.0266520380973815
0.0274883266538381
0.0280451849102973
0.0283493623137474
0.0284198261797428
0.028244836255908
0.0277547091245651
0.0268058869987726
0.0251923110336065
0.0226849541068077
0.0190896410495042
0.0143090058118104
0.0083888545632362
0.0015333597548305
-0.0059119709767401
-0.0135020278394222
-0.0207510124891996
-0.027198702096939
-0.0324677973985672
-0.0362993478775024
-0.0385654494166374
-0.0392642207443714
-0.0385025963187217
-0.0364734418690204
-0.033430702984333
-0.0296631008386611
-0.025467425584793
-0.0211235973984003
-0.0168730430305004
-0.012902176938951
-0.0093318596482276
-0.006212756037712
-0.0035287579521536
-0.0012099351733922
0.0008477000519633
0.0027598291635513
0.0046337405219674
0.0065552745945751
0.0085827838629484
0.0107437931001186
0.0130329988896846
0.0154138524085283
0.0178239326924085
0.0201837792992591
0.0224122814834117
0.0244464427232742
0.0262529570609331
0.0278247483074665
0.0291692484170198
0.0302977431565523
0.0312216468155384
0.0319546274840831
0.0325114168226718
0.0328954793512821
0.0330762229859828
0.0329636074602603
0.0323946177959442
0.0311455745249986
0.0289718173444271
0.0256650261580944
0.0211148988455533
0.0153577644377946
0.0085942624136805
0.001170691801235
-0.0064677214249968
-0.013838873244822
-0.0204881615936756
-0.0260434504598379
-0.0302511621266603
-0.0329894162714481
-0.0342619679868221
-0.0341801643371582
-0.032939363270998
-0.0307934135198593
-0.0280267652124166
-0.0249231997877359
-0.0217355173081159
-0.0186644252389669
-0.0158476438373327
-0.0133544839918613
-0.0111868325620889
-0.0092904716730117
-0.007575400173664
-0.0059390184469521
-0.0042852982878685
-0.0025366861373186
-0.0006408877670764
0.001425561029464
0.0036568930372595
0.0060192281380295
0.0084536708891391
0.0108847562223672
0.0132322441786527
0.0154199302196502
0.0173813328146934
0.0190664585679769
0.020447053015232
0.0215128418058156
0.0222546868026256
0.0226368904113769
0.0225710608065128
0.0219095665961503
0.0204665157943964
0.0180615056306123
0.0145752197131514
0.0099999904632568
0.0044693415984511
-0.0017410119762644
-0.008241712115705
-0.0145825380459427
-0.0203162226825952
-0.0250570997595787
-0.0285228248685598
-0.0305534824728965
-0.0311109498143196
-0.0302688330411911
-0.0281976051628589
-0.0251426268368959
-0.0213961526751518
-0.0172663927078247
-0.0130455195903778
-0.0089807044714689
-0.0052532004192471
-0.0019680568948388
0.0008446192368865
0.0032181325368583
0.0052320598624646
0.0069936197251081
0.0086190840229392
0.0102150849997997
0.0118613727390766
0.0136001510545611
0.0154345473274588
0.0173345170915126
0.0192476939409971
0.0211108140647411
0.0228582210838794
0.0244288016110658
0.025772538036108
0.0268550682812929
0.0276576336473226
0.028166202828288
0.0283461716026067
0.0281129833310842
0.0273183956742286
0.0257655009627342
0.0232511572539806
0.0196236297488212
0.0148380268365144
0.008991858921945
0.0023300973698496
-0.0047796941362321
-0.0118937268853187
-0.0185494720935821
-0.0243252795189619
-0.0288915783166885
-0.0320414341986179
-0.0336978808045387
-0.0339066758751869
-0.0328195355832576
-0.0306686572730541
-0.0277364179491996
-0.0243236254900693
-0.0207188241183757
-0.0171727295964956
-0.0138803590089082
-0.0109707359224557
-0.008502572774887
-0.0064666178077459
-0.0047978232614696
-0.0033949282951653
-0.0021398621611297
-0.0009154486469924
0.0003770804032683
0.0018060291185975
0.0034055770374834
0.0051760440692305
0.0070867585018277
0.0090834610164165
0.0110996691510081
0.0130689330399036
0.0149336047470569
0.0166484043002128
0.0181804783642292
0.0195066817104816
0.020605269819498
0.0214373357594013
0.0219202935695648
0.021907290443778
0.0211909189820289
0.0195397604256868
0.0167573168873786
0.0127430213615298
0.0075376033782958
0.0013393005356192
-0.0055135646834969
-0.0125860068947076
-0.0194043610244989
-0.0255188010632991
-0.0305597595870494
-0.0342767611145973
-0.0365522876381874
-0.0373929999768734
-0.0369088388979435
-0.0352893024682998
-0.0327783189713954
-0.0296460203826427
-0.0261611714959144
-0.0225685127079486
-0.0190696753561496
-0.0158080942928791
-0.0128619810566306
-0.010246911086142
-0.0079260999336838
-0.0058249961584806
-0.0038477217312902
-0.0018943803152069
0.0001224188017658
0.0022649595048278
0.0045640370808541
0.0070177498273551
0.009593010880053
0.0122302984818816
0.0148538295179605
0.0173847302794456
0.0197513028979301
0.0218943376094102
0.0237694717943668
0.0253477729856967
0.0266156494617462
0.0275754146277904
0.0282449331134557
0.0286546181887388
0.0288394764065742
0.028817880898714
0.0285568889230489
0.0279441345483064
0.0267873369157314
0.0248462539166212
0.0218902770429849
0.0177656896412372
0.0124504826962947
0.0060817589983344
-0.0010479073971509
-0.0085245659574866
-0.0158707313239574
-0.0226125083863735
-0.0283410586416721
-0.03275653347373
-0.0356892719864845
-0.0371012240648269
-0.0370730087161064
-0.0357815474271774
-0.033471655100584
-0.0304240528494119
-0.0269251354038715
-0.0232426095753908
-0.0196052845567464
-0.016186635941267
-0.0130945108830928
-0.0103685613721609
-0.0079874489456415
-0.0058848448097705
-0.0039688884280622
-0.002140813274309
-0.0003112429985776
0.0015870672650635
0.0035917821805924
0.005709255579859
0.0079166665673255
0.0101665463298559
0.0123949171975255
0.0145332599058747
0.0165196228772401
0.0183045361191034
0.0198527202010154
0.0211427230387926
0.0221664402633905
0.0229300968348979
0.0234542749822139
0.0237708818167448
0.0239191632717847
0.0239419285207986
0.0238806791603565
0.023768913000822
0.0236232690513134
0.0234297774732112
0.0231235846877098
0.0225712098181247
0.0215721763670444
0.0198880732059478
0.0172930806875228
0.0136325107887387
0.00887256488204
0.0031268345192074
-0.0033455686643719
-0.0101692248135805
-0.0169041398912668
-0.0231083557009696
-0.0283966995775699
-0.0324841178953647
-0.0352081730961799
-0.036532774567604
-0.0365388058125972
-0.0354046002030372
-0.0333769358694553
-0.0307368040084838
-0.0277665592730045
-0.0247218590229749
-0.0218097269535064
-0.0191755108535289
-0.0168983247131109
-0.0149921616539359
-0.0134128825739026
-0.0120707796886563
-0.0108478367328643
-0.0096195414662361
-0.0082760946825146
-0.0067373272031545
-0.0049614990130066
-0.002948282752186
-0.0007352533284574
0.0016104576643556
0.0040036989375948
0.0063550770282745
0.0085840169340372
0.0106268683448433
0.0124386800453066
0.0139910858124494
0.0152699369937181
0.0162750706076622
0.0170214567333459
0.0175385847687721
0.0178664941340684
0.0180496498942375
0.0181307215243577
0.0181447640061378
0.0181097500026226
0.0180092994123697
0.0177730675786733
0.0172673650085926
0.0163064785301685
0.0146866757422685
0.0122335981577634
0.0088487844914197
0.0045447899028658
-0.0005376981571316
-0.0061358483508229
-0.0118966177105903
-0.0174281746149063
-0.022354856133461
-0.0263629183173179
-0.0292327590286731
-0.0308565031737089
-0.0312404092401266
-0.0304920691996812
-0.0287963263690471
-0.0263870041817426
-0.0235183499753475
-0.0204389635473489
-0.0173712335526943
-0.0144957210868597
-0.0119386967271566
-0.0097640231251716
-0.0079745557159185
-0.00652377307415
-0.0053309695795178
-0.0042972676455974
-0.0033226367086172
-0.0023198798298835
-0.0012231976725161
7.006805390119553e-06
0.0013821893371641
0.002887231297791
0.0044853691942989
0.0061245602555572
0.0077445097267627
0.0092852711677551
0.0106964595615863
0.011944081634283
0.0130129978060722
0.0139066241681575
0.0146450046449899
0.0152589678764343
0.0157806426286697
0.0162318088114261
0.0166078619658947
0.0168599616736173
0.016886867582798
0.0165449641644954
0.0156756453216075
0.0141444504261016
0.011882247403264
0.0089160092175006
0.0053807282820343
0.0015101123135536
-0.0023938040249049
-0.0060074673965573
-0.0090346075594425
-0.011243050917983
-0.0124871963635087
-0.0127175394445657
-0.0119777973741292
-0.0103927124291658
-0.0081494618207216
-0.0054748449474573
-0.002610377036035
0.0002123601734638
0.0027925739996135
0.0049767242744565
0.0066714882850646
0.0078500742092728
0.0085479840636253
0.0088488832116127
0.0088655557483434
0.0087213525548577
0.0085350144654512
0.0084090186282992
0.0084213120862841
0.0086220679804682
0.0090352669358253
0.0096607962623238
0.010475480929017
0.0114372093230485
0.0124928634613752
0.0135854724794626
0.0146606946364045
0.0156754292547702
0.0166043657809495
0.0174392294138669
0.0181825943291187
0.0188378300517797
0.0193921532481908
0.0197952035814523
0.0199457388371229
0.0196957718580961
0.0188708715140819
0.0173037275671958
0.0148766823112964
0.0115610752254724
0.0074386037886142
0.00269820028916
-0.0023869154974818
-0.0074947369284927
-0.0122987553477287
-0.0165127106010913
-0.0199222266674041
-0.0223989654332399
-0.0239027701318264
-0.0244761332869529
-0.0242324694991111
-0.0233377069234848
-0.0219858083873987
-0.0203746370971202
-0.0186872296035289
-0.0170757472515106
-0.015647254884243
-0.0144567303359508
-0.0135087240487337
-0.0127633288502693
-0.0121460910886526
-0.0115630524232983
-0.0109166819602251
-0.0101192258298397
-0.0091039286926388
-0.0078333653509616
-0.0063031855970621
-0.0045399600639939
-0.0025931696873158
-0.0005251397960819
0.0015962556935846
0.0037012356333434
0.0057212519459426
0.0075937807559967
0.0092680305242538
0.01070989202708
0.0119033120572566
0.0128478556871414
0.0135560417547822
0.0140508841723203
0.0143615659326314
0.0145148327574133
0.0145164420828223
0.0143247582018375
0.0138338822871446
0.0128804072737693
0.0112730134278535
0.0088369566947221
0.0054620360024273
0.0011420301161706
-0.0040032686665654
-0.0097298556938767
-0.015697281807661
-0.0215166378766298
-0.0268067698925733
-0.0312454085797071
-0.0346040911972522
-0.0367623604834079
-0.0377054661512374
-0.0375118181109428
-0.0363337025046348
-0.0343746617436409
-0.0318659394979476
-0.0290414672344923
-0.026112500578165
-0.0232472475618124
-0.0205590687692165
-0.018102990463376
-0.0158801488578319
-0.0138485888019204
-0.0119378715753555
-0.0100648859515786
-0.0081470571458339
-0.0061125960201025
-0.0039105154573917
-0.0015175510197877
0.001061956398189
0.0038006231188774
0.0066529801115393
0.009559279307723
0.0124494703486561
0.0152494683861732
0.0178897641599178
0.0203143581748008
0.0224855858832597
0.024381797760725
0.0259924791753292
0.0273176617920398
0.0283705238252878
0.0291774943470954
0.029774772003293
0.0302031338214874
0.0305007956922054
0.0306916534900665
0.0307662561535835
0.0306598749011755
0.0302398204803466
0.0293119139969348
0.0276499688625335
0.0250449459999799
0.0213608294725418
0.0165800005197525
0.0108255622908473
0.004357227589935
-0.002456824760884
-0.0091878706589341
-0.0154042374342679
-0.0207255706191062
-0.0248653199523687
-0.0276565439999103
-0.02905841358006
-0.0291454084217548
-0.0280855391174554
-0.0261139534413814
-0.0235041826963424
-0.0205373577773571
-0.0174730587750673
-0.0145257161930203
-0.0118478303775191
-0.0095220319926738
-0.0075624864548444
-0.0059236390516161
-0.0045151142403483
-0.0032209642231464
-0.0019200602546334
-0.0005045533180236
0.0011057341471314
0.0029531633481383
0.0050378367304801
0.0073214303702116
0.0097378958016633
0.0122061409056186
0.0146398162469267
0.0169536620378494
0.0190706197172403
0.0209305007010698
0.0224960818886756
0.0237539559602737
0.0247113108634948
0.025390975177288
0.0258262380957603
0.0260572005063295
0.0261284820735454
0.0260857660323381
0.0259716436266899
0.0258221346884965
0.0256618596613407
0.0254959911108016
0.0252959430217742
0.0249774008989334
0.0243830997496843
0.0232900381088256
0.0214457381516695
0.0186208486557006
0.0146642159670591
0.0095505183562636
0.0034083356149494
-0.0034824591130018
-0.010725081898272
-0.0178627632558345
-0.0244428906589746
-0.0300723239779472
-0.0344566330313682
-0.0374238975346088
-0.0389324463903903
-0.0390620902180671
-0.0379934050142765
-0.0359802916646003
-0.0333182699978351
-0.03031044639647
-0.0272343382239341
-0.024314222857356
-0.0217023994773626
-0.0194705948233604
-0.0176136922091245
-0.01606479100883
-0.0147139942273497
-0.0134267192333936
-0.0120634473860263
-0.0104989353567361
-0.0086384695023298
-0.0064320070669054
-0.0038804905489087
-0.0010290439240634
0.0020457333885133
0.005247029941529
0.0084688011556863
0.0116067379713058
0.0145667772740125
0.0172714423388242
0.0196647811681032
0.0217149853706359
0.0234144963324069
0.0247761569917202
0.0258251391351223
0.0265926476567983
0.0271141622215509
0.0274253226816654
0.0275509655475616
0.0274906009435653
0.0272013153880834
0.0265796910971403
0.0254551451653242
0.0236067082732915
0.0208035819232463
0.0168620478361845
0.0117041002959012
0.005398588720709
-0.0018278718926012
-0.009612288326025
-0.0175027251243591
-0.0250188522040843
-0.0317124500870704
-0.0372197329998016
-0.041297972202301
-0.0438392981886863
-0.0448641665279865
-0.0445030704140663
-0.0429707691073417
-0.0405362583696842
-0.0374923981726169
-0.0341260805726051
-0.0306909903883934
-0.0273864138871431
-0.0243438072502613
-0.0216221567243337
-0.0192108545452356
-0.0170398075133562
-0.0149993263185024
-0.0129663869738578
-0.0108279334381222
-0.0084965685382485
-0.005919836461544
-0.0030840737745165
-1.3600103557109833e-05
0.0032322164624929
0.0065648984163999
0.009879607707262
0.013071846216917
0.0160506498068571
0.0187460742890834
0.0211117640137672
0.0231232792139053
0.0247759222984313
0.0260832756757736
0.0270735211670398
0.0277815107256174
0.0282326862215995
0.0284172482788562
0.0282647423446178
0.0276346467435359
0.0263315699994564
0.0241438560187816
0.020896952599287
0.0165083669126033
0.0110299326479434
0.0046651815064251
-0.0022440371103584
-0.0092580122873187
-0.0158963333815336
-0.0217016655951738
-0.0262998808175325
-0.029442936182022
-0.0310254320502281
-0.0310780368745327
-0.0297475941479206
-0.0272709168493747
-0.0239447113126516
-0.0200922563672065
-0.0160288345068693
-0.0120293544605374
-0.0083025097846984
-0.0049766832962632
-0.0020997254177927
0.0003512809053063
0.0024547353386878
0.0043248943984508
0.0060899797827005
0.0078720804303884
0.0097706140950322
0.0118498308584094
0.0141318012028932
0.0165955703705549
0.0191825442016124
0.0218073744326829
0.0243715308606624
0.0267768912017345
0.0289382599294185
0.030792873352766
0.0323043018579483
0.0334624759852886
0.0342818796634674
0.0347926206886768
0.0350203588604927
0.034960500895977
0.0345543883740901
0.0336757041513919
0.0321377739310264
0.0297278873622417
0.0262635797262191
0.0216539520770311
0.0159458890557289
0.0093423957005143
0.0021877591498196
-0.0050785294733941
-0.0119865909218788
-0.0181015525013208
-0.0230752918869256
-0.0266786031424999
-0.0288143698126077
-0.029513631016016
-0.0289172641932964
-0.027249451726675
-0.024788562208414
-0.0218370519578456
-0.0186904072761535
-0.0156071279197931
-0.0127850295975804
-0.0103481672704219
-0.0083434889093041
-0.0067461170256137
-0.0054738814942538
-0.0044083502143621
-0.0034168141428381
-0.0023732515983283
-0.0011778448242694
0.0002305218949913
0.0018725451081991
0.0037330836057662
0.0057668699882924
0.0079045854508876
0.010062538087368
0.0121566914021968
0.0141141945496201
0.0158786159008741
0.0174120906740427
0.018696429207921
0.0197332948446273
0.0205423235893249
0.0211535692214965
0.0215896740555763
0.021837567910552
0.0218187049031257
0.02137316390872
0.0202720873057842
0.0182613339275121
0.0151233691722154
0.0107394531369209
0.0051374342292547
-0.0014884825795888
-0.0087958555668592
-0.0163449887186288
-0.0236636754125356
-0.030308136716485
-0.035912200808525
-0.0402206629514694
-0.0431040860712528
-0.044555053114891
-0.0446690842509269
-0.043618157505989
-0.0416249334812164
-0.0389383435249328
-0.0358083061873912
-0.0324619859457016
-0.0290848668664693
-0.0258082225918769
-0.0227050315588712
-0.0197937153279781
-0.0170467365533113
-0.014403311535716
-0.0117851002141833
-0.009111825376749
-0.0063160322606563
-0.0033554681576788
-0.0002206657081842
0.0030612936243414
0.0064273020252585
0.009785852394998
0.0130310803651809
0.016058012843132
0.0187740512192249
0.0211061835289001
0.0230038873851299
0.0244386792182922
0.0254050251096487
0.025922767817974
0.0260360762476921
0.0258072800934314
0.0253085605800151
0.0246140323579311
0.0237912647426128
0.0228880271315574
0.0219107009470462
0.0207998715341091
0.0194189734756946
0.0175680853426456
0.0150214936584234
0.0115813240408897
0.0071356184780597
0.0017039868980646
-0.0045425230637192
-0.0112921027466654
-0.0181320495903491
-0.0246094018220901
-0.0302966888993978
-0.0348473824560642
-0.0380314514040946
-0.0397476255893707
-0.0400167852640152
-0.0389643274247646
-0.0367963723838329
-0.0337722897529602
-0.0301757212728261
-0.0262866150587797
-0.0223568938672542
-0.0185912624001503
-0.0151330269873142
-0.0120573192834854
-0.0093745132908225
-0.0070420568808913
-0.004981255158782
-0.0030964231118559
-0.001292869914323
0.0005099917761981
0.0023700133897364
0.004316050093621
0.0063461051322519
0.0084321228787302
0.010529801249504
0.0125888716429471
0.0145596507936716
0.0163968354463577
0.0180634148418903
0.019534720107913
0.0208013802766799
0.0218689106404781
0.0227532647550106
0.0234751459211111
0.0240557044744491
0.0245145820081233
0.0248694978654384
0.0251355040818452
0.0253232475370168
0.025437593460083
0.0254780538380146
0.0254409033805131
0.0253215916454792
0.0251154452562332
0.02481260150671
0.0243814885616302
0.0237439386546611
0.0227600745856761
0.0212396457791328
0.018977865576744
0.01580361276865
0.0116296410560607
0.0064917039126157
0.0005624294281005
-0.005864268168807
-0.0124134253710508
-0.018684022128582
-0.024303913116455
-0.028973214328289
-0.0324922055006027
-0.0347718372941017
-0.0358279272913932
-0.0357654094696044
-0.0347574725747108
-0.0330209881067276
-0.0307916738092899
-0.02830146625638
-0.0257572010159492
-0.0233215596526861
-0.02110031619668
-0.0191386230289936
-0.0174261946231126
-0.0159103125333786
-0.0145137030631303
-0.0131524559110403
-0.0117514431476593
-0.0102554131299257
-0.0086326096206903
-0.0068729873746633
-0.0049863662570714
-0.0030007562600076
-0.0009583928622305
0.0010907649993896
0.0030958191491663
0.0050090970471501
0.0067883264273405
0.0084000341594219
0.0098237646743655
0.0110539589077234
0.0120989922434091
0.01297820918262
0.0137162487953901
0.0143361557275056
0.0148551184684038
0.0152840577065944
0.0156297516077756
0.0158967189490795
0.0160872694104909
0.0162011608481407
0.0162353329360485
0.0161838755011558
0.0160403288900852
0.0158023070544004
0.0154750840738415
0.0150713780894875
0.0146070700138807
0.0140920728445053
0.0135133108124136
0.0128130577504634
0.0118764536455273
0.0105416504666209
0.0086334692314267
0.0060080429539084
0.0025936029851436
-0.0015808455646038
-0.0063743852078914
-0.0115452762693166
-0.0167837124317884
-0.0217583663761615
-0.0261636711657047
-0.0297565422952175
-0.0323781445622444
-0.0339611992239952
-0.034525666385889
-0.0341665297746658
-0.0330359935760498
-0.0313212350010871
-0.0292205177247524
-0.0269226413220167
-0.0245917979627847
-0.0223557651042938
-0.0202967934310436
-0.0184482503682374
-0.0167992133647203
-0.0153042590245604
-0.0138953384011983
-0.0124957840889692
-0.0110341748222708
-0.0094541292637586
-0.0077206729911267
-0.0058239316567778
-0.0037782834842801
-0.0016179801896214
0.000608064699918
0.0028421441093087
0.005024273879826
0.0070979776792228
0.0090151978656649
0.0107409032061696
0.0122564490884542
0.0135598164051771
0.0146629083901643
0.0155879128724336
0.0163633227348327
0.0170197263360023
0.0175864920020103
0.0180897749960422
0.0185506902635097
0.0189828854054212
0.0193911455571651
0.0197720099240541
0.0201145838946104
0.0204016044735908
0.0206132382154464
0.0207317285239696
0.0207405220717191
0.0206138286739587
0.0202996078878641
0.0197066757827997
0.0187074579298496
0.0171585585922002
0.0149322263896465
0.0119511615484952
0.0082199182361364
0.0038436846807599
-0.0009736684150993
-0.0059539186768233
-0.0107846660539507
-0.0151640363037586
-0.0188401117920875
-0.0216378029435873
-0.0234691239893436
-0.0243299845606088
-0.0242895931005477
-0.0234746728092432
-0.0220499094575643
-0.0201984532177448
-0.0181036796420812
-0.0159321725368499
-0.0138208921998739
-0.011869816109538
-0.0101369749754667
-0.0086352750658988
-0.0073367161676287
-0.0061859535053372
-0.0051154550164937
-0.0040559656918048
-0.0029436871409416
-0.0017275949940085
-0.0003779372200369
0.0011078240349888
0.0027066292241215
0.004377793520689
0.0060719083994627
0.0077376305125653
0.0093263676390051
0.0107966531068086
0.012118162587285
0.0132716530933976
0.0142458714544773
0.0150373363867402
0.0156522095203399
0.0161053892225027
0.0164174474775791
0.0166113600134849
0.0167098902165889
0.0167357996106147
0.0167122706770896
0.016659764572978
0.0165931787341833
0.0165218636393547
0.0164499040693044
0.0163754727691411
0.0162857826799154
0.0161427929997444
0.0158643797039985
0.015315837226808
0.0143229477107524
0.0127046518027782
0.010315753519535
0.0070877028629183
0.00305524491705
-0.0016362094320356
-0.0067421896383166
-0.0119499629363417
-0.0169235579669475
-0.0213508028537035
-0.0249818563461303
-0.0276541505008935
-0.0293012484908103
-0.0299465227872133
-0.0296881534159183
-0.0286813080310821
-0.0271168947219848
-0.0251972209662199
-0.023113839328289
-0.0210300218313932
-0.0190673153847455
-0.01729835011065
-0.0157468728721141
-0.0143929990008473
-0.0131821865215897
-0.0120367323979735
-0.0108695356175303
-0.0095987822860479
-0.0081598293036222
-0.0065129566937685
-0.0046477206051349
-0.0025839246809482
-0.0003692861646413
0.0019276197999715
0.0042288908734917
0.0064581222832202
0.0085485484451055
0.0104506099596619
0.0121363867074251
0.0135974194854497
0.0148386526852846
0.0158737562596797
0.0167244002223014
0.017421456053853
0.0180031023919582
0.0185058712959289
0.018948346376419
0.0193110425025224
0.0195197090506553
0.0194427818059921
0.0189092420041561
0.0177427418529987
0.0158036965876817
0.0130307367071509
0.0094703491777181
0.0052851671352982
0.0007384493947029
-0.0038425307720899
-0.0081160925328731
-0.0117747923359274
-0.0145811475813388
-0.0163872484117746
-0.017141006886959
-0.0168828517198562
-0.015734801068902
-0.0138810817152261
-0.0115428045392036
-0.0089527424424886
-0.0063319001346826
-0.0038680173456668
-0.0016999561339616
9.020790457725524e-05
0.0014795567840337
0.0025015026330947
0.0032358560711145
0.0037927106022834
0.004294391721487
0.0048588067293167
0.0055849030613899
0.0065410044044256
0.0077577577903866
0.009227723814547
0.0109119601547718
0.0127510484308004
0.014677895233035
0.0166281089186668
0.0185438189655542
0.020374521613121
0.0220801290124654
0.0236338358372449
0.0250223558396101
0.0262440405786037
0.0273012220859527
0.0281824935227632
0.028837963938713
0.0291586332023143
0.0289731249213218
0.0280677676200866
0.0262283869087696
0.0232954490929842
0.019214803352952
0.0140668675303459
0.0080680260434746
0.0015460023423656
-0.005104555748403
-0.011476170271635
-0.0172009207308292
-0.0219907481223344
-0.0256591700017452
-0.0281256381422281
-0.0294080078601837
-0.02960691973567
-0.0288857277482748
-0.0274485275149345
-0.025515679270029
-0.0232984945178031
-0.0209782421588897
-0.0186931155622005
-0.0165323857218027
-0.0145353004336357
-0.0126949017867445
-0.0109673095867037
-0.0092839412391185
-0.0075655626133084
-0.0057379025965929
-0.0037447810173034
-0.0015566111542284
0.0008243103511631
0.0033615927677601
0.0059879655018448
0.008615767583251
0.0111509580165147
0.0135051812976598
0.0156042408198118
0.0173925030976533
0.0188336037099361
0.0199100449681282
0.0206239502876997
0.0209987685084342
0.0210793688893318
0.0209272615611553
0.0206074714660644
0.0201657153666019
0.0195995960384607
0.0188338048756122
0.0177140459418296
0.0160288177430629
0.013554785400629
0.0101149622350931
0.005635738838464
0.0001843571662902
-0.0060254242271184
-0.0126575212925672
-0.0192995145916938
-0.0255214348435401
-0.0309342388063669
-0.0352353081107139
-0.0382355004549026
-0.0398670434951782
-0.0401748083531856
-0.0392976328730583
-0.0374446101486682
-0.0348676405847072
-0.03183364123106
-0.0285993460565805
-0.0253884904086589
-0.0223726518452167
-0.0196598172187805
-0.0172927342355251
-0.0152546865865588
-0.0134800393134355
-0.0118687013164162
-0.0103034563362598
-0.0086691677570343
-0.0068712537176907
-0.0048487125895917
-0.0025789877399802
-7.45910219848156e-05
0.0026255236007273
0.0054647149518132
0.0083756633102893
0.0112869758158922
0.0141297969967126
0.0168435368686914
0.0193801112473011
0.0217064339667558
0.0238037779927253
0.0256636682897806
0.0272840429097414
0.028667077422142
0.0298164766281843
0.030735895037651
0.0314297750592231
0.0319034792482852
0.0321592725813388
0.0321832224726676
0.0319204926490783
0.0312503762543201
0.0299809854477643
0.0278741456568241
0.024696847423911
0.0202855169773101
0.0146040739491581
0.007778231985867
9.539443999528884e-05
-0.0080297067761421
-0.0161124356091022
-0.0236639603972435
-0.030253292992711
-0.0355540439486503
-0.0393669083714485
-0.0416200682520866
-0.0423573330044746
-0.0417203791439533
-0.039926066994667
-0.037240095436573
-0.0339489094913005
-0.0303311198949813
-0.0266315340995788
-0.0230419561266899
-0.0196902677416801
-0.0166382249444723
-0.0138896405696868
-0.0114062838256359
-0.0091238338500261
-0.006964542903006
-0.004849249497056
-0.0027092893142253
-0.0004949860740453
0.0018193223513662
0.0042314110323786
0.0067108860239386
0.0092059168964624
0.0116543248295784
0.0139937782660126
0.0161689929664134
0.0181367546319961
0.0198701135814189
0.0213606506586074
0.0226167533546686
0.0236593764275312
0.0245174244046211
0.0252235867083072
0.0258125737309455
0.0263206716626882
0.0267832782119512
0.0272304229438304
0.0276795830577611
0.0281212851405143
0.0284966211766004
0.0286760404706001
0.0284551605582237
0.0275768917053937
0.0257755108177661
0.0228320732712745
0.0186299607157707
0.0131973577663302
0.0067248493432998
-0.000449706800282
-0.0078878393396735
-0.0151147833094
-0.0216846205294132
-0.0272341780364513
-0.0315168015658855
-0.0344128645956516
-0.0359227396547794
-0.0361505486071109
-0.0352829545736312
-0.0335630141198635
-0.031259685754776
-0.0286369808018207
-0.0259268097579479
-0.0233090855181217
-0.0209018662571907
-0.0187593847513198
-0.0168753638863563
-0.0151935722678899
-0.0136258034035563
-0.0120728565379977
-0.0104431733489036
-0.0086658392101526
-0.0066979848779737
-0.0045279362238943
-0.0021745681297034
0.0003168489784002
0.0028813874814659
0.0054433741606771
0.0079258298501372
0.0102572338655591
0.0123765356838703
0.014238828793168
0.0158190131187438
0.0171117428690195
0.0181297063827514
0.018899880349636
0.0194570943713188
0.0198378562927246
0.0200762748718261
0.0202022138983011
0.0202413070946931
0.0202117785811424
0.0201108641922473
0.0198909267783164
0.0194363817572593
0.0185584779828786
0.0170198045670986
0.0145864635705947
0.0110911037772893
0.0064854817464947
0.0008688066154718
-0.0055125914514064
-0.0122932782396674
-0.0190379936248064
-0.0253008287400007
-0.0306827649474143
-0.0348779410123825
-0.0377009361982345
-0.0390936583280563
-0.0391174256801605
-0.0379350259900093
-0.0357836298644542
-0.0329421684145927
-0.0296989139169454
-0.0263215564191341
-0.0230326820164918
-0.0199946872889995
-0.01730253174901
-0.0149809215217828
-0.0129888532683253
-0.0112353218719363
-0.0096025858074426
-0.0079694241285324
-0.0062294281087815
-0.0043042488396167
-0.0021532364189624
0.000223065027967
0.0027881092391908
0.0054800864309072
0.0082235857844352
0.0109402416273951
0.0135573055595159
0.0160133205354213
0.018261021003127
0.0202684924006462
0.0220201592892408
0.023517383262515
0.0247765555977821
0.0258216504007577
0.0266673769801855
0.0272938050329685
0.0276215281337499
0.0275027099996805
0.0267416611313819
0.0251419842243194
0.0225630216300487
0.0189689211547374
0.0144561510533094
0.0092509016394615
0.003679228015244
-0.0018796976655721
-0.0070447428151965
-0.0114779472351074
-0.0149191552773118
-0.0172084849327802
-0.0182944405823946
-0.0182288624346256
-0.0171518940478563
-0.0152685875073075
-0.0128208752721548
-0.0100596705451607
-0.0072192829102277
-0.0044954046607017
-0.0020284578204154
0.0001050810096785
0.0018912480445578
0.0033681700006127
0.0046108742244541
0.0057151750661432
0.0067823641002178
0.007905188947916
0.0091553833335638
0.0105740493163466
0.0121667217463254
0.0139045435935258
0.015731044113636
0.0175720006227493
0.0193466059863567
0.0209774691611528
0.0223970972001552
0.0235532112419605
0.0244142916053533
0.0249715391546487
0.0252360515296459
0.0252343323081731
0.0250004008412361
0.0245565623044967
0.023883156478405
0.0228939615190029
0.0214356612414121
0.0193158965557813
0.0163509622216224
0.0124196670949459
0.0075103603303432
0.0017469860613346
-0.0046161273494362
-0.0112280845642089
-0.0176920723170042
-0.0236206650733947
-0.0286845564842224
-0.0326465815305709
-0.0353780910372734
-0.036857783794403
-0.0371573790907859
-0.0364220738410949
-0.0348503142595291
-0.0326716862618923
-0.030122060328722
-0.0274189095944166
-0.0247414410114288
-0.0222191661596298
-0.0199294071644544
-0.0179004557430744
-0.0161166507750749
-0.0145254367962479
-0.0130486525595188
-0.0115976743400096
-0.0100900316610932
-0.0084632830694317
-0.0066809635609388
-0.004732540808618
-0.0026340978220105
-0.00042852666229
0.0018210364505648
0.0040436973795294
0.006172627210617
0.0081527754664421
0.0099443327635526
0.0115229403600096
0.0128792831674218
0.0140188261866569
0.0149589302018284
0.0157230403274297
0.0163363181054592
0.0168255064636468
0.0172193236649036
0.0175418853759765
0.0177948772907257
0.017932292073965
0.0178390387445688
0.0173289328813552
0.0161718036979436
0.0141434557735919
0.0110823009163141
0.0069365678355097
0.001789498142898
-0.0041421009227633
-0.0105337742716073
-0.0169978030025959
-0.0231351684778928
-0.0285835154354572
-0.0330546572804451
-0.0363581329584121
-0.0384086854755878
-0.0392202623188495
-0.0388917252421379
-0.037587109953165
-0.0355128087103366
-0.0328950621187686
-0.0299586541950702
-0.0269052907824516
-0.0238941963762044
-0.0210307165980339
-0.0183649268001317
-0.0158979576081037
-0.0135930581018328
-0.0113884545862674
-0.0092094587162137
-0.0069806082174181
-0.0046396837569773
-0.0021508471108973
0.0004883552901446
0.0032482503447681
0.0060732681304216
0.0088896546512842
0.0116169452667236
0.0141828432679176
0.016533650457859
0.0186367705464363
0.0204787030816078
0.0220609605312347
0.0233954042196273
0.0245012193918228
0.0254037361592054
0.0261318143457174
0.0267125517129898
0.0271676406264305
0.0275134667754173
0.0277617014944553
0.0279187522828578
0.0279855635017156
0.027959119528532
0.0278359148651361
0.0276159830391407
0.027303023263812
0.0268944259732961
0.0263587348163127
0.0256086755543947
0.0244881547987461
0.0227881707251071
0.0202897544950246
0.0168197490274906
0.0123026920482516
0.0067947707138955
0.0004927343688905
-0.0062845842912793
-0.0131389051675796
-0.0196483302861452
-0.0254244152456522
-0.030160853639245
-0.0336640514433383
-0.0358606949448585
-0.0367868468165397
-0.0365667678415775
-0.0353866964578628
-0.0334675759077072
-0.03104093298316
-0.0283291917294263
-0.0255293324589729
-0.0227991733700037
-0.0202477946877479
-0.0179322753101587
-0.0158595480024814
-0.0139927165582776
-0.0122637758031487
-0.0105902440845966
-0.0088904201984405
-0.0070958663709461
-0.0051604937762022
-0.0030652321875095
-0.0008192146196961
0.00154271395877
0.0039659300819039
0.0063830204308032
0.0087221367284655
0.0109168235212564
0.0129139889031648
0.0146780423820018
0.0161914732307195
0.0174532532691955
0.0184773467481136
0.0192917175590991
0.019935205578804
0.0204507932066917
0.0208783783018589
0.0212499070912599
0.0215868614614009
0.0219001453369855
0.0221912339329719
0.0224532764405012
0.0226739700883626
0.0228406302630901
0.0229438506066799
0.0229757465422153
0.0229189116507768
0.0227243583649396
0.0222878046333789
0.0214428883045911
0.0199801493436098
0.0176852755248546
0.0143880750983953
0.0100129777565598
0.0046151527203619
-0.001609758939594
-0.00834353081882
-0.0151875596493482
-0.0217205081135034
-0.0275556072592735
-0.0323853120207786
-0.0360085889697074
-0.0383396111428737
-0.0394012220203876
-0.0393085293471813
-0.0382450670003891
-0.0364352539181709
-0.0341179631650447
-0.0315233916044235
-0.0288535207509994
-0.0262661445885896
-0.0238640084862709
-0.0216912478208541
-0.0197377856820821
-0.0179515574127435
-0.0162560194730758
-0.014567052014172
-0.0128065086901187
-0.0109136253595352
-0.0088520320132374
-0.0066092805936932
-0.0041931616142392
-0.0016308100894093
0.001031070947647
0.0037292763590812
0.0063907802104949
0.0089415088295936
0.0113156251609325
0.0134625565260648
0.0153500298038125
0.0169643815606832
0.0183097515255212
0.0194060951471328
0.02028514072299
0.0209849253296852
0.0215446464717388
0.0220003221184015
0.0223813336342573
0.0227053165435791
0.0229652151465415
0.0231090374290943
0.0230247639119625
0.0225428864359855
0.0214603208005428
0.0195824615657329
0.0167727973312139
0.0129951201379299
0.0083381021395325
0.003017752431333
-0.0026451088488101
-0.008269035257399
-0.0134658738970756
-0.0178922321647405
-0.0212897714227437
-0.0235071405768394
-0.0245034433901309
-0.0243393220007419
-0.0231595262885093
-0.0211703442037105
-0.0186146851629018
-0.0157448835670948
-0.0127956364303827
-0.0099610751494765
-0.0073778824880719
-0.0051171220839023
-0.0031870445236563
-0.0015438683331012
-0.0001060217618942
0.0012302426621317
0.0025739418342709
0.0040214331820607
0.0056407339870929
0.0074625164270401
0.0094789844006299
0.0116491029039025
0.0139082502573728
0.0161788407713174
0.0183789581060409
0.02043067663908
0.022269494831562
0.0238515995442867
0.0251562856137752
0.0261841341853141
0.0269519835710525
0.0274858176708221
0.0278095863759517
0.0279245153069496
0.0277833957225084
0.02727672457695
0.0262426882982254
0.024500336498022
0.0218970868736505
0.0183555446565151
0.0139058595523238
0.0086986282840371
0.0029965720605105
-0.0028570021968334
-0.0084882536903023
-0.0135472957044839
-0.0177519544959068
-0.0209132209420204
-0.0229423511773347
-0.0238452330231666
-0.0237103048712015
-0.0226915255188941
-0.0209865123033523
-0.0188131537288427
-0.0163886435329914
-0.0139115434139966
-0.0115461265668272
-0.0094103375449776
-0.0075687728822231
-0.0060311644338071
-0.0047572469338774
-0.0036686842795461
-0.0026663127355277
-0.0016476847231388
-0.0005218104925006
0.0007777839200571
0.0022828890942037
0.0039879619143903
0.0058563584461808
0.0078309327363967
0.0098430784419178
0.0118190366774797
0.0136861391365528
0.0153800854459404
0.0168515890836715
0.018070476129651
0.019026942551136
0.0197293292731046
0.0201977267861366
0.0204539280384778
0.0205058865249156
0.0203246884047985
0.0198213271796703
0.0188388749957084
0.0171713717281818
0.0146090677008032
0.010997456498444
0.0062893694266676
0.0005737803876399
-0.0059233158826828
-0.0128635000437498
-0.0198412369936704
-0.0264415517449378
-0.0322954393923282
-0.0371188707649707
-0.0407309159636497
-0.0430542007088661
-0.0441050343215465
-0.0439801253378391
-0.0428408086299896
-0.0408925972878932
-0.0383606106042861
-0.0354649052023887
-0.0324011445045471
-0.0293278936296701
-0.0263570472598075
-0.0235468037426471
-0.0209020990878343
-0.0183848198503255
-0.0159300975501537
-0.013464605435729
-0.0109233148396015
-0.0082605853676795
-0.0054550478234887
-0.0025103660300374
0.0005469578318297
0.0036715033929795
0.0068033365532755
0.0098733939230442
0.0128108542412519
0.015551259741187
0.0180426277220249
0.020248457789421
0.0221490673720836
0.023742202669382
0.0250413678586483
0.0260709058493375
0.0268576741218566
0.0274172332137823
0.0277335327118635
0.0277372803539037
0.0272940173745155
0.0262129660695791
0.024281907826662
0.0213220249861478
0.0172455664724111
0.0120972413569688
