bvp
-0.0328397043049335
-0.0355617962777614
-0.0371125005185604
-0.0375551506876945
-0.0370131991803646
-0.0356530174612998
-0.0336655676364898
-0.0312470123171806
-0.028579531237483
-0.0258163902908563
-0.0230743940919637
-0.02043117582798
-0.0179246943444013
-0.015556750819087
-0.0133004514500498
-0.0111093157902359
-0.0089280512183904
-0.0067047448828816
-0.0044023771770298
-0.0020073000341653
0.0004694568924605
0.0029979739338159
0.00553575810045
0.0080329235643148
0.0104382606223225
0.0127041656523942
0.0147896502166986
0.0166632793843746
0.0183057375252246
0.0197104252874851
0.0208822265267372
0.0218358114361763
0.0225933864712715
0.0231814477592706
0.023627333343029
0.0239567440003156
0.0241921804845333
0.0243506282567977
0.0244419537484645
0.0244719721376895
0.0244480334222316
0.0243804119527339
0.0242748074233531
0.0241146348416805
0.0238391570746898
0.0233295913785696
0.0224120113998651
0.0208796840161085
0.0185323823243379
0.0152242202311754
0.0109070409089326
0.0056555466726422
-0.0003331373445689
-0.0067636305466294
-0.0132838021963834
-0.0195325296372175
-0.0251823421567678
-0.0299724712967872
-0.0337299928069114
-0.0363757088780403
-0.0379159711301326
-0.0384270846843719
-0.0380381420254707
-0.0369133651256561
-0.0352333150804042
-0.033176515251398
-0.0309027805924415
-0.0285375025123357
-0.0261600650846958
-0.0238002389669418
-0.0214416142553091
-0.0190318543463945
-0.0165001414716243
-0.0137779954820871
-0.0108171263709664
-0.0076000532135367
-0.0041426699608564
-0.0004895636811852
0.003293833695352
0.0071270484477281
0.0109173990786075
0.0145635111257433
0.0179629530757665
0.021022155880928
0.0236652456223964
0.025840999558568
0.0275264047086238
0.0287249162793159
0.0294613353908061
0.0297761373221874
0.0297190062701702
0.0293423626571893
0.0286958534270524
0.0278163086622953
0.0267087146639823
0.0253267344087362
0.0235683191567659
0.0212933868169784
0.0183589663356542
0.0146629121154546
0.0101843830198049
0.005007897503674
-0.0006754590431228
-0.0065873060375452
-0.0123959463089704
-0.0177583899348974
-0.0223634038120508
-0.0259680431336164
-0.0284203998744487
-0.0296661462634801
-0.0297415070235729
-0.0287569742649793
-0.0268779788166284
-0.0243078805506229
-0.02127081528306
-0.0179895740002393
-0.0146626587957143
-0.0114472117274999
-0.0084490906447172
-0.0057198842987418
-0.0032602180726826
-0.0010281847789883
0.0010456317104399
0.0030372980982065
0.0050106151029467
0.0070067830383777
0.0090421885251998
0.0111122783273458
0.0132011659443378
0.0152944363653659
0.0173899456858634
0.0195026472210884
0.0216610748320817
0.0238953754305839
0.0262214597314596
0.0286278650164604
0.0310693066567182
0.03346698731184
0.0357108563184738
0.0376575738191604
0.0391259528696537
0.0399004109203815
0.0397531203925609
0.0384878069162368
0.0359929874539375
0.0322817489504814
0.0275030806660652
0.0219237189739942
0.0158885084092617
0.0097719114273786
0.0039312364533543
-0.0013318769633769
-0.0057983500882983
-0.0093459021300077
-0.0119502004235982
-0.013673648238182
-0.0146460374817252
-0.0150412507355213
-0.0150524228811264
-0.0148711036890745
-0.0146740609779953
-0.0146143734455108
-0.0148127935826778
-0.0153477434068918
-0.0162464063614606
-0.01748270355165
-0.0189833678305149
-0.0206392835825681
-0.0223207883536815
-0.0238948836922645
-0.0252412557601928
-0.026265924796462
-0.0269110351800918
-0.0271571688354015
-0.027017742395401
-0.0265306383371353
-0.0257497206330299
-0.0247351974248886
-0.0235448721796274
-0.0222293715924024
-0.0208317302167415
-0.0193889960646629
-0.0179345533251762
-0.0165045242756605
-0.015150997787714
-0.0139590743929147
-0.0130590246990323
-0.0126221049576997
-0.0128337172791361
-0.0138490386307239
-0.0157466568052768
-0.0184969063848257
-0.0219532772898674
-0.0258679054677486
-0.0299263168126344
-0.0337904095649719
-0.0371399633586406
-0.0397081263363361
-0.0413055941462516
-0.0418288819491863
-0.0412563756108284
-0.0396392568945884
-0.0370899401605129
-0.0337677374482154
-0.029860720038414
-0.02556530572474
-0.0210689343512058
-0.0165372341871261
-0.0121030118316411
-0.0078593287616968
-0.0038597155362367
-0.0001220181584358
0.0033679027110338
0.0066508129239082
0.0097833015024662
0.012822545133531
0.0158124640583992
0.0187760479748249
0.0217142384499311
0.0246090441942214
0.0274293050169944
0.0301379989832639
0.0326980426907539
0.0350741520524024
0.0372332669794559
0.0391475483775138
0.0407993048429489
0.04218415543437
0.0433112978935241
0.0442000776529312
0.0448671132326126
0.0453019365668296
0.0454426556825637
0.0451662801206111
0.0442995727062225
0.0426506400108337
0.0400557741522789
0.0364277102053165
0.0317896716296672
0.0262875631451606
0.0201798528432846
0.0138062089681625
0.0075411843135952
0.001744664274156
-0.0032807346433401
-0.0073175933212041
-0.0102435406297445
-0.0120273474603891
-0.012717830017209
-0.0124304294586181
-0.0113335996866226
-0.0096310712397098
-0.0075380951166152
-0.0052580088376998
-0.0029638335108757
-0.0007842853665351
0.0012042680755257
0.0029763113707304
0.0045469906181097
0.0059584705159068
0.007267621345818
0.0085358042269945
0.0098186619579792
0.0111568486317992
0.0125709511339664
0.0140600176528096
0.0156019376590847
0.0171565227210521
0.0186719261109828
0.0200935527682304
0.0213732626289129
0.0224757306277751
0.0233808197081089
0.0240824297070503
0.0245851855725049
0.0249014403671026
0.0250489544123411
0.0250482503324747
0.0249197576195001
0.0246817115694284
0.024348396807909
0.0239228494465351
0.0233780853450298
0.0226338151842355
0.0215457733720541
0.019919216632843
0.0175458621233701
0.0142531730234622
0.0099517488852143
0.0046690786257386
-0.001439188607037
-0.0081031136214733
-0.0149726951494812
-0.0216650627553462
-0.0278161168098449
-0.0331253260374069
-0.037382036447525
-0.0404713004827499
-0.0423682443797588
-0.0431275144219398
-0.0428688824176788
-0.0417602956295013
-0.039999209344387
-0.037792794406414
-0.0353384464979171
-0.0328062288463115
-0.0303266458213329
-0.0279849655926227
-0.0258195698261261
-0.0238246396183967
-0.0219600684940814
-0.0201654247939586
-0.0183726362884044
-0.0165177509188652
-0.0145524535328149
-0.0124515183269977
-0.0102147534489631
-0.0078651197254657
-0.0054429806768894
-0.0029977355152368
-0.0005800467915832
0.0017644083127379
0.0039985910989344
0.0060935178771615
0.0080256480723619
0.0097760278731584
0.0113319810479879
0.0126895140856504
0.0138543546199798
0.0148392794653773
0.0156561769545078
0.0163034833967685
0.0167495999485254
0.0169163644313812
0.0166741162538528
0.0158575177192688
0.0143003296107053
0.0118792634457349
0.0085540525615215
0.0043919328600168
-0.0004305997863411
-0.0056478576734662
-0.0109387086704373
-0.0159662291407585
-0.0204174257814884
-0.0240353271365165
-0.0266390182077884
-0.0281336456537246
-0.0285128559917211
-0.0278537906706333
-0.0263031870126724
-0.0240552518516778
-0.0213269293308258
-0.0183354653418064
-0.0152796236798167
-0.0123245567083358
-0.0095885973423719
-0.0071331579238176
-0.0049623474478721
-0.003033340210095
-0.0012723607942461
0.0004053665325045
0.0020748658571392
0.0037876556161791
0.0055677210912108
0.0074132638983428
0.0093008577823638
0.0111916596069931
0.0130393654108047
0.0147984139621257
0.016430165618658
0.0179054643958807
0.0192046519368886
0.0203174445778131
0.0212435759603977
0.0219926089048385
0.0225808452814817
0.0230236537754535
0.0233214423060417
0.0234418958425521
0.0233077276498079
0.0227988641709089
0.0217714309692382
0.0200894474983215
0.0176609046757221
0.0144679024815559
0.0105825345963239
0.0061649428680539
0.0014454824849963
-0.0033040959388017
-0.0078054023906588
-0.0118073998019099
-0.0151120638474822
-0.0175883620977401
-0.0191773027181625
-0.0198905356228351
-0.0198017358779907
-0.019032135605812
-0.0177325829863548
-0.0160640571266412
-0.0141812674701213
-0.0122210662811994
-0.0102931158617138
-0.008473752066493
-0.0068054823204874
-0.0052997511811554
-0.0039402181282639
-0.0026876726187765
-0.0014884541742503
-0.0002869553864002
0.0009615300223231
0.0022836159914731
0.0036854920908808
0.0051519842818379
0.0066491160541772
0.00813112501055
0.0095475930720567
0.0108489440754055
0.0119923101738095
0.0129465591162443
0.0136939482763409
0.0142302466556429
0.014565322548151
0.0147215835750103
0.0147282509133219
0.0146136665716767
0.0143998265266418
0.0141015257686376
0.0137286400422453
0.0132884681224823
0.0127866510301828
0.0122266430407762
0.0116055142134428
0.0109028667211532
0.0100670456886291
0.0090104099363088
0.0076207481324672
0.00578398630023
0.0034096762537956
0.0004562102258205
-0.0030483044683933
-0.0069989170879125
-0.0112249944359064
-0.015514176338911
-0.0196417067199945
-0.0233990140259265
-0.026615547016263
-0.029172595590353
-0.0310100354254245
-0.0321249961853027
-0.0325631871819496
-0.0324057564139366
-0.0317554771900177
-0.0307246353477239
-0.0294233672320842
-0.0279480274766683
-0.0263720024377107
-0.0247420817613601
-0.0230818316340446
-0.0213986840099096
-0.0196906886994838
-0.0179528314620256
-0.016182692721486
-0.0143829435110092
-0.012560261413455
-0.0107236327603459
-0.0088842585682868
-0.0070553296245634
-0.0052497293800115
-0.0034779976122081
-0.0017481250688433
-6.490526720881462e-05
0.0015697074122726
0.0031514621805399
0.0046669519506394
0.0060917134396731
0.0073949042707681
0.0085476255044341
0.009531102143228
0.0103409281000494
0.0109870191663503
0.0114920809864997
0.0118879945948719
0.0122081860899925
0.0124799376353621
0.0127211138606071
0.0129395797848701
0.0131339095532894
0.0132966823875904
0.0134174060076475
0.0134827177971601
0.0134772108867764
0.0133859142661094
0.0131958406418561
0.0128957498818635
0.012473015114665
0.0119041409343481
0.0111411055549979
0.0101045528426766
0.008691219612956
0.0067943488247692
0.0043324748985469
0.0012782947160303
-0.0023216784466058
-0.0063426168635487
-0.0105951391160488
-0.0148537568747997
-0.0188883375376462
-0.022489421069622
-0.025486784055829
-0.0277629122138023
-0.029260516166687
-0.0299816653132438
-0.0299788974225521
-0.0293424315750598
-0.0281863752752542
-0.0266355853527784
-0.0248146466910839
-0.0228387303650379
-0.0208047293126583
-0.0187830068171024
-0.016813900321722
-0.0149094089865684
-0.0130559345707297
-0.0112185925245285
-0.0093505103141069
-0.0074058547616004
-0.0053517166525125
-0.0031754225492477
-0.0008861999958753
0.0014875773340463
0.0039028618484735
0.0063087604939937
0.0086561730131506
0.0109059493988752
0.0130339125171303
0.0150345973670482
0.0169200338423252
0.0187095515429973
0.0204171352088451
0.0220451094210147
0.0235837511718273
0.0250129122287035
0.0263058152049779
0.0274356789886951
0.0283820629119873
0.0291327703744173
0.0296818502247333
0.0300281289964914
0.0301759578287601
0.0301356073468923
0.0299227237701416
0.0295586846768856
0.0290688350796699
0.0284760352224111
0.0277956053614616
0.0270368270576
0.0262059699743986
0.0253020245581865
0.0243038851767778
0.0231586210429668
0.0217813439667224
0.0200677271932363
0.0179151594638824
0.0152478571981191
0.0120398830622434
0.0083308704197406
0.0042303586378693
-9.171990677714348e-05
-0.0044268448837101
-0.0085567235946655
-0.0122818127274513
-0.0154445469379425
-0.0179437901824712
-0.0197377000004053
-0.0208377558737993
-0.0212985202670097
-0.0212063267827034
-0.0206694900989532
-0.0198081471025943
-0.0187421347945928
-0.0175798051059246
-0.0164085272699594
-0.015286554582417
-0.0142395980656147
-0.013264681212604
-0.0123379034921526
-0.0114225037395954
-0.0104786325246095
-0.0094726998358964
-0.008380526676774
-0.0071870163083076
-0.0058881305158138
-0.0044931657612323
-0.0030233273282647
-0.0015088887885212
1.2164004147052763e-05
0.0014970311895012
0.0029050046578049
0.0042051128111779
0.0053805843926966
0.0064280414953827
0.0073515698313713
0.0081568863242864
0.0088500846177339
0.0094389207661151
0.0099344030022621
0.0103516653180122
0.0107082817703485
0.0110211838036775
0.0113048227503895
0.0115709900856018
0.0118285799399018
0.0120795164257287
0.0123080741614103
0.0124669224023818
0.0124684255570173
0.0121883023530244
0.0114831170067191
0.0102178212255239
0.0082969199866056
0.005692861508578
0.0024643263313919
-0.0012432548683136
-0.0052162194624543
-0.0092031741514801
-0.0129486136138439
-0.0162235777825117
-0.0188491828739643
-0.020710963755846
-0.0217640027403831
-0.0220286566764116
-0.0215783100575208
-0.0205236747860908
-0.0189984776079654
-0.0171477403491735
-0.0151162613183259
-0.0130364838987588
-0.0110178450122475
-0.0091399373486638
-0.0074498690664768
-0.0059616696089506
-0.0046577891334891
-0.0034955628216266
-0.0024180160835385
-0.0013638390228152
-0.0002738563343882
0.0009036930277943
0.0022072382271289
0.0036555198021233
0.0052426513284444
0.0069379671476781
0.0086917774751782
0.0104442238807678
0.0121331755071878
0.0136988647282123
0.0150868240743875
0.0162525251507759
0.0171673223376274
0.0178214907646179
0.0182226505130529
0.0183902662247419
0.0183442570269107
0.018087238073349
0.0175872147083282
0.0167700890451669
0.0155272744596004
0.0137386051937937
0.0113053107634186
0.0081828832626342
0.0044043813832104
8.875032654032111e-05
-0.0045681181363761
-0.00931709818542
-0.0138882081955671
-0.0180252287536859
-0.0215157754719257
-0.024210974574089
-0.0260333195328712
-0.0269740018993616
-0.0270828790962696
-0.0264571160078048
-0.0252302009612321
-0.023558173328638
-0.0216033589094877
-0.0195178613066673
-0.0174281485378742
-0.0154234040528535
-0.0135499378666281
-0.0118116419762372
-0.0101754618808627
-0.008581475354731
-0.0069571770727634
-0.0052337488159537
-0.0033608805388212
-0.0013162326067686
0.0008931010961532
0.0032345065847039
0.005655089393258
0.0080888550728559
0.0104649942368268
0.0127134183421731
0.0147697683423757
0.0165832564234733
0.0181224774569273
0.0193757861852645
0.0203507430851459
0.0210734400898218
0.0215825885534286
0.0219199359416961
0.0221233554184436
0.0222212933003902
0.0222227275371551
0.0221012458205223
0.0217792280018329
0.0211253501474857
0.0199745241552591
0.0181638058274984
0.0155710820108652
0.0121485376730561
0.0079459184780716
0.0031171757727861
-0.0020941044203937
-0.0073875710368156
-0.0124481013044714
-0.0169871430844068
-0.0207751281559467
-0.0236592888832092
-0.0255667306482791
-0.0264990385621786
-0.0265243873000144
-0.0257662553340196
-0.0243860632181167
-0.0225621182471513
-0.0204702503979206
-0.0182684008032083
-0.0160840451717376
-0.0140054784715175
-0.0120793599635362
-0.0103142037987709
-0.0086871143430471
-0.0071516456082463
-0.0056473156437277
-0.0041111577302217
-0.0024890610948204
-0.0007455237209796
0.0011303387582302
0.003125952091068
0.0052110650576651
0.0073434649966657
0.0094744740054011
0.0115549433976411
0.0135412961244583
0.0154007505625486
0.0171137172728776
0.0186718925833702
0.0200738552957773
0.0213220715522766
0.0224222391843795
0.0233827903866767
0.0242143534123897
0.0249286517500877
0.0255330391228199
0.0260185878723859
0.0263437386602163
0.026419511064887
0.0261061210185289
0.0252285338938236
0.0236094053834676
0.0211098343133926
0.0176665261387825
0.0133166350424289
0.0082056429237127
0.0025763916783034
-0.0032598990947008
-0.008964167907834
-0.0142115615308284
-0.0187283176928758
-0.0223177801817655
-0.0248697903007268
-0.0263570696115493
-0.0268262773752212
-0.0263860020786523
-0.0251925084739923
-0.0234330985695123
-0.0213061720132827
-0.0190010536462068
-0.0166815854609012
-0.0144735742360353
-0.0124566229060292
-0.0106627400964498
-0.0090802991762757
-0.0076612839475274
-0.0063332207500934
-0.00501474365592
-0.0036286420654505
-0.0021076903212815
-0.0003959916066378
0.0015479309950023
0.0037450650706887
0.0061903614550828
0.008850016631186
0.0116612538695335
0.0145353693515062
0.0173672698438167
0.0200500339269638
0.0224875546991825
0.0246029812842607
0.0263453107327222
0.0276919566094875
0.0286440644413232
0.0292187966406345
0.0294446516782045
0.0293588377535343
0.029003769159317
0.0284235328435897
0.0276606772094964
0.0267499387264251
0.0257044807076454
0.0244959220290184
0.0230387896299362
0.0211909692734479
0.0187743194401264
0.0156135894358158
0.0115845836699008
0.0066561866551637
0.000912869349122
-0.0054474622011184
-0.0121375881135463
-0.0188198760151863
-0.0251506678760051
-0.0308218896389007
-0.0355940088629722
-0.0393159799277782
-0.0419303588569164
-0.0434654802083969
-0.0440200753509998
-0.0437453314661979
-0.042825236916542
-0.04145397990942
-0.0398117676377296
-0.0380457416176795
-0.0362607687711715
-0.034516841173172
-0.0328303277492523
-0.0311802923679351
-0.0295198261737823
-0.0277912802994251
-0.0259421989321708
-0.0239368397742509
-0.0217618197202682
-0.0194275323301553
-0.0169659331440925
-0.0144253131002187
-0.0118641527369618
-0.0093445796519517
-0.0069261030294001
-0.0046618822962045
-0.0025958437472581
-0.0007583200931549
0.0008374061435461
0.0021959673613309
0.0033379066735506
0.0042943912558257
0.0051014483906328
0.0057966690510511
0.0064167976379394
0.0069939051754772
0.0075516407378017
0.0081024821847677
0.0086411777883768
0.0091314865276217
0.0094926357269287
0.0095954202115535
0.0092746615409851
0.0083582364022731
0.0067047616466879
0.0042402232065796
0.000985539983958
-0.0029330202378332
-0.007294351235032
-0.0118103250861167
-0.0161638744175434
-0.0200499650090932
-0.0232114102691411
-0.0254633724689483
-0.0267055854201316
-0.026923481374979
-0.0261788181960582
-0.0245922915637493
-0.0223237480968236
-0.0195543617010116
-0.0164705105125904
-0.0132485069334506
-0.0100402096286416
-0.0069601219147443
-0.0040777903050184
-0.0014181286096572
0.0010327380150556
0.0033188601955771
0.0055031292140483
0.0076532028615474
0.0098275896161794
0.0120654348284006
0.0143815614283084
0.0167661551386117
0.0191862434148788
0.0215888731181621
0.023909343406558
0.0260837450623512
0.028059747070074
0.0298014990985393
0.0312898457050323
0.0325199887156486
0.0334980264306068
0.0342379063367843
0.0347583442926406
0.0350780971348285
0.0352076292037963
0.0351360589265823
0.0348177328705787
0.0341664031147956
0.0330621972680091
0.0313730351626873
0.0289876535534858
0.0258515104651451
0.0219939518719911
0.0175368972122669
0.0126827908679842
0.0076879980042576
0.0028289260808378
-0.0016334601677954
-0.0054835956543684
-0.0085707437247037
-0.0108168665319681
-0.0122130811214447
-0.0128085538744926
-0.012698127888143
-0.0120105324313044
-0.0108951181173324
-0.0095067452639341
-0.00799126829952
-0.0064738802611827
-0.0050507392734289
-0.0037839801516383
-0.0027007833123207
-0.0017967228777706
-0.0010422806954011
-0.000391460605897
0.0002080861013382
0.000805186049547
0.0014376931358128
0.0021292236633598
0.0028898769523948
0.0037175507750362
0.0045984452590346
0.0055090710520744
0.0064203459769487
0.0073020816780626
0.0081261862069368
0.0088678356260061
0.0095062386244535
0.0100262351334095
0.0104190111160278
0.0106814596801996
0.0108154583722352
0.0108268558979034
0.0107244942337274
0.0105199599638581
0.0102257365360856
0.0098462402820587
0.0093593569472432
0.0086982930079102
0.0077476827427744
0.0063577257096767
0.0043744072318077
0.0016805930063128
-0.0017651291564106
-0.005905533209443
-0.0105835795402526
-0.0155613087117671
-0.0205527245998382
-0.0252633057534694
-0.0294282529503107
-0.0328413173556327
-0.0353690162301063
-0.0369518734514713
-0.0375992134213447
-0.0373802594840526
-0.036410205066204
-0.0348332151770591
-0.0328058749437332
-0.0304821822792291
-0.0280002541840076
-0.0254725404083728
-0.0229804217815399
-0.020572654902935
-0.0182678513228893
-0.0160600114613771
-0.0139242094010114
-0.0118217328563332
-0.0097079090774059
-0.0075440341606736
-0.0053086709231138
-0.0030024831648916
-0.0006454803515225
0.0017293515847995
0.0040818452835083
0.006369958166033
0.0085550285875797
0.0106048434972763
0.0124935284256935
0.014199960976839
0.0157073978334665
0.017005618661642
0.0180941931903362
0.0189842265099287
0.0196956228464841
0.0202502906322479
0.0206672810018062
0.0209623463451862
0.021148832514882
0.02123948559165
0.0212489571422338
0.0211935453116893
0.0210873987525701
0.0209387633949518
0.0207464713603258
0.020490339025855
0.0201132670044899
0.0195065420120954
0.0185140650719404
0.0169586613774299
0.014680097810924
0.0115746362134814
0.0076291542500257
0.0029398342594504
-0.0022926987148821
-0.0077900178730487
-0.0132358390837907
-0.0183194652199745
-0.0227737575769424
-0.0264021307229995
-0.0290915835648775
-0.0308102443814277
-0.0315935239195823
-0.031527541577816
-0.0307348798960447
-0.0293610468506813
-0.0275605842471122
-0.0254850201308727
-0.0232726819813251
-0.0210389345884323
-0.0188682973384857
-0.0168102700263261
-0.0148790087550878
-0.0130569096654653
-0.0113035291433334
-0.009568870998919
-0.0078055215999484
-0.0059763509780168
-0.0040593720041215
-0.002049995586276
4.028715193271637e-05
0.002186729107052
0.0043527754023671
0.0064907525666058
0.0085454452782869
0.0104621890932321
0.0121959522366523
0.0137172117829322
0.0150143150240182
0.0160931441932916
0.016973415389657
0.0176826491951942
0.0182511359453201
0.0187087059020996
0.0190817043185234
0.0193902384489774
0.0196474362164735
0.0198603924363851
0.0200301352888345
0.0201506614685058
0.0202100947499275
0.0201941020786762
0.0200886502861976
0.0198795981705188
0.0195457078516483
0.0190431233495473
0.0182887148112058
0.0171555448323488
0.0154864583164453
0.0131223183125257
0.0099389515817165
0.0058849090710282
0.0010096549522131
-0.0045271082781255
-0.010469852015376
-0.0165020637214183
-0.0222907252609729
-0.0275296363979578
-0.0319737754762172
-0.0354576967656612
-0.037897415459156
-0.0392849519848823
-0.0396818667650222
-0.0392088294029235
-0.0380280502140522
-0.0363211892545223
-0.0342682898044586
-0.0320305004715919
-0.0297360438853502
-0.0274705402553081
-0.0252751447260379
-0.0231533385813236
-0.0210831202566623
-0.019030712544918
-0.0169621016830205
-0.0148498024791479
-0.0126764252781867
-0.0104368738830089
-0.0081374906003475
-0.0057921502739191
-0.0034189391881227
-0.0010400936007499
0.0013176072388887
0.0036275926977396
0.0058714356273412
0.0080422982573509
0.0101411044597625
0.0121699599549174
0.0141283888369798
0.0160130150616168
0.0178190134465694
0.0195423774421215
0.0211803782731294
0.0227295793592929
0.0241851303726434
0.0255400910973548
0.0267779137939214
0.0278570894151926
0.0286955423653125
0.0291646756231784
0.0290992986410856
0.0283239651471376
0.0266915746033191
0.0241242609918117
0.0206424482166767
0.0163744390010833
0.0115475356578826
0.0064617181196808
0.0014492720365524
-0.0031693410128355
-0.0071226079016923
-0.0102124474942684
-0.0123248156160116
-0.0134282559156417
-0.0135650094598531
-0.012838140130043
-0.0113940872251987
-0.0094022918492555
-0.0070379469543695
-0.0044698566198349
-0.0018497668206691
0.000699408352375
0.0030938889831304
0.0052920505404472
0.0072900913655757
0.0091154668480157
0.0108187245205044
0.0124621056020259
0.0141070717945694
0.0158027745783329
0.0175763331353664
0.0194279458373785
0.0213326476514339
0.0232473406940698
0.0251197330653667
0.0268947295844554
0.0285179242491722
0.0299398805946111
0.031122151762247
0.0320424512028694
0.0326960645616054
0.0330930314958095
0.0332527831196785
0.0331958644092083
0.0329303964972496
0.032434307038784
0.0316413268446922
0.0304400715976953
0.028688846156001
0.0262437146157026
0.0229951869696378
0.0189050212502479
0.0140319727361202
0.0085376910865306
0.0026710173115134
-0.0032638674601912
-0.0089477244764566
-0.0140871768817305
-0.0184475854039192
-0.0218722596764564
-0.0242882072925567
-0.0257016122341156
-0.0261855572462081
-0.0258620418608188
-0.0248827543109655
-0.0234132930636405
-0.0216215886175632
-0.0196679141372442
-0.0176937337964773
-0.0158104263246059
-0.0140922712162137
-0.0125750489532947
-0.0112583339214324
-0.0101116187870502
-0.0090842507779598
-0.0081156585365533
-0.0071443854831159
-0.0061176447197794
-0.0049996469169855
-0.0037750797346234
-0.0024484004825353
-0.0010413546115159
0.0004104739055037
0.0018626386299729
0.0032685780897736
0.0045861769467592
0.0057818461209535
0.0068317912518978
0.0077223777770996
0.0084514878690242
0.0090288091450929
0.0094711892306804
0.0097907241433858
0.009975703433156
0.0099696833640336
0.009658545255661
0.0088759940117597
0.0074322316795587
0.0051588509231805
0.0019556730985641
-0.0021738745272159
-0.0071085654199123
-0.0126193659380078
-0.0183997359126806
-0.024107601493597
-0.0294087063521146
-0.0340143144130706
-0.0377096571028232
-0.0403687208890914
-0.0419529303908348
-0.0424983575940132
-0.0420985780656337
-0.0408879518508911
-0.0390267819166183
-0.036686934530735
-0.034037061035633
-0.0312292128801345
-0.0283885858952999
-0.0256063379347324
-0.0229353308677673
-0.0203902013599872
-0.0179528687149286
-0.0155825531110167
-0.0132280774414539
-0.0108403377234935
-0.0083827786147594
-0.0058375070802867
-0.0032072607427835
-0.0005142833106219
0.0022048503160476
0.0049067321233451
0.0075457524508237
0.0100751770660281
0.0124499145895242
0.0146321924403309
0.0165946725755929
0.0183190964162349
0.0197918470948934
0.0209932178258895
0.021879032254219
0.0223631784319877
0.0223139058798551
0.0215714909136295
0.0199843235313892
0.0174533016979694
0.0139715448021888
0.009645253419876
0.0046885916963219
-0.0006032492965459
-0.0058932742103934
-0.0108450930565595
-0.0151620153337717
-0.0186169631779193
-0.0210680719465017
-0.0224601700901985
-0.0228177122771739
-0.0222326423972845
-0.0208474919199943
-0.0188365969806909
-0.0163876116275787
-0.0136840250343084
-0.0108904670923948
-0.008140648715198
-0.0055289068259298
-0.0031081682536751
-0.0008927439339458
0.0011356126051396
0.0030172280967235
0.004802057519555
0.0065395790152251
0.0082718059420585
0.0100285727530717
0.011824520304799
0.013657315634191
0.0155083192512393
0.0173465590924024
0.0191337633877992
0.0208291709423065
0.0223945286124944
0.0237979907542467
0.0250155385583639
0.026031507179141
0.026840254664421
0.0274464283138513
0.0278604272753
0.0280900970101356
0.028127297759056
0.0279277265071868
0.0273954402655363
0.0263870246708393
0.0247361175715923
0.0222907774150371
0.0189562942832708
0.0147323925048112
0.0097317583858966
0.0041745444759726
-0.0016383030451834
-0.0073663718067109
-0.0126752592623233
-0.0172762796282768
-0.0209553129971027
-0.0235871151089668
-0.0251353234052658
-0.0256441198289394
-0.025225281715393
-0.0240410231053829
-0.0222839638590812
-0.0201556719839572
-0.0178451873362064
-0.0155110023915767
-0.013270984403789
-0.0112005211412906
-0.0093344673514366
-0.0076698311604559
-0.0061702937819063
-0.0047757988795638
-0.0034173433668911
-0.0020321351476013
-0.0005744281224906
0.000979486387223
0.0026314510032534
0.0043642758391797
0.0061454065144062
0.0079320035874843
0.0096777994185686
0.011340232565999
0.012884609401226
0.0142827555537223
0.0155103802680969
0.0165481772273778
0.0173805840313434
0.0179841425269842
0.018309898674488
0.0182714462280273
0.0177472084760665
0.0166003555059433
0.0147127183154225
0.0120227774605154
0.0085555939003825
0.0044352263212203
-0.0001239320263266
-0.0048435721546411
-0.0094192074611783
-0.0135621959343552
-0.0170371755957603
-0.0196859911084175
-0.0214343816041946
-0.0222854912281036
-0.0223072320222854
-0.0216172784566879
-0.02036739513278
-0.0187278501689434
-0.0168701913207769
-0.0149483624845743
-0.0130827706307172
-0.0113518526777625
-0.0097911590710282
-0.0083976481109857
-0.0071381689049303
-0.0059603708796203
-0.0048033576458692
-0.0036076325923204
-0.0023238798603415
-0.0009198412299156
0.0006147013045847
0.0022664074786007
0.0040010791271924
0.0057690688408911
0.0075122234411537
0.0091719310730695
0.0106972828507423
0.0120508978143334
0.0132115837186574
0.0141755361109972
0.0149546694010496
0.0155699606984853
0.0160420797765254
0.0163789149373769
0.0165574476122856
0.0165071487426757
0.0161076486110687
0.0152067998424172
0.0136558031663298
0.0113504854962229
0.0082655046135187
0.0044717565178871
0.0001332564279437
-0.0045130439102649
-0.0091878250241279
-0.0136052826419472
-0.0175091996788978
-0.02070177718997
-0.0230591520667076
-0.0245333015918731
-0.025143589824438
-0.0249632708728313
-0.0241061672568321
-0.0227130837738513
-0.0209365524351596
-0.0189257524907588
-0.0168134979903697
-0.0147070717066526
-0.0126831624656915
-0.0107855647802352
-0.0090261781588196
-0.007390072569251
-0.0058446815237402
-0.0043517360463738
-0.0028763727750629
-0.0013907047687098
0.0001241704449057
0.0016760565340518
0.0032611023634672
0.0048648593947291
0.0064648399129509
0.0080336658284068
0.0095409741625189
0.0109551502391695
0.0122468005865812
0.0133922221139073
0.0143750868737697
0.0151887824758887
0.0158390831202268
0.016341745853424
0.0167152229696512
0.0169750545173883
0.0171326454728841
0.017195850610733
0.0171699672937393
0.0170599222183227
0.0168725028634071
0.0166156031191349
0.0162917617708444
0.0158847086131572
0.0153427124023437
0.0145685179159045
0.013425881974399
0.0117647480219602
0.0094566168263554
0.0064292512834072
0.0026930961757898
-0.0016469722613692
-0.0063982517458498
-0.0113039063289761
-0.0160782225430011
-0.0204451046884059
-0.0241715759038925
-0.0270907338708639
-0.0291115827858448
-0.0302172489464283
-0.0304563380777835
-0.0299301724880933
-0.0287767387926578
-0.0271531026810407
-0.0252181272953748
-0.0231185108423233
-0.0209798328578472
-0.0189001150429248
-0.0169443264603614
-0.0151418214663863
-0.0134884063154459
-0.0119527084752917
-0.010486152023077
-0.0090349400416016
-0.0075505748391151
-0.0059971921145915
-0.0043557872995734
-0.0026249377988278
-0.0008190588559955
0.0010346826165914
0.0028998686466366
0.0047338190488517
0.0064925230108201
0.0081377020105719
0.0096415746957063
0.0109880398958921
0.0121716195717453
0.0131953228265047
0.0140685923397541
0.0148048540577292
0.015418853610754
0.0159255024045705
0.0163399782031774
0.0166774448007345
0.0169518254697322
0.0171741284430027
0.0173510573804378
0.0174844078719615
0.0175717175006866
0.0176067575812339
0.017576266080141
0.0174507051706314
0.0171721391379833
0.0166464988142251
0.0157474633306264
0.0143365114927291
0.0122954631224274
0.009559734724462
0.0061427494511008
0.0021470016799867
-0.0022406100761145
-0.0067693283781409
-0.0111591406166553
-0.0151418726891279
-0.0184961538761854
-0.021069386973977
-0.0227860994637012
-0.0236442554742097
-0.0237051453441381
-0.0230802185833454
-0.021913681179285
-0.0203630831092596
-0.0185827538371086
-0.0167113747447729
-0.0148625569418072
-0.0131178777664899
-0.0115227550268173
-0.0100862756371498
-0.0087861344218254
-0.0075784218497574
-0.0064096371643245
-0.0052270842716097
-0.003986956551671
-0.0026614340022206
-0.0012419484555721
0.0002635801210999
0.0018355315551161
0.0034457519650459
0.0050600068643689
0.0066409017890691
0.0081507693976163
0.009555010125041
0.0108268158510327
0.0119505571201443
0.0129201225936412
0.0137352254241704
0.0144013138487935
0.0149308182299137
0.015341917052865
0.015655955299735
0.01589335501194
0.0160693731158971
0.0161947086453437
0.0162790492177009
0.0163312442600727
0.0163566097617149
0.016354639083147
0.0163143966346979
0.0162039678543806
0.0159587673842906
0.0154768964275717
0.0146258398890495
0.0132627123966813
0.0112658599391579
0.0085685206577181
0.0051844557747244
0.0012193529400974
-0.0031354925595223
-0.0076273907907307
-0.0119779855012893
-0.0159203708171844
-0.0192306283861398
-0.0217500552535057
-0.0233951397240161
-0.0241562314331531
-0.0240896120667457
-0.0233057979494333
-0.0219550877809524
-0.0202114060521125
-0.0182540789246559
-0.0162476580590009
-0.0143233649432659
-0.0125672649592161
-0.0110178459435701
-0.0096718771383166
-0.0084943575784564
-0.0074288649484515
-0.0064079724252223
-0.0053640492260456
-0.0042385384440422
-0.0029880478978157
-0.0015873229131102
-3.050733357667923e-05
0.0016675936058163
0.0034714164212346
0.0053287902846932
0.0071789021603763
0.00896099768579
0.010621509514749
0.0121183143928647
0.0134223774075508
0.0145185980945825
0.0154072381556034
0.0161044653505086
0.0166381299495697
0.0170383304357528
0.0173250958323478
0.0174925066530704
0.0174925830215215
0.0172299072146415
0.0165743958204984
0.0153895150870084
0.0135658364742994
0.0110508687794208
0.0078716250136494
0.0041438182815909
6.226310506463051e-05
-0.0041235890239477
-0.0081427674740552
-0.011738333851099
-0.0146974138915538
-0.0168712604790925
-0.0181840248405933
-0.0186315104365348
-0.018274625763297
-0.0172292254865169
-0.0156509689986705
-0.0137161621823906
-0.0116014229133725
-0.0094656879082322
-0.0074375364929437
-0.0056081060320138
-0.0040273340418934
-0.0027021495625376
-0.0015990417450666
-0.0006532808765769
0.0002173287793993
0.0010976027697324
0.0020612701773643
0.0031609572470188
0.0044229654595255
0.0058458638377487
0.007403397001326
0.0090516451746225
0.0107369599863886
0.0124013889580965
0.013987042941153
0.0154427383095026
0.0167310256510972
0.0178311914205551
0.0187379233539104
0.0194569285959005
0.0199947729706764
0.0203402191400527
0.0204439461231231
0.0202099531888961
0.0195048153400421
0.0181815382093191
0.0161131396889686
0.0132298497483134
0.0095490720123052
0.0051872115582227
0.0003511534305289
-0.0046857986599206
-0.0096186026930809
-0.0141497571021318
-0.0180252455174922
-0.021060137078166
-0.0231501571834087
-0.0242708884179592
-0.0244688093662261
-0.0238471832126379
-0.0225505512207746
-0.02075039409101
-0.0186291262507438
-0.0163613595068454
-0.014097262173891
-0.0119508020579814
-0.0099933966994285
-0.0082535315304994
-0.0067212143912911
-0.0053553697653114
-0.0040934025309979
-0.0028633032925426
-0.0015968400985002
-0.0002402616664767
0.0012396001257002
0.0028542787767946
0.0045960387215018
0.006439836230129
0.00834437366575
0.0102552315220236
0.0121110957115888
0.0138516938313841
0.015425456687808
0.0167957581579685
0.017945073544979
0.0188753269612789
0.0196029692888259
0.0201502777636051
0.0205351002514362
0.0207566358149051
0.0207765139639377
0.0205048378556966
0.0198024995625019
0.0185026079416275
0.0164459031075239
0.0135213676840066
0.009703105315566
0.0050728498026728
-0.0001797112636268
-0.0057769785635173
-0.0113890990614891
-0.0166793074458837
-0.0213470421731472
-0.0251594223082065
-0.0279687792062759
-0.0297162160277366
-0.0304243862628936
-0.0301838181912899
-0.0291350483894348
-0.0274502392858266
-0.0253170412033796
-0.0229219794273376
-0.0204326566308736
-0.0179836340248584
-0.0156685169786214
-0.013536499813199
-0.0115931369364261
-0.0098070269450545
-0.0081217447295784
-0.0064694620668888
-0.0047831949777901
-0.0030065458267927
-0.0011007003486156
0.0009503061883151
0.0031365375034511
0.0054238527081906
0.0077595328912138
0.0100794695317745
0.0123173408210277
0.0144145414233207
0.0163259319961071
0.0180202834308147
0.0194802172482013
0.0207038111984729
0.0217037759721279
0.0225020721554756
0.0231241714209318
0.0235954150557518
0.0239368677139282
0.0241566859185695
0.0242333002388477
0.0240943152457475
0.0236062202602624
0.0225872416049242
0.020841471850872
0.0182042680680751
0.0145883783698081
0.010018266737461
0.0046419613063335
-0.0012820772826671
-0.0074181021191179
-0.0133977336809039
-0.018867764621973
-0.0235323216766119
-0.0271801352500915
-0.0296933818608522
-0.0310441497713327
-0.0312871001660823
-0.0305487439036369
-0.029009586200118
-0.0268806926906108
-0.024379288777709
-0.0217070635408163
-0.0190332476049661
-0.0164826549589633
-0.0141291283071041
-0.0119962459430098
-0.0100652128458023
-0.0082858931273221
-0.0065881796181201
-0.0048950021155178
-0.003135991282761
-0.0012587299570441
0.0007629338651895
0.0029254753608256
0.0051989909261465
0.0075337374582886
0.0098666865378618
0.0121296346187591
0.0142594762146472
0.0162064787000417
0.0179371181875467
0.0194329302757978
0.0206885673105716
0.0217097513377666
0.0225110612809658
0.0231149941682815
0.0235506892204284
0.023849906399846
0.0240417066961526
0.024146482348442
0.0241665281355381
0.0240711756050586
0.023780757561326
0.0231594685465097
0.0220244731754064
0.020173355937004
0.0174279659986495
0.0136834802106022
0.008945639245212
0.0033467151224613
-0.0028609940782189
-0.0093346564099192
-0.0156885907053947
-0.0215469934046268
-0.0265898294746875
-0.0305850468575954
-0.0334029756486415
-0.0350147560238838
-0.0354814119637012
-0.0349376089870929
-0.033571109175682
-0.0315990559756755
-0.0292431619018316
-0.0267071034759283
-0.0241592023521661
-0.0217217691242694
-0.0194669067859649
-0.0174171328544616
-0.0155501551926136
-0.0138097070157527
-0.0121223796159029
-0.0104152793064713
-0.0086293555796146
-0.0067267580889165
-0.0046931924298405
-0.0025374894030392
-0.0002882902044802
0.002012769691646
0.0043181497603654
0.0065788412466645
0.0087469946593046
0.0107788471505045
0.0126386741176247
0.0143030462786555
0.0157644636929035
0.0170313436537981
0.018122024834156
0.0190567839890718
0.0198514759540557
0.0205084383487701
0.0210000127553939
0.0212504286319017
0.0211288593709468
0.020462479442358
0.0190693605691194
0.0168025977909564
0.0135930515825748
0.009479871019721
0.0046210619620978
-0.0007199589163064
-0.0062085599638521
-0.0114851091057062
-0.016213746741414
-0.0201229229569435
-0.0230294112116098
-0.0248447880148887
-0.0255686230957508
-0.0252741947770118
-0.0240912474691867
-0.0221886876970529
-0.0197583716362714
-0.0169986505061388
-0.0140969036146998
-0.0112137822434306
-0.0084728738293051
-0.0059564136900007
-0.0037039120215922
-0.0017131217755377
5.2933814004063606e-05
0.0016525144455954
0.0031497154850512
0.0046018157154321
0.0060526584275066
0.0075306529179215
