bvp
-0.007150222081691
-0.0163525305688381
-0.0252400860190391
-0.033308207988739
-0.0401394106447696
-0.0454406887292861
-0.0490589700639247
-0.0509764403104782
-0.0512923598289489
-0.0501976087689399
-0.0479455031454563
-0.0448226369917392
-0.0411229692399501
-0.0371237993240356
-0.03306245803833
-0.0291193779557943
-0.0254113636910915
-0.0219916012138128
-0.0188548993319273
-0.0159501899033784
-0.0131979053840041
-0.0105077913030982
-0.0077955741435289
-0.0049968664534389
-0.0020755175501108
0.0009730563033372
0.0041212369687855
0.0073140347376465
0.010480435565114
0.0135447904467582
0.0164357014000415
0.0190941728651523
0.0214797277003526
0.0235736593604087
0.0253781098872423
0.0269100908190011
0.0281950216740369
0.0292625073343515
0.0301423072814941
0.0308598522096872
0.0314323119819164
0.0318666696548461
0.0321606770157814
0.0323044434189796
0.0322807617485523
0.0320666059851646
0.0316381528973579
0.0309771746397018
0.0300741866230964
0.0289285704493522
0.0275498628616333
0.0259590316563844
0.024186810478568
0.0222677607089281
0.0202240273356437
0.0180352106690406
0.0156067423522472
0.012759068980813
0.009251669049263
0.0048392470926046
-0.0006568636745214
-0.0072864070534706
-0.0149336485192179
-0.023311324417591
-0.0319868810474872
-0.0404365547001361
-0.0481147691607475
-0.0545260235667228
-0.0592857040464878
-0.0621577277779579
-0.0630664452910423
-0.0620872601866722
-0.0594231411814689
-0.055374339222908
-0.0503043122589588
-0.0446030683815479
-0.0386513397097587
-0.0327900163829326
-0.0272990353405475
-0.0223850235342979
-0.0181737877428531
-0.014710403047502
-0.0119714513421058
-0.009884244762361
-0.0083454037085175
-0.0072371242567896
-0.0064415768720209
-0.0058533991686999
-0.0053881765343248
-0.0049838977865874
-0.0045972960069775
-0.0041988836601376
-0.0037676824722439
-0.0032871970906853
-0.0027438050601631
-0.0021268473938107
-0.0014301278861239
-0.0006530856480821
0.0002007166040129
0.00112595630344
0.002116072922945
0.003163774497807
0.0042621525935828
0.0054041314870119
0.0065824543125927
0.0077922046184539
0.0090301670134067
0.0102858394384384
0.0115234274417161
0.0126562910154461
0.0135265188291668
0.0139091331511735
0.0135461948812007
0.0121995778754353
0.0097083393484354
0.0060376645997166
0.0013055321760475
-0.0042209201492369
-0.0101578384637832
-0.016057938337326
-0.02147201821208
-0.0260053183883428
-0.0293581970036029
-0.0313463918864727
-0.031904436647892
-0.0310784056782722
-0.0290103498846292
-0.0259165950119495
-0.0220624152570962
-0.0177330300211906
-0.0132029801607131
-0.0087104253470897
-0.0044396165758371
-0.0005098152905702
0.0030290279537439
0.006191823631525
0.0090453140437603
0.0116878915578126
0.0142261050641536
0.0167550630867481
0.0193449519574642
0.0220314040780067
0.0248116105794906
0.0276476293802261
0.0304737817496061
0.0332063846290111
0.0357560440897941
0.038039855659008
0.0399902313947677
0.0415611118078231
0.0427317172288894
0.0435050204396247
0.0438992567360401
0.0439306832849979
0.0435869842767715
0.042800024151802
0.0414340421557426
0.0393009148538112
0.0362027809023857
0.0319899208843708
0.0266154147684574
0.0201714355498552
0.0128977438434958
0.0051592802628874
-0.0026002037338912
-0.0099163092672824
-0.0163639560341835
-0.021608829498291
-0.0254382211714983
-0.0277672093361616
-0.0286288931965827
-0.0281574185937643
-0.0265652723610401
-0.0241163223981857
-0.0210969969630241
-0.0177875775843858
-0.014437579549849
-0.0112474970519542
-0.0083555309101939
-0.005830624140799
-0.0036747436970472
-0.0018333820626139
-0.0002125650644302
0.0012996233999729
0.0028124148957431
0.0044159912504255
0.0061700129881501
0.0080986060202121
0.0101913334801793
0.0124082509428262
0.0146878072991967
0.016955878585577
0.0191356837749481
0.0211578533053398
0.0229643061757087
0.0244998112320899
0.0256930012255907
0.0264349412173032
0.0265669655054807
0.0258897766470909
0.0241987500339746
0.0213378630578517
0.0172539316117763
0.0120318308472633
0.0059009124524891
-0.0007876101881265
-0.0076066330075263
-0.0141108892858028
-0.0198939740657806
-0.024633863940835
-0.0281191375106573
-0.0302563328295946
-0.0310629196465015
-0.030650595203042
-0.0292038358747959
-0.0269557163119316
-0.024162258952856
-0.0210772156715393
-0.0179282259196043
-0.0148975122720003
-0.0121107343584299
-0.0096321664750576
-0.0074655544012784
-0.0055644302628934
-0.0038495184853672
-0.002227115444839
-0.000606783432886
0.0010840242030099
0.0028914539143443
0.0048317173495888
0.0068913297727704
0.0090310368686914
0.0111927073448896
0.0133087299764156
0.0153117990121245
0.0171426590532064
0.0187548734247684
0.0201127007603645
0.021176790818572
0.0218784827739
0.0220942161977291
0.0216402858495712
0.0202982574701309
0.0178610980510711
0.0141877643764019
0.0092573808506131
0.0032053096219897
-0.0036759758368134
-0.0109722446650266
-0.0182062983512878
-0.0249029994010925
-0.0306471027433872
-0.0351259969174861
-0.0381515137851238
-0.0396600440144538
-0.0396998040378093
-0.0384136438369751
-0.0360172837972641
-0.0327734053134918
-0.0289647802710533
-0.024867620319128
-0.0207276586443185
-0.0167419463396072
-0.0130471121519804
-0.0097161326557397
-0.0067637125030159
-0.0041554924100637
-0.0018204024527221
0.0003314812202006
0.0023904361296445
0.0044329767115414
0.0065116328187286
0.008650398813188
0.0108464676886796
0.0130736036226153
0.0152871506288647
0.0174326002597808
0.0194534659385681
0.0212969109416008
0.0229191463440656
0.024289634078741
0.0253934822976589
0.0262319352477788
0.0268198922276496
0.0271792486310005
0.0273246839642524
0.0272380150854587
0.0268362760543823
0.0259530059993267
0.0243518128991127
0.0217729620635509
0.017999667674303
0.0129262479022145
0.0066074170172214
-0.0007272129878401
-0.008697148412466
-0.0168250799179077
-0.0246036127209663
-0.031559370458126
-0.0373062491416931
-0.0415802001953125
-0.0442509949207305
-0.0453165397047996
-0.0448874272406101
-0.0431630536913871
-0.0404016822576522
-0.0368907861411571
-0.0329198725521564
-0.0287555903196334
-0.0246198084205389
-0.0206735022366046
-0.0170114785432815
-0.0136668682098388
-0.0106198778375983
-0.0078110634349286
-0.0051587191410362
-0.0025759283453226
1.4686258509755136e-05
0.0026698482688516
0.0054189185611903
0.0082607315853238
0.0111652761697769
0.0140800476074218
0.016937255859375
0.0196620505303144
0.0221842303872108
0.0244491174817085
0.0264213159680366
0.0280823092907667
0.0294275805354118
0.0304656941443681
0.0312171932309865
0.0317122675478458
0.0319880582392215
0.032084621489048
0.0320401079952716
0.0318871811032295
0.0316466651856899
0.0313116759061813
0.0308216009289026
0.0300365984439849
0.0287332683801651
0.0266346540302038
0.0234671644866466
0.0190277323126792
0.0132457287982106
0.0062234429642558
-0.0017581060528755
-0.0102703962475061
-0.0187968034297227
-0.0268036872148513
-0.0338080003857612
-0.0394322797656059
-0.0434386767446994
-0.045738585293293
-0.0463830977678298
-0.0455400831997394
-0.0434624291956424
-0.0404539369046688
-0.036837413907051
-0.0329235978424549
-0.0289808604866266
-0.0252126827836036
-0.0217484757304191
-0.0186446085572242
-0.0158910565078258
-0.0134240295737981
-0.0111450850963592
-0.0089434115216135
-0.0067164809443056
-0.0043850978836417
-0.0019017232116311
0.0007467236137017
0.0035402020439505
0.00642970809713
0.0093443058431148
0.0122014116495847
0.0149185517802834
0.0174228250980377
0.01965625397861
0.0215797647833824
0.0231759324669837
0.0244475901126861
0.0254142116755247
0.0261080227792263
0.0265683736652135
0.0268356595188379
0.026948194950819
0.026940431445837
0.026839479804039
0.0266626924276351
0.0264193583279848
0.0261138416826725
0.0257463827729225
0.0253129228949546
0.0248073171824216
0.0242211744189262
0.0235309228301048
0.0226709060370922
0.0215073451399803
0.01983442902565
0.0174030903726816
0.01397524215281
0.0093870349228382
0.0036037731915712
-0.0032489895820617
-0.0108873471617698
-0.0189015958458185
-0.0268095433712005
-0.034121386706829
-0.0404039919376373
-0.0453291982412338
-0.0486998930573463
-0.050456766039133
-0.0506682991981506
-0.0495080985128879
-0.0472253523766994
-0.0441114380955696
-0.0404664166271686
-0.0365688279271125
-0.0326507538557052
-0.0288815908133983
-0.0253623742610216
-0.0221296399831771
-0.0191665366291999
-0.0164176225662231
-0.0138052329421043
-0.0112460050731897
-0.0086652413010597
-0.0060077756643295
-0.0032447269186377
-0.0003765682340599
0.0025671478360891
0.0055331168696284
0.0084541533142328
0.0112586729228496
0.0138770351186394
0.0162468757480382
0.0183185599744319
0.020059261471033
0.0214555189013481
0.0225136540830135
0.0232563577592372
0.0237179584801197
0.0239410623908042
0.023972287774086
0.0238569509238004
0.0236354917287826
0.0233411118388175
0.0229979623109102
0.0226211193948984
0.0222179964184761
0.021790862083435
0.0213415883481502
0.020876245573163
0.0204047933220863
0.0199354141950607
0.0194629654288291
0.0189480893313884
0.0182912312448024
0.0173196978867054
0.015804037451744
0.0135011477395892
0.0102108670398592
0.0058322306722402
0.0004030307754874
-0.005888286512345
-0.0127178998664021
-0.0196655988693237
-0.0262729711830616
-0.0321086011826992
-0.0368236266076564
-0.0401878803968429
-0.0421049259603023
-0.0426061600446701
-0.0418296158313751
-0.0399932712316513
-0.0373663306236267
-0.0342375822365284
-0.0308846551924943
-0.0275491382926702
-0.0244173612445592
-0.0216083768755197
-0.0191721394658088
-0.0170956011861562
-0.0153139345347881
-0.0137270782142877
-0.0122200734913349
-0.0106821414083242
-0.0090211238712072
-0.007173765450716
-0.0051112747751176
-0.0028387629427015
-0.0003901747986674
0.0021790172904729
0.0048001445829868
0.0073991324752569
0.0099033340811729
0.0122487396001815
0.014385899528861
0.0162821300327777
0.017922818660736
0.019312160089612
0.0204690359532833
0.0214197821915149
0.0221924241632223
0.0228132456541061
0.0233057737350463
0.0236905384808778
0.0239841751754283
0.0241996049880981
0.0243472456932067
0.0244353115558624
0.0244696512818336
0.024454228579998
0.0243907142430543
0.0242740344256162
0.0240804124623537
0.0237469244748353
0.0231521390378475
0.0221145842224359
0.0204164739698171
0.0178472585976123
0.0142558319494128
0.0095973182469606
0.0039626532234251
-0.0024163760244846
-0.009190366603434
-0.0159389898180961
-0.0222290065139532
-0.0276719853281974
-0.0319703593850135
-0.034942340105772
-0.0365263260900974
-0.036772184073925
-0.0358247980475425
-0.0339018851518631
-0.0312666855752468
-0.0281979255378246
-0.0249604694545269
-0.0217803865671157
-0.0188281573355197
-0.0162093546241521
-0.013960899785161
-0.0120557751506567
-0.010417440906167
-0.0089390221983194
-0.0075034480541944
-0.0060024550184607
-0.0043506314978003
-0.0024942541494965
-0.0004169298335909
0.0018602246418595
0.0042857211083173
0.0067892032675445
0.0092927776277065
0.0117202568799257
0.0140047138556838
0.0160936117172241
0.017950328066945
0.0195530895143747
0.0208932161331176
0.0219740569591522
0.0228104554116725
0.0234274435788393
0.0238584969192743
0.0241416860371828
0.0243115909397602
0.024393118917942
0.0244012977927923
0.0243429597467184
0.0242197662591934
0.0240322239696979
0.0237811282277107
0.0234669744968414
0.0230853427201509
0.0226121880114078
0.021981144323945
0.0210645422339439
0.0196729470044374
0.0175810102373361
0.0145731940865516
0.0104969926178455
0.0053109750151634
-0.0008853585459291
-0.0078480299562215
-0.0152136823162436
-0.0225482806563377
-0.0294059514999389
-0.035385325551033
-0.0401750691235065
-0.0435807667672634
-0.0455314442515373
-0.0460723862051963
-0.0453490987420082
-0.0435832664370536
-0.0410430468618869
-0.0380120202898979
-0.0347604937851429
-0.0315225087106227
-0.0284795798361301
-0.0257483888417482
-0.0233738254755735
-0.0213329941034317
-0.0195490680634975
-0.0179093964397907
-0.0162865631282329
-0.0145608093589544
-0.0126369278877973
-0.0104530435055494
-0.0079857837408781
-0.0052514635026454
-0.0023003704845905
0.0007935613393783
0.0039443466812372
0.0070643099024891
0.0100711472332477
0.0128928534686565
0.0154734309762716
0.0177778173238039
0.0197921805083751
0.0215208809822797
0.0229834336787462
0.024211335927248
0.0252438988536596
0.0261229407042264
0.0268841832876205
0.0275416374206542
0.0280645824968814
0.0283559709787368
0.0282463990151882
0.0275109391659498
0.0259077847003936
0.0232328288257122
0.0193768385797739
0.0143678542226552
0.0083866994827985
0.0017529455944895
-0.0051150601357221
-0.011758143082261
-0.0177378617227077
-0.0226874984800815
-0.0263472329825162
-0.0285820066928863
-0.0293817874044179
-0.0288485437631607
-0.0271747168153524
-0.0246163830161094
-0.0214637890458107
-0.0180107746273279
-0.0145257618278265
-0.0112257618457078
-0.0082554277032613
-0.0056779701262712
-0.0034810304641723
-0.0015917848795652
0.0001043267548084
0.001742448657751
0.0034570377320051
0.0053642950952053
0.0075481012463569
0.0100494008511304
0.0128619652241468
0.0159353278577327
0.019183387979865
0.0224971715360879
0.0257597714662551
0.0288604404777288
0.0317055284976959
0.0342264026403427
0.0363839268684387
0.0381670482456684
0.0395854525268077
0.040657453238964
0.0413894280791282
0.0417457148432731
0.0416226834058761
0.0408450625836849
0.0391901545226573
0.0364361144602298
0.032423622906208
0.0271123275160789
0.0206154678016901
0.0132035911083221
0.005275996401906
-0.0026917601935565
-0.0102120488882064
-0.0168489124625921
-0.0222675260156393
-0.0262601822614669
-0.0287500657141208
-0.0297798048704862
-0.0294911302626132
-0.0281000807881355
-0.0258709620684385
-0.0230897553265094
-0.0200359188020229
-0.0169554930180311
-0.0140408538281917
-0.0114172287285327
-0.0091351345181465
-0.0071727018803358
-0.0054496950469911
-0.003849106375128
-0.0022412315011024
-0.0005063177086412
0.0014483006671071
0.0036780240479856
0.0061959237791597
0.0089736748486757
0.0119488220661878
0.0150337694212794
0.0181246828287839
0.0211132280528545
0.0239006336778402
0.0264081582427024
0.028581092134118
0.0303878337144851
0.0318135172128677
0.0328478701412677
0.0334667116403579
0.0336052067577838
0.033132828772068
0.0318509824573993
0.0295234434306621
0.025932528078556
0.0209435503929853
0.0145567124709486
0.0069325566291809
-0.0016117747873067
-0.0106342611834406
-0.0196247566491365
-0.0280736051499843
-0.0355321764945983
-0.041655845940113
-0.0462286248803138
-0.0491681694984436
-0.0505152195692062
-0.0504143759608268
-0.0490881577134132
-0.0468061380088329
-0.0438539050519466
-0.0405055433511734
-0.0370015650987625
-0.03353201597929
-0.0302252024412155
-0.0271438416093587
-0.0242887027561664
-0.0216098688542842
-0.0190241783857345
-0.0164344329386949
-0.0137477423995733
-0.0108917504549026
-0.0078262006863951
-0.0045472439378499
-0.0010854732245206
0.0024994621053338
0.006127736531198
0.0097106602042913
0.0131598571315407
0.0163933020085096
0.0193410571664571
0.0219505615532398
0.0241902656853199
0.026050891727209
0.0275423061102628
0.0286880210041999
0.0295215118676424
0.030082918703556
0.0304144825786352
0.0305569544434547
0.0305464901030063
0.0304066874086856
0.0301291309297084
0.0296434219926595
0.0287911053746938
0.0273229796439409
0.0249321702867746
0.0213201958686113
0.0162765849381685
0.0097465310245752
0.0018678419291973
-0.0070308297872543
-0.0164685249328613
-0.0258783195167779
-0.0346870869398117
-0.0423894450068473
-0.0486005842685699
-0.053083311766386
-0.0557518079876899
-0.0566583126783371
-0.0559698827564716
-0.0539394207298755
-0.0508724451065063
-0.047091819345951
-0.042906105518341
-0.0385857596993446
-0.0343443751335144
-0.0303249340504407
-0.0265966840088367
-0.0231631137430667
-0.0199756454676389
-0.0169511586427688
-0.0139934681355953
-0.0110136428847908
-0.0079438081011176
-0.004745696671307
-0.0014156671240925
0.0020162602886557
0.0054938378743827
0.0089442459866404
0.012287463992834
0.0154469348490238
0.0183592475950717
0.020977534353733
0.0232713222503662
0.0252281688153743
0.026853485032916
0.0281651765108108
0.0291880592703819
0.0299517437815666
0.0304898452013731
0.0308379642665386
0.0310297794640064
0.0310926847159862
0.0310459416359663
0.0309025105088949
0.0306717976927757
0.0303552560508251
0.0299274921417236
0.0293074715882539
0.0283361691981554
0.0267774909734725
0.024351792410016
0.0207974091172218
0.0159405879676342
0.0097526721656322
0.0023809373378753
-0.0058543588966131
-0.0144962985068559
-0.0230125784873962
-0.0308688767254352
-0.0375986993312835
-0.0428551062941551
-0.0464371070265769
-0.0482912361621856
-0.0484953671693801
-0.0472332276403903
-0.0447633489966392
-0.0413859114050865
-0.0374127998948097
-0.0331411324441432
-0.0288281310349702
-0.0246709585189819
-0.0207966603338718
-0.0172613710165023
-0.0140558006241917
-0.0111184725537896
-0.0083570294082164
-0.0056704571470618
-0.0029666791670024
-0.0001764073967933
0.0027375807985663
0.00577801046893
0.008916032500565
0.0120967999100685
0.0152464434504508
0.0182811319828033
0.0211188476532697
0.0236904416233301
0.0259454399347305
0.0278521534055471
0.0293958000838756
0.0305783506482839
0.031418602913618
0.0319492295384407
0.032212246209383
0.0322556495666503
0.0321287401020526
0.031873732805252
0.0315137766301631
0.031033206731081
0.0303516387939453
0.0293105691671371
0.0276900716125965
0.0252535045146942
0.0218052193522453
0.0172460712492465
0.0116135403513908
0.0050956215709447
-0.0019867317751049
-0.0092240432277321
-0.0161763709038496
-0.0224314052611589
-0.0276533737778663
-0.0316149704158306
-0.0342083275318145
-0.0354397259652614
-0.035415381193161
-0.0343204215168952
-0.0323922634124755
-0.029892386868596
-0.0270794946700334
-0.0241854451596736
-0.0213955901563167
-0.0188356451690197
-0.0165669936686754
-0.0145897231996059
-0.0128522599115967
-0.0112681221216917
-0.0097364978864789
-0.0081599475815892
-0.0064574228599667
-0.0045739724300801
-0.0024860054254531
-0.0002021832478931
0.0022384936455637
0.0047719734720885
0.007319027557969
0.0097974557429552
0.0121327135711908
0.0142659936100244
0.0161586310714483
0.0177920684218406
0.0191661175340414
0.0202963706105947
0.0212093815207481
0.0219348389655351
0.0224911663681268
0.0228618308901786
0.0229717008769512
0.0226800423115491
0.0217983219772577
0.0201308596879243
0.0175288766622543
0.0139400139451026
0.0094378553330898
0.0042269076220691
-0.0013781986199319
-0.006996982730925
-0.0122393351048231
-0.0167587250471115
-0.0202901996672153
-0.0226686559617519
-0.023832369595766
-0.0238166991621255
-0.0227389857172966
-0.0207784213125705
-0.0181551650166511
-0.0151074584573507
-0.011866726912558
-0.0086365938186645
-0.0055786748416721
-0.0028035379946231
-0.000367242610082
0.0017262042965739
0.0035168128088116
0.005075397901237
0.0064883511513471
0.0078426804393529
0.0092120599001646
0.0106479488313198
0.012177363038063
0.0138018792495131
0.0154961831867694
0.0172116067260503
0.0188848357647657
0.0204465296119451
0.0218295156955719
0.022978326305747
0.023856421932578
0.0244463998824358
0.0247462131083011
0.0247675944119691
0.0245357025414705
0.0240862760692834
0.0234612300992012
0.0227032396942377
0.0218479447066783
0.020913541316986
0.0198857560753822
0.0186991449445486
0.0172252897173166
0.0152798257768154
0.0126535017043352
0.0091623049229383
0.0047009121626615
-0.0007187183946371
-0.0069518871605396
-0.0137297762557864
-0.020693190395832
-0.0274446196854114
-0.0336034372448921
-0.0388527922332286
-0.0429703593254089
-0.0458387695252895
-0.0474404580891132
-0.0478438362479209
-0.0471843555569648
-0.045644287019968
-0.04343281686306
-0.0407653003931045
-0.0378430262207984
-0.0348377004265785
-0.0318826548755168
-0.0290676057338714
-0.026435911655426
-0.0239880867302417
-0.0216912850737571
-0.0194915607571601
-0.0173279512673616
-0.0151454769074916
-0.0129031920805573
-0.0105778155848383
-0.0081656798720359
-0.0056836223229765
-0.0031669570598751
-0.0006636461475864
0.0017726820660755
0.0040894257836043
0.0062419748865067
0.0081983739510178
0.0099401976913213
0.0114628160372376
0.0127750523388385
0.0138955805450677
0.014848206192255
0.0156584028154611
0.0163513533771038
0.0169520396739244
0.0174850188195705
0.0179715063422918
0.0184249617159366
0.0188452266156673
0.0192075259983539
0.0194441359490156
0.0194278731942176
0.0189743489027023
0.0178682189434766
0.0159046873450279
0.0129372458904981
0.0089223440736532
0.0039474200457334
-0.0017680233577266
-0.0078982962295413
-0.0140560399740934
-0.0198454055935144
-0.0249143354594707
-0.028994120657444
-0.0319179892539978
-0.0336213186383247
-0.0341315045952796
-0.0335534699261188
-0.032052244991064
-0.0298311561346054
-0.027107847854495
-0.024093210697174
-0.0209744311869144
-0.0179012604057788
-0.0149775352329015
-0.0122597152367234
-0.0097607588395476
-0.0074577173218131
-0.0053029153496026
-0.003236748278141
-0.0011993236839771
0.000859098508954
0.0029693264514207
0.0051402784883975
0.0073623247444629
0.0096123572438955
0.0118588646873831
0.0140656419098377
0.0161932781338691
0.018202718347311
0.0200611185282468
0.0217443071305751
0.0232363753020763
0.024529580026865
0.0256230048835277
0.026520799845457
0.0272317864000797
0.0277690514922142
0.028150301426649
0.028398472815752
0.0285391025245189
0.0285961162298917
0.0285889022052288
0.0285281427204608
0.0284072197973728
0.0281872786581516
0.0277785137295722
0.0270298533141613
0.0257405005395412
0.0236949399113655
0.0207114405930042
0.0166908837854862
0.0116542400792241
0.005758705548942
-0.0007137507200241
-0.0073936870321631
-0.0138767231255769
-0.0197787918150424
-0.0247836429625749
-0.0286719389259815
-0.031328409910202
-0.0327356494963169
-0.0329616889357566
-0.032142050564289
-0.0304601397365331
-0.0281304940581321
-0.0253813304007053
-0.0224319081753492
-0.0194694995880126
-0.0166334584355354
-0.0140071045607328
-0.0116167776286602
-0.0094399508088827
-0.0074208006262779
-0.0054876115173101
-0.0035677626729011
-0.0015995483845472
0.000459250062704
0.0026257205754518
0.0048887301236391
0.0072120977565646
0.0095450915396213
0.0118328416720032
0.0140226921066641
0.0160699728876352
0.0179425682872533
0.019621804356575
0.0211022403091192
0.0223902519792318
0.0234989766031503
0.024444019421935
0.0252427849918603
0.0259120762348175
0.0264595858752727
0.0268677305430173
0.0270718410611152
0.0269451700150966
0.0263046287000179
0.0249386243522167
0.0226518660783767
0.0193189829587936
0.0149303060024976
0.009614584967494
0.0036327857524156
-0.0026565361768007
-0.0088496888056397
-0.014552210457623
-0.0194259490817785
-0.0232225991785526
-0.0257983058691024
-0.0271124131977558
-0.0272180661559104
-0.0262480173259973
-0.0243965201079845
-0.0218981374055147
-0.0190023928880691
-0.0159471333026886
-0.0129371955990791
-0.010128772817552
-0.0076184971258044
-0.0054405629634857
-0.0035712532699108
-0.0019392538815736
-0.000443261116743
0.001027145422995
0.0025729667395353
0.0042704986408352
0.0061611020937561
0.0082472143694758
0.0104936631396412
0.0128354700282216
0.0151908071711659
0.0174735412001609
0.0196034833788871
0.0215149465948343
0.0231629833579063
0.024527333676815
0.0256114825606346
0.0264358893036842
0.0270313583314418
0.0274333730340003
0.0276703927665948
0.0277427490800619
0.0275962334126234
0.0271016545593738
0.0260558538138866
0.0242127478122711
0.0213384237140417
0.017274010926485
0.0119889061897993
0.0056107849813997
-0.0015768543817102
-0.0091702798381447
-0.0167036298662424
-0.0237143244594335
-0.0298010874539613
-0.0346640422940254
-0.0381241887807846
-0.0401245355606079
-0.0407175309956073
-0.0400448180735111
-0.0383137017488479
-0.035772368311882
-0.0326848812401294
-0.0293063037097454
-0.0258599333465099
-0.0225202348083257
-0.0194034650921821
-0.0165656991302967
-0.0140072228386998
-0.0116816703230142
-0.0095100635662674
-0.0073993522673845
-0.0052605844102799
-0.003023506142199
-0.0006471836240962
0.0018757390789687
0.0045212469995021
0.0072398670017719
0.0099650453776121
0.0126224681735038
0.0151386642828583
0.0174489393830299
0.0195045843720436
0.0212780982255935
0.0227653235197067
0.0239847246557474
0.0249741785228252
0.0257846694439649
0.0264708753675222
0.0270801447331905
0.0276413653045892
0.0281512439250946
0.0285527687519788
0.0287111401557922
0.0284066572785377
0.0273590125143528
0.0252790711820125
0.0219344217330217
0.017211589962244
0.0111571904271841
0.0039883777499198
-0.0039285738021135
-0.0121277458965778
-0.0201095230877399
-0.0274063423275947
-0.0336352586746215
-0.0385306477546691
-0.0419549420475959
-0.0438920110464096
-0.0444321408867836
-0.0437523610889911
-0.0420905724167823
-0.0397156327962875
-0.0368984751403331
-0.0338859297335147
-0.0308789275586605
-0.0280178617686033
-0.0253759324550628
-0.0229617916047573
-0.020731832832098
-0.0186074189841747
-0.0164920184761285
-0.014287581667304
-0.0119113270193338
-0.0093117505311965
-0.0064785638824105
-0.0034421833697706
-0.0002647812361828
0.0029709381051361
0.006172536406666
0.0092502254992723
0.0121284583583474
0.0147514389827847
0.0170835256576538
0.0191075876355171
0.020822113379836
0.0222396049648523
0.0233867317438125
0.0243018753826618
0.0250288974493742
0.0256098397076129
0.0260788835585117
0.0264593996107578
0.0267617609351873
0.0269728302955627
0.0270318984985351
0.0268051140010356
0.0260795056819915
0.0245876163244247
0.0220601726323366
0.0182939860969781
0.0132143888622522
0.006913055665791
-0.000347307883203
-0.0081613324582576
-0.0160370804369449
-0.0234664119780063
-0.0299906954169273
-0.0352495163679122
-0.0390101820230484
-0.0411780551075935
-0.0417890809476375
-0.0409892126917839
-0.039006020873785
-0.0361178666353225
-0.0326235257089138
-0.0288122799247503
-0.0249378103762865
-0.0211994349956512
-0.0177303180098533
-0.0145932994782924
-0.0117854373529553
-0.0092506865039467
-0.0068987309932708
-0.0046268254518508
-0.0023400483187288
3.480655141174793e-05
0.0025417003780603
0.0051917857490479
0.0079642012715339
0.010810961946845
0.0136652253568172
0.0164522603154182
0.0190992280840873
0.0215419884771108
0.0237304326146841
0.025631446391344
0.0272289961576461
0.0285228490829467
0.0295264944434165
0.0302648395299911
0.0307714901864528
0.031084643676877
0.0312430616468191
0.0312825813889503
0.0312309637665748
0.0311011672019958
0.0308803487569093
0.0305090472102165
0.0298587325960397
0.0287285074591636
0.0268718115985393
0.0240470953285694
0.0200786869972944
0.0149107510223984
0.0086386632174253
0.0015113092958927
-0.0060939723625779
-0.0137199517339468
-0.0208923872560262
-0.0271815229207277
-0.0322498716413974
-0.035881619900465
-0.037992924451828
-0.0386255457997322
-0.0379283167421817
-0.036130353808403
-0.0335099622607231
-0.0303633213043212
-0.026975005865097
-0.0235920827835798
-0.0204046666622161
-0.0175347402691841
-0.0150333009660243
-0.0128859318792819
-0.0110260341316461
-0.0093526896089315
-0.0077513731084764
-0.0061155268922448
-0.0043626753613352
-0.0024422430433332
-0.0003387089818716
0.0019295094534754
0.0043172081932425
0.006762308999896
0.0091943833976984
0.0115409903228282
0.0137328496202826
0.0157091058790683
0.017421867698431
0.0188393909484148
0.019949022680521
0.0207585524767637
0.0212940368801355
0.0215945448726415
0.0217049848288297
0.021669840440154
0.0215291194617748
0.0213146694004535
0.0210469216108322
0.0207295566797256
0.0203351415693759
0.0197830945253372
0.0189242549240589
0.0175477173179388
0.0154157858341932
0.0123192034661769
0.0081360042095184
0.0028766822069883
-0.0032979641109704
-0.0100892251357436
-0.0170968025922775
-0.0238732248544693
-0.0299867670983076
-0.0350768566131591
-0.038891527801752
-0.0413041040301322
-0.0423105098307132
-0.0420142710208892
-0.0406055748462677
-0.0383346825838089
-0.0354809165000915
-0.0323220156133174
-0.0291069261729717
-0.0260344147682189
-0.0232411585748195
-0.0207975767552852
-0.0187077354639768
-0.0169173032045364
-0.0153316557407379
-0.013837220147252
-0.0123210828751325
-0.0106877107173204
-0.0088703567162156
-0.0068373712711036
-0.0045949877239763
-0.0021848494652658
0.0003250311128795
0.0028528640978038
0.0053146220743656
0.0076337978243827
0.0097497766837477
0.0116225322708487
0.013233482837677
0.0145837934687733
0.015690779313445
0.0165844000875949
0.0173032395541667
0.0178876873105764
0.0183719471096992
0.0187748726457357
0.0190853308886289
0.0192428193986415
0.0191244501620531
0.0185525733977556
0.0173263251781463
0.0152671970427036
0.0122671164572238
0.0083276545628905
0.0035784565843641
-0.0017290355172008
-0.0072499220259487
-0.0125920651480555
-0.0173706840723752
-0.0212588366121053
-0.0240237656980752
-0.0255448222160339
-0.0258149467408657
-0.0249290764331817
-0.0230644419789314
-0.020457113161683
-0.0173736382275819
-0.0140797430649399
-0.0108130322769284
-0.0077623939141631
-0.0050547216087579
-0.0027506882324814
-0.0008485438302159
0.000706048682332
0.0020047789439558
0.0031586242839694
0.0042806426063179
0.0054704127833247
0.006800873670727
0.0083102211356163
0.0100001590326428
0.0118405157700181
0.0137783735990524
0.0157483275979757
0.017682371661067
0.0195177551358938
0.0212015993893146
0.0226944014430046
0.0239732004702091
0.0250327847898006
0.0258837565779685
0.0265467725694179
0.0270429607480764
0.0273782648146152
0.0275205485522747
0.0273792780935764
0.0268036015331745
0.0256057754158973
0.0236037448048591
0.0206703543663024
0.0167760737240314
0.0120142502710223
0.0066030034795403
0.0008625895716249
-0.0048288656398653
-0.0100906230509281
-0.0145896561443805
-0.0180755723267793
-0.0203984826803207
-0.0215131305158138
-0.0214731246232986
-0.0204175133258104
-0.0185508821159601
-0.0161169357597827
-0.013368921354413
-0.010544691234827
-0.0078474432229995
-0.0054279840551316
-0.0033726603724062
-0.0017028450965881
-0.0003827046602964
0.0006681755185127
0.0015567950904369
0.0023971726186573
0.0032939193770289
0.0043289633467793
0.0055517409928143
0.006974590010941
0.0085738813504576
0.0102964276447892
0.0120696332305669
0.0138132628053426
0.0154495490714907
0.0169098488986492
0.018139686435461
0.0191035121679306
0.0197890792042017
0.020208865404129
0.0203935168683528
0.0203771628439426
0.020177025347948
0.0197673439979553
0.0190561637282371
0.0178833547979593
0.0160485748201608
0.013359872624278
0.0096864672377705
0.0050033926963806
-0.0005803070962429
-0.0068192724138498
-0.0133600831031799
-0.0197920128703117
-0.0257055442780256
-0.0307462662458419
-0.0346546396613121
-0.0372851490974426
-0.0386058017611503
-0.0386855043470859
-0.0376747474074363
-0.0357824526727199
-0.0332516618072986
-0.030335521325469
-0.027274465188384
-0.0242752935737371
-0.0214944593608379
-0.0190284252166748
-0.0169105306267738
-0.0151150487363338
-0.0135700441896915
-0.0121749304234981
-0.0108183659613132
-0.0093951718881726
-0.0078201573342084
-0.0060380161739885
-0.0040298793464899
-0.0018147658556699
0.0005557360127568
0.0030071686487644
0.0054534347727894
0.0078089204616844
0.0100001934915781
0.0119746290147304
0.0137032177299261
0.0151775358244776
0.0164053104817867
0.0174072366207838
0.0182129144668579
0.0188557524234056
0.0193676520138978
0.0197676233947277
0.0200383067131042
0.0200978741049766
0.0197857730090618
0.0188759770244359
0.0171191915869712
0.0143036637455224
0.0103150764480233
0.0051779244095087
-0.0009286305867135
-0.0076819686219096
-0.0146542517468333
-0.021370967850089
-0.027376128360629
-0.0322892628610134
-0.0358431115746498
-0.0379000082612037
-0.0384514927864074
-0.0376048982143402
-0.0355603620409965
-0.0325823947787284
-0.0289686135947704
-0.0250175241380929
-0.0209993533790111
-0.0171338655054569
-0.0135743413120508
-0.0103986011818051
-0.0076124463230371
-0.0051636882126331
-0.0029596891254186
-0.0008862633258104
0.0011732503771781
0.0033205822110176
0.0056273192167282
0.0081254923716187
0.0108073344454169
0.0136308819055557
0.0165271405130624
0.0194108095020055
0.0221945866942405
0.0248003490269184
0.0271656475961208
0.0292476546019315
0.031023796647787
0.0324906483292579
0.0336626917123794
0.0345690250396728
0.0352462492883205
0.0357249081134796
0.0360063724219799
0.0360342860221862
0.0356751270592212
0.0347229428589344
0.032932698726654
0.0300753880292177
0.0260003209114074
0.0206867381930351
0.0142715908586978
0.0070476145483553
-0.0005701836198568
-0.0081029934808611
-0.015073949471116
-0.0210653077811002
-0.0257605332881212
-0.0289692878723144
-0.0306347180157899
-0.0308250077068805
-0.0297131463885307
-0.0275494754314422
-0.0246307924389839
-0.0212675854563713
-0.0177512243390083
-0.0143259419128298
-0.0111704692244529
-0.0083893621340394
-0.0060120485723018
-0.0040008714422583
-0.0022682510316371
-0.0006979275494813
0.0008340459316968
0.0024389922618865
0.0041976757347583
0.0061505576595664
0.0082984464243054
0.0106081580743193
0.0130199342966079
0.0154563449323177
0.0178311020135879
0.0200590305030345
0.0220666117966175
0.0237988792359828
0.0252235606312751
0.026333000510931
0.0271400306373834
0.0276703331619501
0.0279580168426036
0.0280436258763074
0.0279698874801397
0.0277752038091421
0.0274851433932781
0.0270949117839336
0.0265401545912027
0.0256729871034622
0.0242645926773548
0.0220393761992454
0.0187339056283235
0.014167015440762
0.0083004487678408
0.0012719864025712
-0.0066072633489966
-0.0148906633257865
-0.0230590514838695
-0.0305931232869625
-0.0370404012501239
-0.0420646294951438
-0.0454700514674186
-0.0472041741013526
-0.0473471842706203
-0.046090442687273
-0.0437065698206424
-0.0405161827802658
-0.0368534177541732
-0.0330316722393035
-0.0293139796704053
-0.0258912798017263
-0.0228698849678039
-0.0202706269919872
-0.0180403608828783
-0.0160733275115489
-0.0142384311184287
-0.0124050145968794
-0.0104614589363336
-0.0083285076543688
-0.0059684934094548
-0.0033860690891742
-0.0006202552467584
0.0022646852303296
0.005186750087887
0.0080566201359033
0.0107899326831102
0.013315686956048
0.0155804520472884
0.0175508316606283
0.0192147698253393
0.0205803383141756
0.0216706432402133
0.0225151870399713
0.0231373514980077
0.0235355030745267
0.0236579775810241
0.0233819019049406
0.0225124880671501
0.0208123624324798
0.0180550590157508
0.0140870679169893
0.0088823456317186
0.0025751856155693
-0.0045382129028439
-0.0120313894003629
-0.0194054506719112
-0.0261588618159294
-0.0318530797958374
-0.0361608415842056
-0.0388912111520767
-0.0399951264262199
-0.0395575836300849
-0.0377770066261291
-0.0349333882331848
-0.0313515961170196
-0.0273643601685762
-0.0232783146202564
-0.0193466506898403
-0.0157490652054548
-0.0125809423625469
-0.009854519739747
-0.0075108632445335
-0.0054407799616456
-0.0035113710910081
-0.0015909653156995
0.0004320368170738
0.002636625431478
0.005061354022473
0.0077005065977573
0.010507876984775
0.0134086217731237
0.016313461586833
0.0191308967769145
0.0217764712870121
0.0241808854043483
0.0262971445918083
0.0281023886054754
0.0295917466282844
0.0307619683444499
0.0315828695893287
0.0319679453969001
0.0317641980946064
0.030770931392908
0.028784554451704
0.0256575793027877
0.0213537141680717
0.0159819703549146
0.0098007293418049
0.0031914128921926
-0.0033921529538929
-0.0094870645552873
-0.0146818235516548
-0.0186605118215084
-0.0212261136621236
-0.0223069619387388
-0.0219529718160629
-0.0203238651156425
-0.0176667030900716
-0.0142828589305281
-0.0104901622980833
-0.0065876166336238
-0.0028271577320992
0.0006066183559596
0.0036070977803319
0.0061448062770068
0.0082577057182788
0.0100362375378608
0.0116034839302301
0.0130915930494666
0.014618694782257
0.0162717644125223
0.018097860738635
0.0201013423502445
0.0222457330673933
0.0244618132710456
0.0266604255884885
0.028746698051691
0.0306340046226978
0.0322551354765892
0.0335683561861515
0.0345576778054237
0.0352273099124431
0.0355907939374446
0.0356524586677551
0.0353807434439659
0.034683957695961
0.0334042124450206
0.0313397049903869
0.0282925572246313
0.0241269562393426
0.0188205018639564
0.0124955661594867
0.0054208785295486
-0.0020184703171253
-0.00937529373914
-0.01620514690876
-0.0221241824328899
-0.0268471930176019
-0.0302058532834053
-0.032151810824871
-0.0327463783323764
-0.0321412906050682
-0.0305560119450092
-0.0282530933618545
-0.0255112424492836
-0.0225977450609207
-0.0197434872388839
-0.0171220153570175
-0.0148357097059488
-0.0129150701686739
-0.0113300075754523
-0.0100052915513515
-0.0088378600776195
-0.0077175386250019
-0.0065471492707729
-0.0052568707615137
-0.0038124807178974
-0.002216700464487
-0.0005030594766139
0.0012731663882732
0.0030440054833889
0.0047389343380928
0.0062947589904069
0.0076621659100055
0.0088078007102012
0.0097136422991752
0.0103767476975917
0.0108091458678245
0.0110349841415882
0.0110858529806137
0.0109945982694625
0.0107824057340621
0.0104372464120388
0.0098910667002201
0.0090075843036174
0.0075921826064586
0.0054281428456306
0.0023309886455535
-0.0017955340445041
-0.0069187209010124
-0.012863153591752
-0.0193277932703495
-0.0259273741394281
-0.0322452820837497
-0.0378877073526382
-0.0425309427082538
-0.0459528937935829
-0.0480454564094543
-0.0488113388419151
-0.0483499988913536
-0.0468360856175422
-0.0444929972290992
-0.0415657572448253
-0.0382977649569511
-0.0349110141396522
-0.0315873846411705
-0.0284547079354524
-0.0255815330892801
-0.0229793954640626
-0.0206125508993864
-0.0184140224009752
-0.0163029469549655
-0.0142016112804412
-0.0120502524077892
-0.0098146880045533
-0.0074869990348815
-0.005082968622446
-0.0026373770087957
-0.0001980606466531
0.0021802997216582
0.0044430624693632
0.0065425494685769
0.0084440866485238
0.0101300161331892
0.0115993907675147
0.0128645449876785
