bvp
0.011449116282165
0.0107580488547682
0.0096654761582613
0.0080565111711621
0.0058545842766761
0.0030440166592597
-0.0003187749534845
-0.0041068503633141
-0.0081370342522859
-0.012194313108921
-0.0160602685064077
-0.0195382535457611
-0.0224715620279312
-0.0247539319097995
-0.0263321623206138
-0.0272027254104614
-0.0274058543145656
-0.0270178504288196
-0.026140809059143
-0.0248904358595609
-0.0233832374215126
-0.0217255838215351
-0.0200073104351758
-0.0182982310652732
-0.0166447572410106
-0.0150683252140879
-0.0135677652433514
-0.0121240932494401
-0.0107061620801687
-0.0092778336256742
-0.0078059677034616
-0.0062666945159435
-0.0046492265537381
-0.0029568634927272
-0.0012039066059514
0.0005887488368898
0.0023952876217663
0.0041857622563838
0.0059291832149028
0.0075974352657794
0.0091685447841882
0.0106294881552457
0.0119761694222688
0.0132096456363797
0.0143324565142393
0.0153471576049923
0.0162560567259788
0.0170609392225742
0.0177624728530645
0.0183609910309314
0.0188585370779037
0.0192595012485981
0.0195692908018827
0.0197922233492136
0.0199306104332208
0.0199857726693153
0.0199577864259481
0.0198391024023294
0.0196013208478689
0.0191837642341852
0.0184947494417428
0.0174270011484622
0.0158806014806032
0.0137877352535724
0.0111347297206521
0.0079731922596693
0.0044159926474094
0.0006233737803995
-0.0032154971268028
-0.0069037470966577
-0.0102583598345518
-0.0131288040429353
-0.0154092963784933
-0.0170426201075315
-0.0180179458111524
-0.0183675345033407
-0.0181617066264152
-0.0174987483769655
-0.0164924897253513
-0.0152616528794169
-0.0139198871329426
-0.0125648882240057
-0.0112686585634946
-0.0100722266361117
-0.0089859282597899
-0.0079946275800466
-0.0070665720850229
-0.0061628022231161
-0.0052438862621784
-0.0042740991339087
-0.0032264357432723
-0.0020888885483145
-0.0008671972900629
0.0004184448625892
0.0017395893810316
0.003064579097554
0.0043615801259875
0.0056018168106675
0.0067636258900165
0.0078341513872146
0.0088072726503014
0.0096806362271308
0.0104544349014759
0.0111321723088622
0.0117225535213947
0.0122397514060139
0.0126984883099794
0.0131068713963031
0.0134632503613829
0.0137544320896267
0.0139495879411697
0.0139925936236977
0.0138003416359424
0.0132719101384282
0.0123079717159271
0.010835662484169
0.0088308630511164
0.0063293832354247
0.0034256249200552
0.0002629437949508
-0.0029829288832843
-0.0061270482838153
-0.0089991372078657
-0.0114606758579611
-0.0134138613939285
-0.0148049984127283
-0.0156237641349434
-0.0158995408564806
-0.0156949218362569
-0.015095368027687
-0.0141970422118902
-0.0130959656089544
-0.0118795856833457
-0.0106210215017199
-0.009374838322401
-0.0081737618893384
-0.007029125932604
-0.0059356167912483
-0.004876404069364
-0.0038271252997219
-0.0027602806221693
-0.0016507501713931
-0.000481333816424
0.0007534811738878
0.0020457827486097
0.0033748345449566
0.0047112377360463
0.0060230121016502
0.0072787208482623
0.0084473555907607
0.0095013082027435
0.0104236099869012
0.0112121719866991
0.0118765020743012
0.0124311475083231
0.01289186719805
0.0132743902504444
0.0135923214256763
0.013852434232831
0.0140466392040252
0.014142001979053
0.014074582606554
0.0137529345229268
0.0130721507593989
0.0119354669004678
0.0102779809385538
0.0080859251320362
0.0054067051969468
0.0023472283501178
-0.0009392392821609
-0.0042735887691378
-0.0074735917150974
-0.0103754494339227
-0.0128501085564494
-0.014811236411333
-0.0162165854126214
-0.0170648135244846
-0.0173886213451623
-0.0172468163073062
-0.0167166255414485
-0.0158862024545669
-0.0148478280752897
-0.0136906979605555
-0.0124932313337922
-0.0113174356520175
-0.0102054746821522
-0.0091772638261318
-0.0082311993464827
-0.0073496680706739
-0.0065062372013926
-0.0056708115153014
-0.0048134257085621
-0.0039089634083211
-0.0029412212315946
-0.0019036487210541
-0.0007989760488271
0.0003593228757381
0.001546585233882
0.0027310051955282
0.0038797841407358
0.0049640662036836
0.0059626949951052
0.0068652471527457
0.0076731503941118
0.0083968937397003
0.0090495087206363
0.0096381409093737
0.0101541327312588
0.0105636194348335
0.0108027746900916
0.0107811791822314
0.0103962998837232
0.0095558101311326
0.0081994887441396
0.0063170962966978
0.0039587845094501
0.0012336031068116
-0.0017024951521307
-0.004666646476835
-0.0074744704179465
-0.0099628726020455
-0.0120039479807019
-0.0135111873969435
-0.0144413979724049
-0.0147945322096347
-0.01461061835289
-0.0139615256339311
-0.0129394605755805
-0.0116470754146575
-0.0101896533742547
-0.0086653511971235
-0.007154160644859
-0.0057117072865366
-0.0043694665655493
-0.0031375004909932
-0.0020081917755305
-0.0009615719318389
2.9496382921934128e-05
0.0009957617148756
0.0019679111428558
0.0029708915390074
0.0040185078978538
0.0051126610487699
0.0062463944777846
0.00740572437644
0.0085701318457722
0.0097163217142224
0.0108247138559818
0.0118829915300011
0.0128857232630252
0.0138355176895856
0.0147480852901935
0.0156556703150272
0.0166022554039955
0.0176293198019266
0.0187566243112087
0.0199663061648607
0.0211978759616613
0.0223557837307453
0.0233257375657558
0.0239948164671659
0.0242703892290592
0.0240950342267751
0.0234559383243322
0.0223847962915897
0.0209474824368953
0.0192278865724802
0.0173099488019943
0.01526331435889
0.0131384544074535
0.010971050709486
0.008790785446763
0.0066288951784372
0.0045199831947684
0.0024996353313326
0.0006011966615915
-0.0011500744149088
-0.0027446206659078
-0.0041930694133043
-0.0055265990085899
-0.0067922011949121
-0.0080405520275235
-0.009310632944107
-0.0106188738718628
-0.0119568919762969
-0.0132979173213243
-0.0146077368408441
-0.0158527977764606
-0.017003433778882
-0.0180363822728395
-0.0189366620033979
-0.0196958966553211
-0.0203096289187669
-0.0207766909152269
-0.0210993476212024
-0.0212828982621431
-0.0213343128561973
-0.0212596636265516
-0.021061522886157
-0.0207380484789609
-0.0202844850718975
-0.019696906208992
-0.0189800783991813
-0.0181619450449943
-0.0173095948994159
-0.0165345072746276
-0.0159804280847311
-0.0157987531274557
-0.0161212123930454
-0.0170347485691308
-0.0185591503977775
-0.0206338670104742
-0.023122938349843
-0.0258358847349882
-0.0285549238324165
-0.0310627277940511
-0.0331660434603691
-0.0347099490463733
-0.0355847887694835
-0.0357315316796302
-0.035144779831171
-0.0338695980608463
-0.0319924280047416
-0.0296289809048175
-0.0269108619540929
-0.0239721871912479
-0.0209370013326406
-0.017907191067934
-0.0149523429572582
-0.0121062044054269
-0.0093709249049425
-0.0067254472523927
-0.0041359141469001
-0.0015663783997297
0.0010134410113096
0.0036232993006706
0.0062699411064386
0.0089491959661245
0.0116509757936
0.0143625531345605
0.0170682277530431
0.0197475720196962
0.0223768502473831
0.0249338503926992
0.0274018142372369
0.0297720432281494
0.0320456139743328
0.0342290885746479
0.036320935934782
0.0382946208119392
0.0400873459875583
0.0415991097688674
0.0427031740546226
0.0432655103504657
0.0431684479117393
0.0423349663615226
0.0407486967742443
0.0384616367518901
0.0355872474610805
0.0322854109108448
0.0287447962909936
0.0251637808978557
0.0217312946915626
0.0186090283095836
0.015917282551527
0.0137283494696021
0.012067555449903
0.0109190428629517
0.0102342888712883
0.0099405338987708
0.0099489921703934
0.0101658795028924
0.0105038667097687
0.010890400968492
0.0112747494131326
0.0116336140781641
0.0119704995304346
0.0123080667108297
0.0126786455512046
0.0131166530773043
0.0136525118723511
0.0143065247684717
0.0150817595422267
0.0159582048654556
0.0168936513364315
0.01783262565732
0.01871844753623
0.0195029824972152
0.0201512910425663
0.0206422414630651
0.0209678653627634
0.021131994202733
0.0211478918790817
0.0210347641259431
0.0208108406513929
0.0204814374446868
0.0200252551585435
0.0193852707743644
0.0184702798724174
0.0171680431813001
0.0153661156073212
0.0129768345504999
0.0099619030952453
0.0063489051535725
0.0022334028035402
-0.0022338964045047
-0.0068686297163367
-0.0114760696887969
-0.015872836112976
-0.0199039075523614
-0.0234513506293296
-0.0264350287616252
-0.0288099702447652
-0.0305642392486333
-0.0317173078656196
-0.0323157720267772
-0.0324251689016819
-0.0321210473775863
-0.0314811989665031
-0.0305787026882171
-0.0294767413288354
-0.0282251741737127
-0.0268585234880447
-0.0253969654440879
-0.0238491687923669
-0.0222148820757865
-0.0204896219074726
-0.0186716224998235
-0.0167663265019655
-0.0147873666137456
-0.0127557013183832
-0.0106975706294178
-0.0086431037634611
-0.0066252835094928
-0.0046770581975579
-0.0028280261904001
-0.0011034738272428
0.0004748944193124
0.0018888451159
0.0031243991106748
0.0041728410869836
0.0050324015319347
0.0057104211300611
0.0062228441238403
0.0065876487642526
0.0068129077553749
0.0068841092288494
0.0067576020956039
0.0063658338040113
0.0056335981935262
0.0044980887323617
0.0029251724481582
0.0009201578795909
-0.0014671813696622
-0.0041459463536739
-0.0069952700287103
-0.0098791662603616
-0.0126612754538655
-0.0152174672111868
-0.0174450520426034
-0.0192682314664125
-0.0206418763846158
-0.0215529054403305
-0.0220162309706211
-0.0220686290413141
-0.0217642504721879
-0.0211682487279176
-0.0203464068472385
-0.0193559620529413
-0.0182429738342762
-0.017044223845005
-0.0157883130013942
-0.0144956400617957
-0.0131799783557653
-0.0118505433201789
-0.0105119422078132
-0.0091630779206752
-0.0077982190996408
-0.0064113633707165
-0.0050006862729787
-0.0035695023834705
-0.002125758677721
-0.0006823558360338
0.0007441695779561
0.0021361354738473
0.0034747505560517
0.0047391196712851
0.00590839702636
0.0069664716720581
0.0079047447070479
0.0087220231071114
0.0094233946874737
0.0100188283249735
0.0105220414698123
0.0109484447166323
0.0113100362941622
0.0116080064326524
0.011825649999082
0.0119249206036329
0.0118483696132898
0.0115253003314137
0.010881551541388
0.0098526291549205
0.0083980737254023
0.0065142894163727
0.0042423093691468
0.0016670599579811
-0.0010916925966739
-0.0038938173092901
-0.0065962080843746
-0.0090695107355713
-0.0112100634723901
-0.0129456678405404
-0.0142360441386699
-0.0150698833167552
-0.0154607063159346
-0.0154429785907268
-0.0150687685236334
-0.0144033338874578
-0.0135178882628679
-0.0124811846762895
-0.0113530429080128
-0.0101806307211518
-0.0089965313673019
-0.0078182490542531
-0.0066501377150416
-0.0054876767098903
-0.0043216892518103
-0.0031411685049533
-0.0019366334890946
-0.0007042941870167
0.0005524454754777
0.0018241233192384
0.0030961835291236
0.0043506184592843
0.0055692233145236
0.0067374724894762
0.0078466441482305
0.0088913412764668
0.00986516661942
0.0107603603973984
0.0115711847320199
0.0122959651052951
0.0129357706755399
0.0134921446442604
0.0139664327725768
0.0143616897985339
0.0146852359175682
0.0149471517652273
0.0151538653299212
0.0153018599376082
0.0153737412765622
0.0153347663581371
0.0151314344257116
0.0146963922306895
0.0139601333066821
0.0128665901720523
0.0113879311829805
0.0095329405739903
0.007347852922976
0.0049131507985293
0.002336743986234
-0.0002583242021501
-0.0027492076624184
-0.0050272801890969
-0.0070077097043395
-0.0086335819214582
-0.009876599535346
-0.0107351709157228
-0.0112291211262345
-0.0113929193466901
-0.0112707624211907
-0.0109143443405628
-0.0103805270045995
-0.0097261229529976
-0.0090001551434397
-0.0082376347854733
-0.0074589061550796
-0.0066729797981679
-0.0058803497813642
-0.0050747925415635
-0.0042467750608921
-0.0033882658462971
-0.0024954350665211
-0.0015678957570344
-0.000607289141044
0.0003818492405116
0.0013903778744861
0.0024047675542533
0.003408514894545
0.0043835514225065
0.0053114891052246
0.0061743562109768
0.0069559440016746
0.0076447078026831
0.0082361968234181
0.0087328450754284
0.0091421622782945
0.0094751426950097
0.0097446991130709
0.0099635533988475
0.0101420516148209
0.0102871619164943
0.0104021336883306
0.0104855541139841
0.0105327339842915
0.0105399489402771
0.0105066047981381
0.0104346890002489
0.0103268604725599
0.0101822018623352
0.0099911745637655
0.0097305430099368
0.0093591706827282
0.0088197765871882
0.0080472873523831
0.0069802021607756
0.0055736475624144
0.0038116625510156
0.0017152689397335
-0.000655501615256
-0.0032064814586192
-0.0058206501416862
-0.0083739217370748
-0.010751400142908
-0.0128591358661651
-0.0146295418962836
-0.0160215906798839
-0.0170190334320068
-0.0176294781267642
-0.0178820546716451
-0.0178220365196466
-0.0175047609955072
-0.0169892702251672
-0.0163312572985887
-0.0155771141871809
-0.0147620225325226
-0.0139122679829597
-0.0130473207682371
-0.0121785895898938
-0.0113066397607326
-0.0104210255667567
-0.0095049086958169
-0.0085415374487638
-0.0075191706418991
-0.0064349668100476
-0.0052968403324484
-0.0041207792237401
-0.0029259440489113
-0.0017313240095973
-0.0005544032901525
0.0005888431333005
0.0016849259845912
0.0027261243667453
0.0037110745906829
0.0046401396393775
0.0055115707218647
0.0063226344063878
0.0070728962309658
0.0077650980092585
0.0084027983248233
0.0089875031262636
0.009517328813672
0.0099880211055278
0.0103959739208221
0.0107413800433278
0.0110294008627533
0.0112679954618215
0.0114645352587103
0.0116242133080959
0.0117498589679598
0.0118428599089384
0.0119048506021499
0.0119375698268413
0.0119411740452051
0.0119123179465532
0.0118388449773192
0.0116914687678217
0.0114196874201297
0.0109565826132893
0.0102309864014387
0.0091817658394575
0.0077699241228401
0.0059882034547626
0.0038675675168633
0.0014774093870073
-0.0010820857714861
-0.0036936597898602
-0.0062383278273046
-0.0086070355027914
-0.0107071800157427
-0.0124678583815693
-0.0138466944918036
-0.0148345753550529
-0.0154529511928558
-0.0157447438687086
-0.0157645996659994
-0.015571653842926
-0.0152230877429246
-0.0147677799686789
-0.0142430067062377
-0.0136742144823074
-0.0130750928074121
-0.0124476328492164
-0.0117835970595479
-0.0110680628567934
-0.0102838687598705
-0.0094154719263315
-0.0084524005651474
-0.0073929852806031
-0.006247270386666
-0.0050368779338896
-0.0037916931323707
-0.0025442065671086
-0.0013222219422459
-0.0001437850296497
0.000981826800853
0.0020497478544712
0.0030569280497729
0.0040027764625847
0.0048908884637057
0.0057278526946902
0.0065201497636735
0.0072740372270345
0.0079953372478485
0.0086856661364436
0.0093407426029443
0.0099528394639492
0.010513330809772
0.0110142407938838
0.0114502254873514
0.0118205472826957
0.012128947302699
0.0123815918341279
0.0125848948955535
0.0127439126372337
0.0128621961921453
0.0129430033266544
0.0129893478006124
0.0130025837570428
0.012980873696506
0.0129148559644818
0.0127803673967719
0.012533999979496
0.0121137565001845
0.0114443683996796
0.0104488404467701
0.0090659167617559
0.0072693601250648
0.0050811804831027
0.0025722729042172
-0.0001476618926972
-0.0029452675953507
-0.0056798476725816
-0.0082185482606291
-0.0104501731693744
-0.0122958151623606
-0.0137129547074437
-0.0146938534453511
-0.0152616268023848
-0.0154651142656803
-0.0153710292652249
-0.0150534892454743
-0.0145834665745496
-0.0140193998813629
-0.013401698321104
-0.0127538722008466
-0.0120869791135191
-0.0114032253623008
-0.0106982085853815
-0.0099618658423423
-0.0091794161126017
-0.0083350064232945
-0.0074173142202198
-0.0064240838401019
-0.0053633688949048
-0.0042508048936724
-0.0031050350517034
-0.0019433447159826
-0.0007794466800987
0.0003746789880096
0.0015054754912853
0.0025979308411478
0.0036397175863385
0.0046244179829955
0.0055497074499726
0.0064139761961996
0.0072162416763603
0.0079567842185497
0.0086358021944761
0.0092529794201254
0.0098093692213296
0.0103085963055491
0.0107548525556921
0.0111502297222614
0.0114951413124799
0.0117901694029569
0.012036170810461
0.0122331157326698
0.0123799247667193
0.0124762542545795
0.0125246103852987
0.0125306174159049
0.0125007946044206
0.0124372188001871
0.0123284999281167
0.0121401483193039
0.0118112731724977
0.0112618608400225
0.0104083577170968
0.0091820806264877
0.0075445598922669
0.0054965941235423
0.0030819552484899
0.0003863575984723
-0.0024695235770195
-0.0053438660688698
-0.0080925859510898
-0.0105868000537157
-0.0127236116677522
-0.0144320875406265
-0.015677772462368
-0.0164638664573431
-0.0168258715420961
-0.0168217159807682
-0.0165217816829681
-0.0160010606050491
-0.0153335090726614
-0.0145860463380813
-0.0138105219230055
-0.0130374999716877
-0.012276635505259
-0.0115227308124303
-0.0107622360810637
-0.0099767781794071
-0.0091447131708264
-0.0082439538091421
-0.0072574829682707
-0.0061788451857864
-0.0050147012807428
-0.0037842658348381
-0.0025151274167001
-0.0012359907850623
2.880627289414405e-05
0.0012604384683072
0.0024453117512166
0.0035742202308028
0.0046400153078138
0.005636278539896
0.0065586934797465
0.0074065318331122
0.0081820609048008
0.0088882092386484
0.0095260459929704
0.0100948866456747
0.0105954091995954
0.0110315755009651
0.0114092119038105
0.0117341531440615
0.0120116518810391
0.0122460294514894
0.0124406050890684
0.0125971008092165
0.012711570598185
0.0127666071057319
0.0127245727926492
0.0125274546444416
0.0121049992740154
0.0113885244354605
0.0103262141346931
0.008896074257791
0.0071145701222121
0.0050398707389831
0.0027681104838848
0.0004239401314407
-0.0018495940603315
-0.0039009461179375
-0.0055842408910393
-0.0067763393744826
-0.0073898136615753
-0.0073797605000436
-0.0067470725625753
-0.0055409101769328
-0.0038611229974776
-0.0018586971564218
0.0002647491637617
0.0022507298272103
0.0037684924900531
0.0044040735810995
0.0036729769781231
0.0010703559964895
-0.0038410315755754
-0.0113329030573368
-0.0214397795498371
-0.0339220985770225
-0.0482575856149196
-0.0636640563607215
-0.0791490152478218
-0.0935670211911201
-0.1056928560137748
-0.1143470630049705
-0.1185719519853591
-0.1178013160824775
-0.1119722127914428
-0.1015557870268821
-0.0874888747930526
-0.0710055604577064
-0.0534140020608902
-0.0358887873589992
-0.019333116710186
-0.0043309219181537
0.0088244527578353
0.0200621467083692
0.0294619929045438
0.0371929183602333
0.043461300432682
0.0484653487801551
0.0523522160947322
0.0551901794970035
0.0569755733013153
0.0576732978224754
0.05727069824934
0.0558239370584487
0.0534825474023819
0.0504910200834274
0.0471815057098865
0.0439710654318332
0.0413575358688831
0.039894551038742
0.0401348918676376
0.0425518527626991
0.0474622957408428
0.0549653768539428
0.0648920983076095
0.0767694935202598
0.0898261219263076
0.1030594855546951
0.1153577715158462
0.1256460398435592
0.1330240368843078
0.1368718743324279
0.1369075924158096
0.1331952959299087
0.1261198818683624
0.1163390055298805
0.1047062426805496
0.0921636968851089
0.0796212553977966
0.06784687936306
0.0573862344026565
0.0485239028930664
0.0412906631827354
0.0355099141597747
0.0308665409684181
0.0269794948399066
0.0234663523733615
0.0199964344501495
0.0163289420306682
0.0123298056423664
0.0079658888280391
0.0032819136977195
-0.0016304701566696
-0.006663504987955
-0.0117210634052753
-0.01674260571599
-0.0217183902859687
-0.0266882739961147
-0.0317242965102195
-0.0369059555232524
-0.0422960557043552
-0.0479212030768394
-0.053761851042509
-0.0597532913088798
-0.0657929927110672
-0.0717511102557182
-0.0774827003479003
-0.0828380137681961
-0.0876703038811683
-0.0918441042304039
-0.0952466577291488
-0.0978021025657653
-0.0994834527373313
-0.1003170311450958
-0.1003805771470069
-0.0997974947094917
-0.0987266227602958
-0.0973469689488411
-0.0958384275436401
-0.0943596437573432
-0.0930267125368118
-0.0918983295559883
-0.0909722745418548
-0.0901939496397972
-0.0894716754555702
-0.0886938944458961
-0.087747149169445
-0.0865335464477539
-0.0849843844771385
-0.0830659121274948
-0.0807765498757362
-0.0781395733356475
-0.0751947313547134
-0.0719898417592048
-0.068572849035263
-0.0649849623441696
-0.061255395412445
-0.0574008710682392
-0.0534331314265728
-0.0493716076016426
-0.0452545061707496
-0.0411434806883335
-0.0371199175715446
-0.0332736298441886
-0.029685653746128
-0.0264095477759838
-0.023457683622837
-0.0207947418093681
-0.0183391645550727
-0.0159742347896099
-0.013566754758358
-0.0109879709780216
-0.0081308782100677
-0.0049203000962734
-0.0013155303895473
0.0026916377246379
0.0070802979171276
0.0118058323860168
0.0168066881597042
0.0220083892345428
0.0273254290223121
0.0326650999486446
0.0379348322749137
0.0430522933602333
0.0479543879628181
0.0526005402207374
0.0569691583514213
0.0610501244664192
0.0648379102349281
0.0683275610208511
0.0715138465166091
0.0743934959173202
0.0769675225019455
0.079242318868637
0.0812298357486724
0.0829444676637649
0.0843983367085456
0.0856006667017936
0.0865608975291252
0.0872911289334297
0.0878038257360458
0.0881025791168212
0.0881711393594741
0.087969496846199
0.087438479065895
0.086510993540287
0.0851287916302681
0.0832599326968193
0.0809104740619659
0.0781284719705581
0.0750001072883606
0.0716375783085823
0.0681607723236084
0.064678207039833
0.0612732134759426
0.0579981803894043
0.0548754967749118
0.0519005432724952
0.0490432307124137
0.0462504923343658
0.0434536300599575
0.0405798889696598
0.0375661700963974
0.0343709141016006
0.0309773162007331
0.0273878276348114
0.0236167386174201
0.0196848344057798
0.0156174106523394
0.0114462077617645
0.007213020697236
0.0029720049351453
-0.0012109777890145
-0.005264513194561
-0.0091221453621983
-0.0127302128821611
-0.0160489231348037
-0.019048536196351
-0.0217042565345764
-0.0239938236773014
-0.0259008333086967
-0.027421111240983
-0.0285656303167343
-0.0293597560375928
-0.0298442859202623
-0.030078524723649
-0.0301405414938926
-0.030122997239232
-0.0301266759634017
-0.0302516371011734
-0.0305845886468887
-0.0311859101057052
-0.032080914825201
-0.0332561209797859
-0.0346618890762329
-0.0362212173640728
-0.0378399677574634
-0.0394174195826053
-0.0408587753772735
-0.0420862287282943
-0.0430444665253162
-0.0437004044651985
-0.0440392270684242
-0.044058434665203
-0.0437615998089313
-0.0431552827358245
-0.0422501750290393
-0.0410629361867904
-0.0396154820919036
-0.0379327163100242
-0.0360411964356899
-0.03396862372756
-0.0317436158657074
-0.0293958447873592
-0.0269533190876245
-0.0244365558028221
-0.0218575224280357
-0.0192259587347507
-0.01655456982553
-0.0138583993539214
-0.0111528858542442
-0.0084542809054255
-0.0057818060740828
-0.0031591281294822
-0.0006123092025518
0.0018345210701227
0.0041611669585108
0.0063508814200758
0.0083911325782537
0.0102768084034323
0.0120122721418738
0.0136077087372541
0.01507184561342
0.0164081081748008
0.0176152773201465
0.0186873357743024
0.0196109190583229
0.0203647017478942
0.0209236741065979
0.0212658494710922
0.0213774554431438
0.021255400031805
0.0209075864404439
0.0203520990908145
0.0196163952350616
0.0187365394085645
0.0177547894418239
0.0167137756943702
0.0156495235860347
0.0145887862890958
0.0135518480092287
0.0125553309917449
0.0116108171641826
0.0107226427644491
0.0098886601626873
0.0090994872152805
0.0083310045301914
0.0075350664556026
0.0066375248134136
0.0055463686585426
0.0041655786335468
0.0024098921567201
0.0002208109945058
-0.0024180300533771
-0.0054720714688301
-0.0088541284203529
-0.0124305598437786
-0.016038617119193
-0.019509982317686
-0.022692522034049
-0.025467000901699
-0.0277553666383028
-0.0295198410749435
-0.0307584274560213
-0.0315012857317924
-0.0318068601191043
-0.0317541249096393
-0.0314298495650291
-0.0309150870889425
-0.0302759893238544
-0.0295596290379762
-0.028792817145586
-0.0279844403266906
-0.0271306801587343
-0.0262183994054794
-0.0252261385321617
-0.0241272430866956
-0.0228960178792476
-0.0215143598616123
-0.0199775472283363
-0.01829762943089
-0.0165021531283855
-0.0146281849592924
-0.0127150379121303
-0.0107993083074688
-0.0089131090790033
-0.007084235548973
-0.0053352871909737
-0.0036809982266277
-0.0021266262046992
-0.0006678402423858
0.0007085818797349
0.002021066378802
0.0032867733389139
0.0045168660581111
0.0057163527235388
0.0068865977227687
0.0080269407480955
0.009134342893958
0.0102028166875243
0.011224596761167
0.0121924011036753
0.0131003465503454
0.0139433993026614
0.014716075733304
0.0154100218787789
0.0160127598792314
0.016510484740138
0.016892647370696
0.0171536616981029
0.0172921530902385
0.0173120759427547
0.017225319519639
0.0170509424060583
0.0168087109923362
0.0165091268718242
0.0161442831158638
0.0156825743615627
0.0150691978633403
0.0142345903441309
0.0131102250888943
0.0116473296657204
0.0098317945376038
0.0076908925548195
0.0052923806942999
0.0027379074599593
0.0001524238614365
-0.0023297923617064
-0.0045828497968614
-0.0065068458206951
-0.0080379350110888
-0.0091479690745472
-0.00983811262995
-0.0101332766935229
-0.0100789610296487
-0.0097358785569667
-0.0091716460883617
-0.0084540797397494
-0.0076464172452688
-0.0068017649464309
-0.0059575913473963
-0.0051337010227143
-0.0043353349901735
-0.0035590738989412
-0.0027970834635198
-0.0020374916493892
-0.0012639448978006
-0.0004589948803186
0.0003892462700605
0.0012818183749914
0.0022079823538661
0.0031487443484365
0.004082809202373
0.0049915201961994
0.0058604530058801
0.0066791847348213
0.0074412440881133
0.0081435721367597
0.0087857488542795
0.0093681849539279
0.0098884645849466
0.0103410631418228
0.0107213435694575
0.0110265146940946
0.0112535031512379
0.0114000234752893
0.0114678060635924
0.0114634949713945
0.0113982167094945
0.0112873595207929
0.0111491717398166
0.0110021354630589
0.0108619499951601
0.0107385702431201
0.0106355203315615
0.0105525832623243
0.0104890735819935
0.0104438280686736
0.0104100704193115
0.010367352515459
0.0102757103741168
0.010075120255351
0.0096914591267704
0.0090492703020572
0.0080871786922216
0.0067712697200477
0.0051048346795141
0.0031319656409323
0.0009341114200651
-0.0013787782518193
-0.0036822762340307
-0.0058540105819702
-0.0077882744371891
-0.0094078695401549
-0.0106718549504876
-0.0115760136395692
-0.0121473856270313
-0.0124383121728897
-0.0125209204852581
-0.0124768931418657
-0.0123827038332819
-0.0122977010905742
-0.0122579000890254
-0.0122741516679525
-0.0123346177861094
-0.0124091245234012
-0.0124532068148255
-0.0124138137325644
-0.0122362254187464
-0.0118689900264143
-0.0112670063972473
-0.0103952204808592
-0.0092349890619516
-0.0077924830839037
-0.0061041759327054
-0.0042349570430815
-0.0022697956301271
-0.0003030721563845
0.0015720545779913
0.0032738812733441
0.0047407611273229
0.0059369057416915
0.0068545620888471
0.0075110783800482
0.0079411212354898
0.0081867296248674
0.0082894125953316
0.0082865711301565
0.0082096448168158
0.0080814342945814
0.0079136500135064
0.0077068610116839
0.0074543538503348
0.0071488264948129
0.0067879525013267
0.0063762506470084
0.0059226676821708
0.0054337652400135
0.0049047591164708
0.0043121920898556
0.0036120302975177
0.0027460611891001
0.0016558018978685
0.0002993149682879
-0.0013351842062547
-0.0032231812365353
-0.0053055542521178
-0.0074963741935789
-0.0096937613561749
-0.0117902737110853
-0.0136823086068034
-0.0152795212343335
-0.0165127720683813
-0.0173390731215477
-0.0177442468702793
-0.0177435465157032
-0.0173782110214233
-0.0167085900902748
-0.0158084034919738
-0.014760248363018
-0.0136487362906336
-0.0125518571585416
-0.0115328673273324
-0.0106333820149302
-0.0098686264827847
-0.0092271799221634
-0.0086757251992821
-0.0081664649769663
-0.0076452149078249
-0.0070597566664218
-0.0063673872500658
-0.0055392645299434
-0.0045606391504406
-0.0034293066710233
-0.0021551987156271
-0.0007603950798511
0.0007235901430249
0.0022604782134294
0.0038127871230244
0.0053451089188456
0.0068279346451163
0.0082399267703294
0.0095666162669658
0.0107954889535903
0.0119122378528118
0.0129041112959384
0.0137677984312176
0.0145132075995206
0.0151609107851982
0.0157377924770116
0.0162728987634181
0.0167924091219902
0.0173134673386812
0.0178357139229774
0.0183303281664848
0.0187327619642019
0.0189461577683687
0.0188557170331478
0.0183502174913883
0.0173452533781528
0.0158018134534358
0.0137364547699689
0.0112227089703083
0.0083837499842047
0.005376229993999
0.0023681055754423
-0.000482752919197
-0.0030440650880336
-0.0052168890833854
-0.0069370390847325
-0.0081761861220002
-0.0089433332905173
-0.0092800920829176
-0.0092489290982484
-0.0089219510555267
-0.0083752814680337
-0.0076848976314067
-0.0069193709641695
-0.0061328085139393
-0.0053632725030183
-0.0046349633485078
-0.0039584822952747
-0.0033295722678303
-0.0027308408170938
-0.0021371282637119
-0.0015212781727313
-0.0008589932695031
-0.0001345314085483
0.0006553633138537
0.001502588391304
0.0023900726810097
0.0032929610460996
0.004181926138699
0.0050295433029532
0.0058158235624432
0.0065296553075313
0.0071669523604214
0.0077283005230128
0.0082176206633448
0.0086414888501167
0.0090082101523876
0.0093262065201997
0.0096029201522469
0.0098461005836725
0.0100659420713782
0.0102751068770885
0.0104856630787253
0.0107021909207105
0.0109112588688731
0.0110707115381956
0.0111051071435213
0.0109124314039945
0.0103809610009193
0.009410903789103
0.0079357745125889
0.0059393481351435
0.003464848967269
0.0006128796376287
-0.0024729934521019
-0.0056270649656653
-0.0086811669170856
-0.0114819835871458
-0.0139068625867366
-0.0158741623163223
-0.0173448473215103
-0.0183178782463073
-0.0188232455402612
-0.018914358690381
-0.0186592414975166
-0.0181304663419723
-0.0173964984714984
-0.016516113653779
-0.0155344754457473
-0.014482244849205
-0.0133801065385341
-0.0122439172118902
-0.0110859582200646
-0.0099149448797106
-0.0087373051792383
-0.0075592622160911
-0.0063883708789944
-0.0052331956103444
-0.0041021751239895
-0.0030031120404601
-0.0019419444724917
-0.0009197955951094
6.987527012825012e-05
0.0010411394760012
0.0020126020535826
0.0030042696744203
0.0040340982377529
0.0051137739792466
0.0062467739917337
0.0074298037216067
0.0086553124710917
0.0099135711789131
0.0111934468150138
0.0124813467264175
0.0137592172250151
0.0150031605735421
0.0161831527948379
0.0172633752226829
0.0182026885449886
0.0189537871628999
0.0194599870592355
0.0196522455662488
0.019451018422842
0.018775325268507
0.0175589919090271
0.0157717652618885
0.0134371817111969
0.0106374286115169
0.0075047588907182
0.0042058555409312
0.0009224287932738
-0.0021701876539736
-0.0049223913811147
-0.0072246748022735
-0.0090161683037877
-0.0102858273312449
-0.0110653545707464
-0.0114176888018846
-0.0114258080720901
-0.0111818434670567
-0.0107761658728122
-0.0102888690307736
-0.0097841713577508
-0.0093059977516531
-0.0088749276474118
-0.0084889801219105
-0.0081284027546644
-0.0077605247497558
-0.0073434375226497
-0.0068315379321575
-0.006183389108628
-0.0053688497282564
-0.0043721981346607
-0.0031919381581246
-0.0018411732744425
-0.0003486925270408
0.0012430655770003
0.0028841248713433
0.0045232228003442
0.0061110518872737
0.0076018865220248
0.0089566688984632
0.0101467641070485
0.0111555745825171
0.0119786830618977
0.01262360624969
0.0131083531305193
0.0134588731452822
0.0137060349807143
0.0138811534270644
0.0140093425288796
0.0141017716377973
0.0141477640718221
0.0141081698238849
0.0139135336503386
0.0134698878973722
0.0126711595803499
0.0114158410578966
0.0096268113702535
0.0072715375572443
0.0043759336695075
0.001026346348226
-0.0026395926252007
-0.0064490847289562
-0.0102133508771657
-0.0137469135224819
-0.0168863721191883
-0.0195072833448648
-0.0215337499976158
-0.0229382812976837
-0.0237353593111038
-0.0239721816033124
-0.0237190276384353
-0.0230609867721796
-0.0220902040600776
-0.0208974257111549
-0.0195639766752719
-0.0181563645601272
-0.0167244989424943
-0.0153014324605464
-0.01390225533396
-0.0125252250581979
-0.0111579801887273
-0.0097845392301678
-0.0083905905485153
-0.0069688381627202
-0.0055224718526005
-0.0040638749487698
-0.0026100736577063
-0.0011782366782426
0.0002173238899558
0.0015665804967284
0.0028637966606765
0.0041073020547628
0.0052988524548709
0.0064410669729113
0.0075350357219576
0.0085801789537072
0.0095744226127862
0.0105137173086404
0.0113918203860521
0.0122004747390747
0.0129297589883208
0.0135679682716727
0.0140984477475285
0.0144913904368877
0.014694133773446
0.014627244323492
0.0141912400722503
0.0132839828729629
0.0118241012096405
0.009772665798664
0.0071469782851636
0.0040241191163659
0.0005340096540749
-0.0031553511507809
-0.0068569518625736
-0.0103864260017871
-0.0135828470811247
-0.0163232684135437
-0.0185287836939096
-0.0201642643660306
-0.0212340336292982
-0.0217733979225158
-0.0218380633741617
-0.0214954949915409
-0.0208183750510215
-0.0198778305202722
-0.0187365021556615
-0.0174443218857049
-0.0160390827804803
-0.0145504269748926
-0.0130030363798141
-0.0114167239516973
-0.0098051941022276
-0.0081755071878433
-0.0065289912745356
-0.0048646056093275
-0.0031829252839088
-0.0014871093444526
0.0002177581191062
0.0019238723907619
0.003619386581704
0.0052877562120556
0.0069085489958524
0.0084602534770965
0.0099229030311107
0.0112792272120714
0.0125148752704262
0.0136185986921191
0.0145844584330916
0.0154160158708691
0.0161281283944845
0.0167418234050273
0.0172724779695272
0.0177155453711748
0.0180357340723276
0.0181653350591659
0.01801323518157
0.0174825638532638
0.0164940543472766
0.0150093277916312
0.0130455354228615
0.010676366277039
0.008021717891097
0.0052307872101664
0.0024620026815682
-0.0001370640966342
-0.0024463213048875
-0.0043821036815643
-0.0058972965925931
-0.0069769625551998
-0.0076332595199346
-0.0078995991498231
-0.007823965512216
-0.0074630449526011
-0.0068781496956944
-0.0061328653246164
-0.0052912444807589
-0.004413638729602
-0.0035499590449035
-0.0027340929955244
-0.0019822549074888
-0.0012957135913893
-0.0006654082098975
-7.468950934708118e-05
0.0004996363422833
0.0010845712386071
0.0017057920340448
0.0023828675039112
0.0031263660639524
0.0039365915581583
0.004803754389286
0.0057092574425041
0.0066284206695854
0.0075351116247475
0.0084068048745393
0.0092265158891677
0.0099798906594514
0.0106512382626533
0.0112217105925083
0.0116675728932023
0.011956145055592
0.0120398374274373
0.011852491647005
0.0113142635673284
0.0103471539914608
0.0088965762406587
0.0069494675844907
0.0045413104817271
0.0017538759857416
-0.0012904349714517
-0.0044375844299793
-0.0075183631852269
-0.0103711811825633
-0.012861493974924
-0.0148903485387563
-0.0163947828114032
-0.0173467453569173
-0.017752505838871
-0.017650119960308
-0.0171030666679143
-0.0161906331777572
-0.0149980541318655
-0.0136082712560892
-0.0120946569368243
-0.0105167245492339
-0.0089207347482442
-0.007341818884015
-0.0058049564249813
-0.004325340501964
-0.0029083392582833
-0.0015500485897064
-0.0002395715564489
0.0010375854326412
0.0022956083994358
0.0035458540078252
0.0047970437444746
0.0060550654307007
0.0073206624947488
0.0085871797055006
0.0098399249836802
0.0110572194680571
0.0122120454907417
0.0132741462439298
0.0142138786613941
0.0150057356804609
0.0156264975666999
0.0160471089184284
0.0162243042141199
0.0160984583199024
0.0155985746532678
0.0146529730409383
0.0132046760991215
0.0112286126241087
0.0087461629882454
0.0058317920193076
0.002607780508697
-0.0007713912054896
-0.0041395528241992
-0.0073400600813329
-0.0102434055879712
-0.0127549385651946
-0.0148126231506466
-0.0163828544318676
-0.0174594521522521
-0.0180632825940847
-0.0182378180325031
-0.0180401802062988
-0.0175320766866207
-0.0167743563652038
-0.0158245787024498
-0.0147340558469295
-0.0135434390977025
-0.0122811673209071
-0.010967468842864
-0.0096193980425596
-0.0082514900714159
-0.0068726115860044
-0.005484175402671
-0.0040829596109688
-0.0026660179719328
-0.0012335660867393
0.0002115149982273
0.0016655996441841
0.0031243492849171
0.0045807757414877
0.006024386268109
0.00744270067662
0.0088234581053256
0.0101553853601217
0.0114278905093669
0.01263162586838
0.0137596977874636
0.0148079749196767
0.015774592757225
0.0166595391929149
0.0174627192318439
0.0181769952178001
0.0187764223664999
0.0192067399621009
0.0193852446973323
0.0192100685089826
0.0185758061707019
0.0173929538577795
0.0156067293137311
0.0132093308493494
0.0102432630956172
0.0067973658442497
0.0029971022158861
-0.0010099448263645
-0.0050711799412965
-0.009045080281794
-0.0128127392381429
-0.0162824857980012
-0.0193876400589942
-0.0220812428742647
-0.024332333356142
-0.026125106960535
-0.027459293603897
-0.0283494088798761
-0.0288223065435886
-0.0289129838347435
-0.0286589600145816
-0.0280954390764236
-0.0272527486085891
-0.0261559877544641
-0.0248259399086236
-0.0232797507196664
-0.0215310715138912
-0.0195904951542615
-0.0174663327634334
-0.015165883116424
-0.0126973539590835
-0.0100713679566979
-0.0073018292896449
-0.0044076279737055
-0.0014152441872283
0.0016390783712267
0.0047073559835553
0.0077288174070417
0.010632861405611
0.0133473509922623
0.015809953212738
0.017977887764573
0.0198322217911481
0.0213763527572155
0.0226299613714218
0.0236198864877223
0.0243721138685941
0.024909483268857
0.025253714993596
0.0254271924495697
0.0254518091678619
0.0253410432487726
0.0250849574804306
0.0246372260153293
0.0239133704453706
0.0228034816682338
0.0211973506957292
0.0190133638679981
0.0162205398082733
0.0128491558134555
0.0089907823130488
0.0047878921031951
0.0004140697419643
-0.0039499434642493
-0.0081382691860198
-0.0120147373527288
-0.015478802844882
-0.0184657573699951
-0.0209440849721431
-0.022910937666893
-0.0243871808052063
-0.0254127793014049
-0.0260419845581054
-0.0263379998505115
-0.026367412880063
-0.026194492354989
-0.025875087827444
-0.0254497937858104
-0.0249378196895122
-0.024335253983736
-0.0236194152384996
-0.0227574482560157
-0.0217163413763046
-0.0204714126884937
-0.0190106127411127
-0.0173352174460887
-0.0154594462364912
-0.0134085938334465
-0.0112154372036457
-0.0089177349582314
-0.0065572140738368
-0.0041778711602091
-0.0018238425254821
0.0004622219130396
