bvp
0.0737072005867958
0.0732067972421646
0.0725290551781654
0.0716744139790535
0.0706417635083198
0.0694209784269332
0.0679807588458061
0.066259816288948
0.0641675516963005
0.0615968517959117
0.0584472641348838
0.0546509847044944
0.0501929819583892
0.0451219789683818
0.0395524427294731
0.0336554385721683
0.0276379361748695
0.021717058494687
0.0160947982221841
0.0109364474192261
0.0063590835779905
0.0024313954636454
-0.0008219238370656
-0.0034154914319515
-0.0053988411091268
-0.0068518058396875
-0.0078777456656098
-0.0085955411195755
-0.0091319372877478
-0.0096112163737416
-0.0101407337933778
-0.0107992002740502
-0.0116353500634431
-0.0126765184104442
-0.0139425983652472
-0.0154586909338831
-0.0172589719295501
-0.0193832777440547
-0.0218725465238094
-0.0247628074139356
-0.028076222166419
-0.0318103730678558
-0.0359278135001659
-0.0403508767485618
-0.0449694991111755
-0.0496644675731658
-0.0543344728648662
-0.0589112490415573
-0.0633554831147193
-0.0676283240318298
-0.0716404393315315
-0.0752011835575103
-0.0779991894960403
-0.0796302258968353
-0.0796643942594528
-0.0777268484234809
-0.0735612139105796
-0.0670618340373039
-0.0582910105586051
-0.0475003272294998
-0.0351424664258956
-0.0218415558338165
-0.0083136465400457
0.0047366619110107
0.0167066417634487
0.0271484330296516
0.035776499658823
0.042437620460987
0.0470694079995155
0.0496739707887172
0.0503103584051132
0.0490925759077072
0.0461871288716793
0.0418160408735275
0.0362680070102214
0.0299085136502981
0.0231740362942218
0.0165390148758888
0.0104588726535439
0.0053085419349372
0.0013341982848942
-0.0013740677386522
-0.0028815635014325
-0.0033719458151608
-0.0030753533355891
-0.0021837376989424
-0.0007886458188295
0.0011328565888106
0.0036829132586717
0.0069810198619961
0.0111053828150033
0.0160525422543287
0.0217174142599105
0.027895513921976
0.0343058630824089
0.0406255424022674
0.0465253517031669
0.0517005175352096
0.0558918789029121
0.0588949397206306
0.0605626627802848
0.0608116723597049
0.0596338659524917
0.0571057125926017
0.0533861480653286
0.0486983321607112
0.0432980321347713
0.0374397635459899
0.031352199614048
0.0252279117703437
0.0192249827086925
0.013471633195877
0.0080669187009334
0.0030761547386646
-0.0014781542122364
-0.0056270770728588
-0.0094603411853313
-0.0131188556551933
-0.0167736113071441
-0.0205958634614944
-0.024725180119276
-0.0292424336075782
-0.0341548100113868
-0.0393942445516586
-0.044826079159975
-0.05026625841856
-0.0555061995983123
-0.0603411681950092
-0.064594030380249
-0.0681290999054908
-0.0708584189414978
-0.0727441161870956
-0.0737977623939514
-0.0740775614976883
-0.0736816450953483
-0.0727347731590271
-0.0713715031743049
-0.0697216913104057
-0.0678999125957489
-0.0659971237182617
-0.0640749260783195
-0.0621634386479854
-0.060262992978096
-0.0583502613008022
-0.056388009339571
-0.0543351471424102
-0.0521554462611675
-0.0498251058161258
-0.0473374724388122
-0.0447028204798698
-0.0419436916708946
-0.0390873402357101
-0.0361568331718444
-0.0331637859344482
-0.0301075223833322
-0.0269824638962745
-0.0237886775285005
-0.0205404087901115
-0.0172734130173921
-0.0140521405264735
-0.0109737645834684
-0.0081653203815221
-0.0057715233415365
-0.0039329575374722
-0.0027591355610638
-0.0023041137028485
-0.0025500594638288
-0.0034022324252873
-0.0046974951401352
-0.0062248157337307
-0.0077529698610305
-0.0090591851621866
-0.0099539253860712
-0.0102986888960003
-0.0100142378360033
-0.0090801678597927
-0.0075290482491254
-0.0054369531571865
-0.0029129944741725
-8.84905457496643e-05
0.0028976816684007
0.0059158261865377
0.0088579971343278
0.0116449296474456
0.0142287351191043
0.0165923330932855
0.0187459718436002
0.02072149887681
0.0225657448172569
0.0243328027427196
0.0260752160102128
0.0278359465301036
0.0296425595879554
0.0315035916864872
0.0334071405231952
0.0353232659399509
0.0372109897434711
0.0390269495546817
0.0407324135303497
0.0422967933118343
0.0436970256268978
0.0449132546782493
0.045919943600893
0.046673659235239
0.0471053048968315
0.0471230708062648
0.0466250851750373
0.0455194003880023
0.04374860227108
0.0413119234144687
0.0382771715521812
0.034779280424118
0.0310061201453208
0.027174599468708
0.023502342402935
0.0201819222420454
0.0173630863428115
0.0151441190391778
0.0135706961154937
0.0126402266323566
0.0123091600835323
0.0125007443130016
0.0131128206849098
0.0140271820127964
0.0151215214282274
0.0162819176912307
0.0174124278128147
0.0184403210878372
0.0193174667656421
0.0200191345065832
0.0205419398844242
0.0209020972251892
0.0211319718509912
0.0212720949202775
0.0213603135198354
0.0214229878038167
0.0214722696691751
0.0215086229145526
0.0215236097574234
0.0215015038847923
0.0214221589267253
0.0212648622691631
0.0210110284388065
0.0206456165760755
0.0201579164713621
0.019540324807167
0.0187822468578815
0.0178582463413476
0.0167155228555202
0.015270672738552
0.0134218744933605
0.011073232628405
0.0081631373614072
0.0046878419816493
0.0007123812101781
-0.0036332579329609
-0.0081679336726665
-0.0126783065497875
-0.0169424153864383
-0.0207571536302566
-0.0239628534764051
-0.0264560859650373
-0.0281901583075523
-0.0291701517999172
-0.0294461976736783
-0.0291043519973754
-0.0282555036246776
-0.0270232483744621
-0.0255316961556673
-0.023895563557744
-0.0222124028950929
-0.0205559097230434
-0.0189728029072284
-0.0174835696816444
-0.0160849094390869
-0.0147558776661753
-0.0134677598252892
-0.0121919084340333
-0.0109038623049855
-0.0095863966271281
-0.0082327602431178
-0.0068505662493407
-0.0054636830464005
-0.0041084457188844
-0.0028254692442715
-0.001651048194617
-0.0006108563393354
0.000283177010715
0.0010327417403459
0.0016497038304805
0.0021508755162358
0.0025548413395881
0.0028814217075705
0.0031476933509111
0.0033570677042007
0.0034862589091062
0.0034767221659421
0.0032352218404412
0.0026479577645659
0.0016084350645542
4.870444536209106e-05
-0.0020394083112478
-0.0045976508408784
-0.0075067831203341
-0.0106004225090146
-0.0136842876672744
-0.0165587849915027
-0.0190421119332313
-0.0209889002144336
-0.0223008431494236
-0.022930271923542
-0.0228788834065198
-0.0221936292946338
-0.0209608506411314
-0.0192971229553222
-0.0173359625041484
-0.0152125395834445
-0.0130494097247719
-0.0109456395730376
-0.0089707989245653
-0.007164035923779
-0.0055369883775711
-0.0040789865888655
-0.0027634296566247
-0.0015553275588899
-0.0004196721129119
0.0006714914925396
0.0017351978458464
0.0027781997341662
0.0038003707304596
0.0047962749376893
0.0057545211166143
0.0066579934209585
0.0074866255745291
0.0082220286130905
0.0088517228141427
0.0093722250312566
0.0097905490547418
0.0101217618212103
0.0103830844163894
0.0105886980891227
0.0107456939294934
0.0108475890010595
0.010865094140172
0.0107390917837619
0.0103833936154842
0.0097010591998696
0.0086084157228469
0.0070570367388427
0.0050488100387156
0.0026426543481647
-4.824018105864525e-05
-0.0028678802773356
-0.0056354166008532
-0.0081674410030245
-0.0103015284985303
-0.0119157023727893
-0.0129385162144899
-0.0133489873260259
-0.0131702106446027
-0.0124612431973218
-0.0113095138221979
-0.0098235178738832
-0.0081242509186267
-0.0063332235440611
-0.004558318760246
-0.0028830913361161
-0.0013625293504446
-2.3958971723914143e-05
0.0011288959067314
0.0021102351602166
0.0029457013588398
0.0036659331526607
0.0043013701215386
0.0048786890693008
0.0054182801395654
0.0059326663613319
0.0064265606924891
0.006897491402924
0.0073362574912607
0.0077292844653129
0.0080628795549273
0.0083268173038959
0.0085150618106126
0.008624043315649
0.0086528258398175
0.0086052417755126
0.008487400598824
0.0082984883338212
0.0080202305689454
0.0076126065105199
0.0070202546194195
0.0061866086907684
0.0050698770210146
0.0036559645086526
0.0019645043648779
4.912493750452995e-05
-0.0020060176029801
-0.0040952293202281
-0.0061038648709654
-0.0079200798645615
-0.0094459196552634
-0.0106077780947089
-0.0113636367022991
-0.0117049533873796
-0.0116532016545534
-0.0112539380788803
-0.0105701517313718
-0.0096740052103996
-0.0086380308493971
-0.0075287255458533
-0.0064025255851447
-0.0053012305870652
-0.0042469217441976
-0.0032404921948909
-0.0022665206342935
-0.0013015544973313
-0.0003208769485354
0.000695856520906
0.0017585649620741
0.0028627694118767
0.0039890566840767
0.0051064090803265
0.0061791967600584
0.0071740220300853
0.0080646611750125
0.0088350670412182
0.0094780139625072
0.0099906492978334
0.0103720538318157
0.0106239644810557
0.0107508711516857
0.010756991803646
0.0106409601867198
0.0103886816650629
0.0099669005721807
0.0093244332820177
0.0084036812186241
0.0071567166596651
0.0055595748126506
0.0036225439980626
0.0013954807072877
-0.0010339296422898
-0.0035504270344972
-0.0060267783701419
-0.0083389710634946
-0.0103785395622253
-0.0120615996420383
-0.0133340870961546
-0.0141737479716539
-0.0145895760506391
-0.0146182719618082
-0.0143174212425947
-0.0137572828680276
-0.0130130648612976
-0.012157573364675
-0.0112546943128108
-0.0103545170277357
-0.0094892270863056
-0.0086710061877965
-0.0078956792131066
-0.0071512935683131
-0.0064252112060785
-0.0057063931599259
-0.0049849990755319
-0.0042516360990703
-0.003498860169202
-0.0027248379774391
-0.0019340398721396
-0.0011341597419232
-0.0003339584218338
0.0004565640119835
0.0012259322684258
0.0019627530127763
0.0026586046442389
0.003310345346108
0.0039202226325869
0.0044939708895981
0.005038846284151
0.0055611706338822
0.0060631441883742
0.0065428423695266
0.0069970949552953
0.0074216327629983
0.0078070284798741
0.0081326952204108
0.0083615975454449
0.0084392400458455
0.0082989176735281
0.0078723430633544
0.0071029365062713
0.0059583499096333
0.0044403634965419
0.0025904159992933
0.0004884403897449
-0.0017554976511746
-0.0040147616527974
-0.006161231547594
-0.0080806016921997
-0.0096868285909295
-0.0109297148883342
-0.0117931179702281
-0.0122890165075659
-0.0124514074996113
-0.0123297739773988
-0.0119816688820719
-0.0114657096564769
-0.0108362883329391
-0.0101397614926099
-0.009411278180778
-0.0086729992181062
-0.0079360539093613
-0.0072041484527289
-0.0064732078462839
-0.0057297772727906
-0.0049545736983418
-0.0041282041929662
-0.0032349899411201
-0.002265756484121
-0.0012194104492664
-0.0001024017110466
0.0010734992101788
0.002292186487466
0.0035317153669893
0.0047649820335209
0.0059643369168043
0.0071056364104151
0.0081696966663002
0.0091428216546773
0.0100164199247956
0.0107848141342401
0.0114438869059085
0.0119926296174526
0.0124344257637858
0.0127754677087068
0.0130223641172051
0.0131811797618865
0.0132579822093248
0.0132596585899591
0.0131935030221939
0.0130669111385941
0.0128885917365551
0.0126689588651061
0.0124182105064392
0.0121438549831509
0.0118490122258663
0.0115295741707086
0.0111675839871168
0.0107235265895724
0.0101347174495458
0.0093238968402147
0.0082165738567709
0.0067615048028528
0.0049467775970697
0.0028069710824638
0.0004201363772153
-0.0021040760912001
-0.004640569910407
-0.0070649264380335
-0.0092664938420057
-0.0111568588763475
-0.0126750180497765
-0.0137906549498438
-0.0145041793584823
-0.0148424506187438
-0.0148527873679995
-0.0145966792479157
-0.0141422543674707
-0.0135577423498034
-0.012906227260828
-0.0122390110045671
-0.0115895122289657
-0.0109705030918121
-0.0103749632835388
-0.0097807925194501
-0.0091581791639328
-0.0084765534847974
-0.0077093453146517
-0.0068379403091967
-0.0058559356257319
-0.0047705126926302
-0.0035988157615065
-0.0023638466373085
-0.0010936306789517
0.0001792619004845
0.001421071588993
0.0026018372736871
0.003699442371726
0.0047018933109939
0.005607315339148
0.0064212987199425
0.0071536437608301
0.0078159794211387
0.0084192231297492
0.0089708045125007
0.0094738528132438
0.0099295089021325
0.0103390635922551
0.0107031390070915
0.011020477861166
0.0112883606925606
0.0115030752494931
0.0116602852940559
0.0117570664733648
0.0117956027388572
0.0117851318791508
0.0117386803030967
0.011666378006339
0.0115703381597995
0.0114417178556323
0.0112562961876392
0.0109691321849823
0.0105131994932889
0.0098045915365219
0.0087551334872841
0.007291279733181
0.0053736986592411
0.0030113458633422
0.0002668950473889
-0.00274767447263
-0.0058847134932875
-0.0089809326454997
-0.0118786543607711
-0.014442378655076
-0.0165684483945369
-0.018189825117588
-0.0192788410931825
-0.0198478046804666
-0.0199445392936468
-0.0196436420083045
-0.0190359149128198
-0.0182153768837451
-0.0172659661620855
-0.0162528995424509
-0.0152208711951971
-0.0141967562958598
-0.0131916534155607
-0.0122015960514545
-0.0112104685977101
-0.0101941209286451
-0.0091241253539919
-0.0079732798039913
-0.006721549667418
-0.0053604440763592
-0.003897113725543
-0.0023556891828775
-0.000772344879806
0.0008128518238663
0.0023626396432518
0.0038462951779365
0.0052410191856324
0.0065320939756929
0.0077120005153119
0.0087779508903622
0.0097289001569151
0.0105647342279553
0.0112884603440761
0.0119082368910312
0.0124357482418417
0.0128822140395641
0.0132557954639196
0.0135616054758429
0.01380355656147
0.0139856617897748
0.0141112385317683
0.014182673767209
0.0142028555274009
0.0141755910590291
0.0141041297465562
0.0139880515635013
0.0138176344335079
0.0135654518380761
0.0131794475018978
0.0125834178179502
0.0116852577775716
0.0103918202221393
0.0086294617503881
0.0063643548637628
0.0036168077494949
0.000467016827315
-0.00295081268996
-0.0064652999863028
-0.0098889805376529
-0.0130383465439081
-0.0157522596418857
-0.017908252775669
-0.0194330140948295
-0.0203045345842838
-0.0205475874245166
-0.0202249940484762
-0.0194270424544811
-0.0182611905038356
-0.0168418176472187
-0.0152788339182734
-0.0136672724038362
-0.0120805893093347
-0.0105663025751709
-0.0091437539085745
-0.0078073963522911
-0.0065360376611351
-0.005302719771862
-0.0040801418945193
-0.0028423611074686
-0.0015658549964427
-0.0002322979271411
0.0011668149381875
0.0026266425848007
0.0041274270042777
0.0056349872611463
0.0071047991514205
0.0084877405315637
0.0097340671345591
0.0107957953587174
0.011629382148385
0.0122002847492694
0.012490976601839
0.0125101339071989
0.0122973406687378
0.0119210239499807
0.0114702843129634
0.0110405273735523
0.0107125872746109
0.0105280084535479
0.0104707647114992
0.0104666445404291
0.0103999627754092
0.0101390592753887
0.0095632886514067
0.0085874116048216
0.0071792197413742
0.0053655332885682
0.0032257479615509
0.0008781985379755
-0.0015350235626101
-0.0038644787855446
-0.0059704044833779
-0.007735401391983
-0.0090717282146215
-0.0099282022565603
-0.0102965291589498
-0.0102102542296051
-0.0097354240715503
-0.0089580649510025
-0.0079718865454196
-0.0068680117838084
-0.0057264156639575
-0.0046080583706498
-0.003549906425178
-0.0025642625987529
-0.0016406821087002
-0.000750352628529
0.0001454586163163
0.0010850494727492
0.0020981468260288
0.0032006744295358
0.0043922457844018
0.0056563289836049
0.0069626639597117
0.0082730278372764
0.0095487236976623
0.0107548115774989
0.011860548518598
0.0128401573747396
0.0136753087863326
0.0143574923276901
0.0148874074220657
0.0152668599039316
0.0154830478131771
0.0154948942363262
0.0152307925745844
0.0145965898409485
0.0134903518483042
0.0118249123916029
0.0095545398071408
0.0066950777545571
0.003330469597131
-0.0003943239571526
-0.0042904117144644
-0.0081473505124449
-0.0117577612400054
-0.0149410255253314
-0.0175601691007614
-0.0195286683738231
-0.0208107195794582
-0.0214191526174545
-0.0214092638343572
-0.0208668727427721
-0.0198956709355115
-0.0186085011810064
-0.0171189215034246
-0.0155297191813588
-0.0139233376830816
-0.012357615865767
-0.0108644403517246
-0.009449990466237
-0.0080981627106666
-0.0067785447463393
-0.0054560638964176
-0.004098551813513
-0.0026828909758478
-0.0011992694344371
0.0003494299016892
0.0019510753918439
0.0035863011144101
0.0052296724170446
0.0068518733605742
0.0084224101155996
0.0099133616313338
0.0113038392737507
0.0125819286331534
0.0137434918433427
0.0147897973656654
0.0157251637428998
0.0165556799620389
0.017288438975811
0.0179280210286378
0.0184687692672014
0.0188855286687612
0.019125010818243
0.0190998539328575
0.0186923220753669
0.0177735239267349
0.0162331014871597
0.0140085443854331
0.0111061157658696
0.0076075228862464
0.0036601643078029
-0.0005430253222584
-0.0047854064032435
-0.0088478280231356
-0.0125309778377413
-0.0156760532408952
-0.0181771572679281
-0.0199823155999183
-0.0210869759321212
-0.0215270593762397
-0.0213734656572341
-0.0207252241671085
-0.0196996517479419
-0.018418688327074
-0.0169931687414646
-0.0155114829540252
-0.014035502448678
-0.0125993881374597
-0.0112089291214942
-0.0098452232778072
-0.008474588394165
-0.0070595066063106
-0.0055656759068369
-0.0039661517366766
-0.0022450853139162
-0.0004014405421912
0.0015494229737669
0.0035776400472968
0.0056422604247927
0.0076952520757913
0.0096863033249974
0.0115669425576925
0.0132938539609313
0.0148322451859712
0.0161581747233867
0.017258908599615
0.01813212223351
0.0187855698168277
0.0192374996840953
0.0195147339254617
0.0196462869644165
0.0196562521159648
0.0195596236735582
0.0193580910563468
0.0190330035984516
0.0185385383665561
0.0178006701171398
0.0167262218892574
0.0152212893590331
0.013213793747127
0.0106747429817914
0.0076330322772264
0.0041787736117839
0.0004541482776403
-0.0033645378425717
-0.0070886258035898
-0.0105392029508948
-0.0135666523128747
-0.0160633251070976
-0.017968138679862
-0.0192657858133316
-0.019980588927865
-0.020165778696537
-0.0198933891952037
-0.0192470327019691
-0.0183156970888376
-0.017187001183629
-0.0159396491944789
-0.0146369626745581
-0.0133235258981585
-0.012024188414216
-0.0107458923012018
-0.0094846300780773
-0.0082338899374008
-0.0069887656718492
-0.0057469233870506
-0.0045090150088071
-0.0032781288027763
-0.002059674821794
-0.0008628536015748
0.0002980921417474
0.0014040600508451
0.002432495355606
0.00336011685431
0.0041674934327602
0.0048439819365739
0.005388906225562
0.005808025598526
0.0061096474528312
0.0063034426420927
0.0064007174223661
0.0064145009964704
0.0063595119863748
0.0062509104609489
0.0061008408665657
0.0059161745011806
0.0057003311812877
0.0054570194333791
0.0051913801580667
0.004904069006443
0.0045803599059581
0.0041841268539428
0.0036606937646865
0.0029447302222251
0.0019715465605258
0.0006910841912031
-0.0009181722998619
-0.0028394795954227
-0.0050163082778453
-0.0073584718629717
-0.0097525073215365
-0.0120748952031135
-0.0142069291323423
-0.0160472393035888
-0.0175192300230264
-0.0185755882412195
-0.0192012656480073
-0.0194120891392231
-0.0192483868449926
-0.0187673736363649
-0.0180364530533552
-0.0171268638223409
-0.0161071438342332
-0.0150371240451931
-0.0139640010893344
-0.0129212895408272
-0.0119293201714754
-0.0109955240041017
-0.0101154968142509
-0.0092765251174569
-0.008461931720376
-0.007654168177396
-0.0068370560184121
-0.0059986328706145
-0.0051344581879675
-0.0042489594779908
-0.0033542970195412
-0.0024676895700395
-0.0016080010682344
-0.0007936777547001
-4.116259515285492e-05
0.0006377999670803
0.0012374864891171
0.0017572911456227
0.0022010090760886
0.0025776280090212
0.0029023950919508
0.0031961281783878
0.0034826262854039
0.0037851026281714
0.0041222982108592
0.0045045386068522
0.0049290461465716
0.0053747328929603
0.0057991850189864
0.0061414153315126
0.0063307932578027
0.0062998663634061
0.0059990221634507
0.0054081790149211
0.0045419125817716
0.0034499235916882
0.002211952349171
0.0009248377755284
-0.0003130207769572
-0.0014136391691863
-0.0023076487705111
-0.0029485274571925
-0.0033123735338449
-0.0033963925670832
-0.0032177192624658
-0.0028103133663535
-0.0022188543807715
-0.0014926318544894
-0.0006828285986557
0.000158863607794
0.0009844482410699
0.0017557693645358
0.0024483995512127
0.003051153384149
0.0035623013973236
0.0039849895983934
0.0043247970752418
0.0045914966613054
0.0048015327192842
0.0049747517332434
0.005127512384206
0.0052700047381222
0.0054090339690446
0.0055512199178338
0.0057023228146135
0.0058635426685214
0.0060297735035419
0.006192659959197
0.0063455365598201
0.0064864521846175
0.006618682295084
0.0067495806142687
0.0068887770175933
0.0070453565567731
0.0072246138006448
0.0074265282601118
0.007643892429769
0.0078578107059001
0.0080333687365055
0.0081190019845962
0.0080516654998064
0.0077681317925453
0.0072193462401628
0.0063821384683251
0.0052641686052083
0.0039025663863867
0.0023591099306941
0.0007132202736102
-0.0009475947008468
-0.0025376300327479
-0.003980194684118
-0.0052130320109426
-0.0061927330680191
-0.0068966294638812
-0.0073225074447691
-0.007487223483622
-0.0074239000678062
-0.0071780239231884
-0.0068024126812815
-0.0063499081879854
-0.0058653764426708
-0.0053803250193595
-0.0049115363508462
-0.0044635571539402
-0.0040328162722289
-0.0036102335434406
-0.0031826116610318
-0.0027356348000466
-0.0022586290724575
-0.0017475041095167
-0.0012035998515784
-0.0006305072456598
-3.2215844839811325e-05
0.0005861381068825
0.0012160283513367
0.0018439616542309
0.0024526268243789
0.003024959936738
0.0035485988482832
0.0040170857682824
0.0044268015772104
0.0047737536951899
0.0050539737567305
0.0052656042389571
0.005409806035459
0.0054909917525947
0.0055177891626954
0.0055043273605406
0.005470139440149
0.0054378639906644
0.0054288678802549
0.0054580974392592
0.0055316681973636
0.0056485924869775
0.0058034723624587
0.0059864977374672
0.0061797453090548
0.0063522672280669
0.0064573986455798
0.0064339824020862
0.0062129879370331
0.0057296715676784
0.0049373721703886
0.0038173280190676
0.0023818495683372
0.0006720491219311
-0.0012482069432735
-0.003301111748442
-0.0054032457992434
-0.0074702925048768
-0.0094209667295217
-0.0111836018040776
-0.0127021484076976
-0.0139384316280484
-0.0148726943880319
-0.0155031792819499
-0.0158433858305215
-0.0159181915223598
-0.0157606527209281
-0.0154090002179145
-0.0149026755243539
-0.0142781864851713
-0.0135668609291315
-0.0127944871783256
-0.0119801927357912
-0.0111342435702681
-0.0102574620395898
-0.0093425335362553
-0.0083759035915136
-0.0073416288942098
-0.0062273079529404
-0.0050287470221519
-0.0037505300715565
-0.0024043684825301
-0.0010081697255373
0.0004155132919549
0.0018422538414597
0.0032478291541337
0.0046100635081529
0.0059116324409842
0.0071423226036131
0.0082986634224653
0.0093817431479692
0.0103951077908277
0.0113427676260471
0.0122271114960312
0.0130468001589179
0.0137942153960466
0.0144545789808034
0.0150090428069233
0.0154399089515209
0.0157358180731534
0.015895202755928
0.0159265398979187
0.0158471167087554
0.0156813357025384
0.0154567975550889
0.0151985846459865
0.0149242933839559
0.0146417543292045
0.0143501106649637
0.0140427779406309
0.0137105137109756
0.013342342339456
0.0129213314503431
0.0124174654483795
0.011784141883254
0.0109612792730331
0.0098840156570076
0.008494752459228
0.0067561697214841
0.0046628015115857
0.0022476420272141
-0.000419650459662
-0.0032419138588011
-0.0061066849157214
-0.0088994922116398
-0.0115161100402474
-0.0138697084039449
-0.0158936418592929
-0.0175440032035112
-0.0188017636537551
-0.0196714028716087
-0.0201757736504077
-0.0203505102545022
-0.0202398393303155
-0.0198926758021116
-0.0193588063120841
-0.0186846889555454
-0.0179084409028291
-0.0170564763247966
-0.0161432363092899
-0.0151730366051197
-0.0141434203833341
-0.0130498753860592
-0.0118903713300824
-0.0106668937951326
-0.0093839345499873
-0.008046849630773
-0.0066622951999306
-0.0052410503849387
-0.0038013607263565
-0.0023695658892393
-0.0009759133681654
0.0003526899963617
0.0015982119366526
0.0027531422674655
0.0038192244246602
0.0048036510124802
0.0057148374617099
0.0065611298196017
0.0073505039326846
0.0080882422626018
0.0087751653045415
0.0094094257801771
0.0099904676899313
0.0105212889611721
0.0110066384077072
0.0114492382854223
0.0118484627455472
0.0122019732370972
0.012507015839219
0.0127606373280286
0.0129607114940881
0.01310745626688
0.0132020367309451
0.013240510597825
0.0132051454856991
0.013056406751275
0.0127308778464794
0.0121498666703701
0.0112363323569297
0.0099323661997914
0.0082131223753094
0.0060980673879384
0.0036571035161614
0.0010053720325231
-0.0017135418020188
-0.0043489434756338
-0.0067628072574734
-0.0088452771306037
-0.0105231646448373
-0.0117605030536651
-0.0125543177127838
-0.0129287429153919
-0.012927645817399
-0.0126066152006387
-0.0120266880840063
-0.0112505387514829
-0.0103397415950894
-0.0093505745753645
-0.0083285514265298
-0.0073050437495112
-0.0062972512096166
-0.005310189910233
-0.0043396670371294
-0.0033749844878911
-0.0024001970887184
-0.0013957312330603
-0.0003427481278777
0.0007710950449109
0.0019475175067782
0.0031774300150573
0.0044443430379033
0.0057276836596429
0.0070047192275524
0.0082526598125696
0.0094502810388803
0.0105778565630316
0.011616407893598
0.0125486366450786
0.0133622027933597
0.0140528827905654
0.0146254710853099
0.0150914508849382
0.0154636111110448
0.0157514177262783
0.0159594397991895
0.0160847082734107
0.0161098297685384
0.0159956403076648
0.0156795382499694
0.0150822326540946
0.0141215994954109
0.0127307521179318
0.0108766537159681
0.0085737574845552
0.0058885877951979
0.0029356884770095
-0.0001343772746622
-0.0031551695428788
-0.0059687066823244
-0.0084456447511911
-0.0104959234595298
-0.0120710860937833
-0.0131605649366974
-0.0137833189219236
-0.0139791462570428
-0.0138034196570515
-0.013322421349585
-0.012606393545866
-0.0117238108068704
-0.0107386540621519
-0.0097080338746309
-0.0086795520037412
-0.0076880189590156
-0.0067513873800635
-0.0058700190857052
-0.0050319684669375
-0.0042202649638056
-0.0034173966851085
-0.002606774913147
-0.0017733306158334
-0.0009048205101862
6.12123403698206e-06
0.0009604648221284
0.0019518749322742
0.002965428866446
0.0039770524017512
0.0049562286585569
0.0058723427355289
0.0067013669759035
0.0074294423684477
0.0080527933314442
0.0085752699524164
0.0090052634477615
0.0093525312840938
0.0096249729394912
0.0098266154527664
0.0099566560238599
0.0100076235830783
0.0099614048376679
0.0097828870639204
0.0094140199944376
0.0087756905704736
0.0077820848673582
0.0063623869791626
0.0044800993055105
0.0021446552127599
-0.0005849450826644
-0.0036037350073456
-0.0067712925374507
-0.009928336367011
-0.0129163404926657
-0.0155949862673878
-0.0178544670343399
-0.0196223333477973
-0.0208644308149814
-0.0215810760855674
-0.0218009836971759
-0.0215740799903869
-0.0209638848900795
-0.0200410019606351
-0.0188784301280975
-0.0175476521253585
-0.0161145776510238
-0.0146353691816329
-0.0131528452038764
-0.0116948187351226
-0.0102744717150926
-0.0088922549039125
-0.0075399912893772
-0.0062065133824944
-0.0048824460245668
-0.0035630261991173
-0.0022486727684736
-0.0009429370984435
0.0003500999882817
0.0016266179736703
0.0028823649045079
0.0041104294359683
0.0052993181161582
0.0064348028972744
0.0075026988051831
0.0084881130605936
0.0093746269121766
0.0101485215127468
0.0108048822730779
0.0113494265824556
0.0117959650233387
0.0121625894680619
0.0124674858525395
0.0127249248325824
0.0129433311522006
0.0131259839981794
0.0132729718461632
0.0133830979466438
0.0134545937180519
0.0134824234992265
0.0134516786783933
0.0133310239762067
0.0130705824121832
0.0126046724617481
0.0118584185838699
0.0107588479295372
0.009249766357243
0.0073062814772129
0.0049450471997261
0.0022283932194113
-0.0007391702383756
-0.0038214083760976
-0.0068655754439532
-0.0097222328186035
-0.0122650451958179
-0.0144014060497283
-0.0160737559199333
-0.0172587372362613
-0.0179658085107803
-0.0182328578084707
-0.0181190762668848
-0.0176965482532978
-0.0170415863394737
-0.0162267610430717
-0.0153139699250459
-0.0143497008830308
-0.0133643355220556
-0.0123744495213031
-0.0113856866955757
-0.0103954914957284
-0.0093950722366571
-0.0083714937791228
-0.0073115802370011
-0.006206402555108
-0.0050549581646919
-0.0038654601667076
-0.0026528690941631
-0.0014352635480463
-0.0002312501892447
0.0009417999535799
0.0020684094633907
0.0031351577490568
0.0041312365792691
0.0050489380955696
0.0058838953264057
0.0066353119909763
0.0073054926469922
0.0078984843567013
0.0084196459501981
0.0088765369728207
0.0092789912596344
0.009637669660151
0.0099615128710865
0.0102548338472843
0.0105160418897867
0.0107389483600854
0.0109160188585519
0.0110426470637321
0.0111198052763938
0.0111528802663087
0.0111484266817569
0.0111111281439661
0.0110416729003191
0.0109358858317136
0.010784538462758
0.0105720534920692
0.0102729266509413
0.0098476046696305
0.009241540916264
0.0083913328126072
0.0072385119274258
0.0057458141818642
0.0039095478132367
0.0017646122723817
-0.0006189038977026
-0.0031451564282178
-0.005703552160412
-0.0081797400489449
-0.010467005893588
-0.0124774919822812
-0.0141506865620613
-0.0154555952176451
-0.0163867231458425
-0.0169580075889825
-0.017198160290718
-0.0171483885496854
-0.0168600156903266
-0.0163887292146682
-0.015788048505783
-0.0151054356247186
-0.0143786985427141
-0.0136326756328344
-0.0128798075020313
-0.01212321780622
-0.0113596236333251
-0.0105830263346433
-0.0097883325070142
-0.0089731756597757
-0.0081383995711803
-0.0072876112535595
-0.0064266454428434
-0.0055633699521422
-0.0047068977728486
-0.0038657118566334
-0.0030453889630734
-0.0022485388908535
-0.0014774164883419
-0.000735314679332
-2.533441875129938e-05
0.0006509567610919
0.0012929928489029
0.0018989676609635
0.0024648732505738
0.0029868397396057
0.0034638904035091
0.0038977751974016
0.0042910790070891
0.0046469778753817
0.0049706865102052
0.0052703572437167
0.0055566760711371
0.0058406996540725
0.0061305346898734
0.0064292401075363
0.0067350575700402
0.0070421798154711
0.0073387240990996
0.0076015517115592
0.0077919503673911
0.0078563587740063
0.0077323168516159
0.0073570925742387
0.0066787097603082
0.0056694648228585
0.004336467012763
0.002722798846662
0.0009006623295135
-0.0010381937026977
-0.0029932439792901
-0.0048659034073352
-0.0065675103105604
-0.0080252019688487
-0.0091872345656156
-0.0100266635417938
-0.0105415061116218
-0.0107508469372987
-0.0106891077011823
-0.0104013234376907
-0.0099387727677822
-0.0093530807644128
-0.0086896913126111
-0.0079834982752799
-0.0072581619024276
-0.0065270494669675
-0.0057945479638874
-0.0050583621487021
-0.0043100090697407
-0.0035344008356332
-0.0027140397578477
-0.0018363175913691
-0.000898640602827
9.060557931661606e-05
0.0011154161766171
0.0021573835983872
0.0031984783709049
0.0042215287685394
0.0052118641324341
0.0061597959138453
0.0070616835728287
0.0079192202538251
0.00873679574579
0.0095180086791515
0.0102641554549336
0.010975026525557
0.0116488002240657
0.0122806690633296
0.0128628518432378
0.0133859934285283
0.0138398297131061
0.014210432767868
0.0144746229052543
0.0145965050905942
0.0145289963111281
0.0142207527533173
0.0136267971247434
0.0127186551690101
0.0114920921623706
0.0099718309938907
0.0082120802253484
0.0062923301011323
0.0043080993928015
0.002358853816986
0.0005366206169128
-0.0010839062742888
-0.0024518109858036
-0.0035397768951952
-0.0043395073153078
-0.0048579024150967
-0.0051157181151211
-0.005146640818566
-0.0049937604926526
-0.0047033298760652
-0.0043195933103561
-0.0038822013884782
-0.0034231934696435
-0.0029632267542183
-0.0025092046707868
-0.0020541888661682
-0.0015812111087143
-0.0010703038424253
-0.0005045579746365
0.0001268051564693
0.0008271732367575
0.0015921350568532
0.0024101105518639
0.003264183178544
0.0041351448744535
0.0050047519616782
0.0058570667169988
0.0066775325685739
0.0074520828202366
0.008167858235538
0.0088142966851592
0.0093828756362199
0.0098645165562629
0.0102441944181919
0.0104955974966287
0.0105802156031131
0.0104498779401183
0.010049388743937
0.0093213887885212
0.0082171754911541
0.0067116813734173
0.0048166448250412
0.0025859621819108
0.0001105953124351
-0.0024945023469626
-0.005106892902404
-0.0076117101125419
-0.0099121378734707
-0.0119352163746953
-0.0136318979784846
-0.0149730704724788
-0.0159476418048143
-0.0165627226233482
-0.0168415401130914
-0.0168190021067857
-0.0165361911058425
-0.0160352289676666
-0.0153569160029292
-0.0145404674112796
-0.0136222299188375
-0.0126323457807302
-0.0115919550880789
-0.0105139864608645
-0.009406441822648
-0.0082741454243659
-0.007117711007595
-0.0059326100163161
-0.0047110118903219
-0.0034464369527995
-0.0021389438770711
-0.0007978957146406
0.0005587362684309
0.0019067781977355
0.0032182913273572
0.0044650929048657
0.0056238933466374
0.0066805239766836
0.0076300171203911
0.0084732333198189
0.0092149032279849
0.0098633700981736
0.0104276221245527
0.010911944322288
0.0113099534064531
0.0115971891209483
0.0117250438779592
0.0116216260939836
0.0112011507153511
0.010378735139966
0.0090877208858728
0.007296884432435
0.0050228079780936
0.0023339467588812
-0.0006546617951244
-0.0037958682514727
-0.0069299200549721
-0.0099026942625641
-0.012580145150423
-0.0148582691326737
-0.0166672728955745
-0.017971159890294
-0.0187647156417369
-0.0190693400800228
-0.0189285520464181
-0.0184018667787313
-0.0175575297325849
-0.0164675153791904
-0.0152055732905864
-0.0138468462973833
-0.0124702025204896
-0.011163430288434
-0.0100235138088464
-0.0091429026797413
-0.0085833454504609
-0.0083486251533031
-0.0083681438118219
-0.0084972912445664
-0.0085349408909678
-0.0082528730854392
-0.0074290242046117
-0.0058808475732803
-0.0034960797056555
-0.0002529751509428
0.003775873221457
0.0084329545497894
0.0134919434785842
0.0186800472438335
0.0237080585211515
0.028302764520049
0.0322348922491073
0.0353391095995903
0.0375218018889427
0.0387535877525806
0.0390519462525844
0.0384647212922573
0.0370623841881752
0.0349402874708175
0.0322241857647895
0.0290692783892154
0.0256486367434263
0.022134143859148
0.0186769720166921
0.015394034795463
0.0123631358146667
0.0096264937892556
0.0072001325897872
0.0050837937742471
0.0032664951868355
0.0017273778794333
0.0004320213920436
-0.000674148555845
-0.0016670674085617
-0.0026339562609791
-0.0036568706855177
-0.0047973254695534
-0.006085340399295
-0.0075147845782339
-0.009046671912074
-0.010619219392538
-0.0121596660465002
-0.0135940853506326
-0.0148552600294351
-0.0158893056213855
-0.0166597981005907
-0.0171473249793052
-0.0173463504761457
-0.0172625891864299
-0.0169112738221883
-0.0163162667304277
-0.015509320423007
-0.0145281795412302
-0.0134123684838414
-0.0121980449184775
-0.0109168542549014
-0.0095984721556305
-0.0082710664719343
-0.0069592180661857
-0.0056819785386323
-0.0044511249288916
-0.0032712984830141
-0.0021431513596326
-0.001065325224772
-3.43026767950505e-05
0.0009540750179439
0.0019026158843189
0.0028131427243351
0.0036869749892503
0.0045236055739223
0.005319464020431
0.0060687027871608
0.0067654051817953
0.0074061350896954
0.0079920357093214
0.0085286283865571
0.0090225366875529
0.0094771413132548
0.0098903682082891
0.0102554149925708
0.0105609176680445
0.0107868462800979
0.0108970534056425
0.0108334552496671
0.0105170309543609
0.0098576890304684
0.0087705999612808
0.0071945614181458
0.0051083662547171
0.0025416607968509
-0.0004214840009808
-0.0036481861025094
-0.0069732847623527
-0.0102230878546834
-0.0132378339767456
-0.0158870033919811
-0.018077827990055
-0.019757967442274
-0.0209124498069286
-0.0215576849877834
-0.0217339228838682
-0.0214964672923088
-0.0209089815616607
-0.0200398415327072
-0.0189579520374536
-0.0177262499928474
-0.0163962431252002
-0.0150068001821637
-0.0135858170688152
-0.0121520617976784
-0.0107155069708824
-0.0092768976464867
-0.0078287916257977
-0.0063581434078514
-0.0048494371585547
-0.0032886101398617
-0.0016689581098034
3.5462435334920883e-06
0.0017110359622165
0.0034293180797249
0.0051321657374501
0.006792502477765
0.0083831185474991
0.0098802698776125
0.0112686231732368
0.0125425439327955
0.0137030370533466
0.0147539731115102
0.0157009288668632
0.0165522173047065
0.0173186920583248
0.0180113203823566
0.0186393149197101
0.019210796803236
0.0197340063750743
0.0202154628932476
0.0206565354019403
0.0210529007017612
0.0213949084281921
0.0216626599431037
0.0218175742775201
0.0217997133731842
0.0215333197265863
0.0209369957447052
0.0199378300458192
0.0184871517121791
0.0165732130408287
0.0142289912328124
0.0115337707102298
0.008605751208961
0.0055864956229925
0.0026215268298983
-0.0001586163416504
-0.0026525435969233
-0.004793501459062
-0.0065467478707432
-0.0079045873135328
-0.0088829891756176
-0.0095186000689864
-0.009864093735814
-0.0099814273416996
-0.0099338460713624
-0.0097778681665658
-0.0095574492588639
-0.0093029523268342
-0.0090335709974169
-0.0087592396885156
-0.0084816496819257
-0.0081970812752842
-0.0078998422250151
-0.0075832512229681
-0.0072399294003844
-0.0068623665720224
-0.0064427433535456
-0.0059740599244832
-0.0054526636376976
-0.0048792771995067
-0.0042588533833622
-0.0036017363891005
-0.0029254117980599
-0.002253359183669
-0.0016111172735691
-0.0010236632078886
-0.0005142521113157
-0.0001015309244394
0.0002040080726146
0.0004001073539257
0.0004894211888313
0.0004773512482643
0.0003735981881618
0.0001951996237039
-3.376230597496033e-05
-0.0002873931080102
-0.0005443003028631
-0.0007925797253847
-0.001034902408719
-0.0012926943600177
-0.0016070455312728
-0.0020362399518489
-0.0026480499655008
-0.0035064332187175
-0.0046573597937822
-0.0061165615916252
-0.0078616868704557
-0.0098324054852128
-0.0119374236091971
-0.0140671022236347
-0.0161098521202802
-0.0179654490202665
-0.0195517521351575
-0.020808944478631
-0.0217037759721279
-0.0222309473901987
-0.022409239783883
-0.0222738124430179
-0.0218687243759632
-0.0212419796735048
-0.0204426348209381
-0.0195184238255023
-0.0185123477131128
-0.0174596589058637
-0.0163866579532623
-0.0153095945715904
-0.0142346592620015
-0.0131610371172428
-0.012084231711924
-0.0109972134232521
-0.0098913209512829
-0.0087584210559725
