bvp
-0.0456337854266166
-0.0480734780430793
-0.0489595420658588
-0.0484119467437267
-0.0466310828924179
-0.0438703186810016
-0.0404086671769619
-0.0365243330597877
-0.0324704200029373
-0.0284546986222267
-0.0246262941509485
-0.0210711453109979
-0.0178148411214351
-0.0148312514647841
-0.0120564615353941
-0.0094056688249111
-0.0067888074554502
-0.0041239554993808
-0.0013505308888852
0.001560759730637
0.0046060774475336
0.0077524608932435
0.0109433233737945
0.0141059979796409
0.0171635579317808
0.0200471635907888
0.0227024294435977
0.0250903293490409
0.027185995131731
0.0289763119071722
0.0304586309939622
0.0316419005393981
0.0325467586517334
0.0332022681832313
0.0336414165794849
0.0338966995477676
0.0339961946010589
0.0339625515043735
0.0338148511946201
0.0335694849491119
0.0332363806664943
0.0328056588768959
0.0322213061153888
0.0313532538712024
0.0299903415143489
0.0278667826205492
0.024717915803194
0.0203486643731594
0.0146930683404207
0.0078492229804396
8.261390030384064e-05
-0.0082034217193722
-0.0165226012468338
-0.0243724435567855
-0.031299952417612
-0.0369549170136451
-0.041122019290924
-0.0437287054955959
-0.0448336228728294
-0.0446026995778083
-0.0432782247662544
-0.0411467626690864
-0.038508266210556
-0.0356454104185104
-0.0327955670654773
-0.0301304794847965
-0.0277475249022245
-0.0256734024733304
-0.0238758660852909
-0.0222788415849208
-0.0207792092114686
-0.0192636903375387
-0.0176239442080259
-0.0157685466110706
-0.0136326793581247
-0.0111854141578078
-0.0084305917844176
-0.005400457419455
-0.0021474752575159
0.0012629656121134
0.0047592902556061
0.0082687977701425
0.0117233823984861
0.0150663489475846
0.0182562749832868
0.0212684012949466
0.0240912325680255
0.0267154369503259
0.0291234366595745
0.0312885120511055
0.0331822410225868
0.0347828865051269
0.036078929901123
0.0370682850480079
0.037755936384201
0.0381502844393253
0.0382543839514255
0.0380472019314765
0.0374580025672912
0.0363493040204048
0.0345248654484748
0.0317640416324138
0.0278717540204525
0.0227334070950746
0.0163626838475465
0.0089271031320095
0.0007419429020956
-0.007764492649585
-0.0161039158701896
-0.0237898752093315
-0.030399352312088
-0.0356214307248592
-0.0392805524170398
-0.0413335599005222
-0.0418525151908397
-0.0410039126873016
-0.0390252172946929
-0.0361963286995887
-0.0328073762357234
-0.0291280820965766
-0.0253848545253276
-0.0217491798102855
-0.0183341559022665
-0.0151950921863317
-0.0123348459601402
-0.0097145177423954
-0.007267540320754
-0.0049153491854667
-0.0025820927694439
-0.0002062255516648
0.0022507701069116
0.0047991788014769
0.0074210343882441
0.0100745549425482
0.0127013940364122
0.015236584469676
0.0176196284592151
0.0198021382093429
0.0217495448887348
0.0234398208558559
0.0248634852468967
0.0260242857038974
0.0269348882138729
0.0276017747819423
0.0279992669820785
0.0280440784990787
0.0275869295001029
0.0264292992651462
0.024364473298192
0.0212344471365213
0.0169848278164863
0.0116997547447681
0.0056076603941619
-0.0009427072945982
-0.0075296848081052
-0.0137177696451544
-0.01911386474967
-0.0234088581055402
-0.0264008771628141
-0.028003305196762
-0.0282409749925136
-0.0272357426583766
-0.0251847878098487
-0.0223363954573869
-0.0189627911895513
-0.0153295015916228
-0.0116679389029741
-0.0081573035567998
-0.0049158185720443
-0.0019994713366031
0.0005934513173997
0.002912969328463
0.0050424109213054
0.0070791849866509
0.0091160265728831
0.0112266214564442
0.0134574174880981
0.0158245284110307
0.0183125212788581
0.0208755619823932
0.0234432406723499
0.0259287152439355
0.0282370261847972
0.0302757713943719
0.0319672375917434
0.0332570821046829
0.0341178849339485
0.0345452651381492
0.034539733082056
0.0340742394328117
0.0330629982054233
0.0313534028828144
0.0287506096065044
0.0250663999468088
0.0201768241822719
0.0140726156532764
0.0068883635103702
-0.0010963808745145
-0.0094843544065952
-0.0178107246756553
-0.0256044007837772
-0.0324466042220592
-0.0380153320729732
-0.0421103090047836
-0.0446587651968002
-0.0457051321864128
-0.0453897714614868
-0.0439232811331748
-0.0415608957409858
-0.038575891405344
-0.0352323241531848
-0.0317637771368026
-0.0283599663525819
-0.0251558069139719
-0.0222240015864372
-0.0195782147347927
-0.0171859189867973
-0.0149831781163811
-0.012888116762042
-0.0108151547610759
-0.0086891520768404
-0.0064555052667856
-0.0040858751162886
-0.0015815845690667
0.0010265382006764
0.0036845470312982
0.0063258688896894
0.0088800555095076
0.0112792672589421
0.0134662697091698
0.015403201803565
0.0170760042965412
0.0184915866702795
0.0196688864380121
0.0206229351460933
0.021338153630495
0.0217357613146305
0.0216548517346382
0.0208663530647754
0.0191204231232404
0.0162102207541465
0.0120320068672299
0.0066277971491217
0.00020058080554
-0.0069037079811096
-0.0142422802746295
-0.0213364772498607
-0.0277337618172168
-0.0330587290227413
-0.0370469018816947
-0.0395599231123924
-0.0405829288065433
-0.0402088724076747
-0.0386147201061248
-0.0360326059162616
-0.0327209345996379
-0.0289396382868289
-0.0249293632805347
-0.0208946652710437
-0.0169928949326276
-0.0133286491036415
-0.0099520469084382
-0.0068606548011302
-0.0040077213197946
-0.0013183010742068
0.0012905318289995
0.0038922298699617
0.0065404502674937
0.009264750406146
0.0120687307789921
0.0149303302168846
0.017805065959692
0.0206319671124219
0.0233429595828056
0.0258734058588743
0.0281675513833761
0.0301789119839668
0.0318725779652595
0.0332303754985332
0.0342537127435207
0.0349627025425434
0.0353923290967941
0.0355839803814888
0.0355677418410778
0.0353322140872478
0.034790888428688
0.0337664969265461
0.0320102721452713
0.0292556528002023
0.0252897720783948
0.0200192797929048
0.0135124241933226
0.0060089267790317
-0.0021036195103079
-0.0103411115705966
-0.0181909874081611
-0.0251818019896745
-0.0309382248669862
-0.0352128595113754
-0.0378958582878112
-0.0390066243708133
-0.0386726595461368
-0.0371026583015918
-0.0345585606992244
-0.031326875090599
-0.0276908483356237
-0.0239062961190938
-0.0201822370290756
-0.0166688319295644
-0.013453927822411
-0.0105647686868906
-0.0079739587381482
-0.0056117884814739
-0.0033843680284917
-0.0011947047896683
0.0010389508679509
0.0033729029819369
0.0058349189348518
0.0084239011630415
0.011110589839518
0.0138411512598395
0.0165457613766193
0.0191496610641479
0.0215820949524641
0.0237829368561506
0.025708369910717
0.0273341536521911
0.0286545921117067
0.0296785160899162
0.0304260309785604
0.0309271793812513
0.0312196873128414
0.0313439816236496
0.0313365831971168
0.0312220752239227
0.0309987589716911
0.0306143965572118
0.0299415122717618
0.0287706647068262
0.0268345661461353
0.023863174021244
0.0196549445390701
0.0141411079093813
0.0074233934283256
-0.000225156545639
-0.0083955284208059
-0.0166019238531589
-0.0243482906371355
-0.0311897229403257
-0.0367788150906562
-0.0408915728330612
-0.0434362813830375
-0.0444479957222938
-0.0440691448748111
-0.0425217673182487
-0.0400769338011741
-0.0370240919291973
-0.0336443111300468
-0.0301880687475204
-0.0268545541912317
-0.0237749628722667
-0.021007789298892
-0.0185474455356597
-0.0163393355906009
-0.0142970094457268
-0.0123206684365868
-0.0103149693459272
-0.0082029625773429
-0.0059342859312891
-0.0034871897660195
-0.0008669261005707
0.0018958183936774
0.0047476668842136
0.0076193520799279
0.0104354349896311
0.0131239974871277
0.0156239373609423
0.0178898535668849
0.0198954585939645
0.0216334108263254
0.0231106579303741
0.024342942982912
0.0253503695130348
0.0261530354619026
0.0267684813588857
0.0272126626223325
0.0275005865842103
0.0276426319032907
0.0276370868086814
0.0274564996361732
0.0270249210298061
0.0261976420879364
0.0247630886733531
0.0224742405116558
0.0191023685038089
0.0144999865442514
0.0086551131680607
0.0017187735065817
-0.0060007525607943
-0.0140725830569863
-0.0220001582056283
-0.0292903017252683
-0.035518541932106
-0.0403755791485309
-0.0436891466379165
-0.0454255044460296
-0.0456767827272415
-0.0446380116045475
-0.0425770357251167
-0.0398002006113529
-0.0366162434220314
-0.033302903175354
-0.030081832781434
-0.0271047838032245
-0.024449422955513
-0.0221232213079929
-0.0200754273682832
-0.0182141829282045
-0.0164255630224943
-0.0145933218300342
-0.0126172825694084
-0.010427214205265
-0.007989514619112
-0.0053071561269462
-0.0024159350432455
0.0006217579357326
0.003726202994585
0.0068118157796561
0.0097979623824357
0.0126162655651569
0.0152140669524669
0.0175563264638185
0.0196271780878305
0.021429281681776
0.0229792650789022
0.0243000723421573
0.0254127420485019
0.026327546685934
0.0270290486514568
0.0274538099765777
0.0274733081459999
0.0268981177359819
0.0255085248500108
0.0231054667383432
0.0195685811340808
0.0149045409634709
0.0092706214636564
0.0029656263068318
-0.0036090810317546
-0.0100070480257272
-0.015798345208168
-0.0206217486411333
-0.0242182649672031
-0.0264459140598773
-0.0272811781615018
-0.0268090087920427
-0.0252023451030254
-0.0226961188018322
-0.0195589959621429
-0.0160638764500617
-0.0124614862725138
-0.0089604100212454
-0.005712904036045
-0.0028062658384442
-0.0002604117617011
0.0019668657332658
0.0039645540527999
0.0058457269333302
0.0077250311151146
0.0096999732777476
0.011837032623589
0.0141645185649394
0.0166717525571584
0.0193130932748317
0.0220165625214576
0.0246956013143062
0.0272602811455726
0.0296250693500041
0.0317144505679607
0.0334700271487236
0.0348587557673454
0.0358768552541732
0.0365446135401725
0.0368935912847518
0.0369483307003974
0.0367010943591594
0.0360842384397983
0.0349554009735584
0.0331111550331115
0.0303319543600082
0.0264444462954998
0.0213800836354494
0.0152118783444166
0.0081598386168479
0.0005670199170708
-0.0071456348523497
-0.0145360538735985
-0.02119748480618
-0.0268033295869827
-0.0311346128582954
-0.0340894609689712
-0.0356775522232055
-0.0360048040747642
-0.0352523811161518
-0.0336507633328437
-0.0314506068825721
-0.0288959555327892
-0.0262038465589284
-0.0235499367117881
-0.0210591107606887
-0.0188006199896335
-0.0167870204895734
-0.0149785447865724
-0.0132956281304359
-0.0116380518302321
-0.0099054649472236
-0.0080149043351411
-0.0059129726141691
-0.0035820873454213
-0.0010422877967357
0.0016507520340383
0.0044147172011435
0.0071564833633601
0.0097869094461202
0.0122297564521431
0.0144262006506323
0.0163359176367521
0.0179354753345251
0.0192163698375225
0.0201843958348035
0.0208592172712087
0.0212728157639503
0.0214675050228834
0.0214930288493633
0.0214023441076278
0.0212444867938756
0.0210477896034717
0.0207906495779752
0.0203718561679124
0.0196006838232278
0.0182192139327526
0.0159538462758064
0.0125815402716398
0.0079913679510355
0.0022240951657295
-0.0045196749269962
-0.0119031937792897
-0.019502131268382
-0.0268665328621864
-0.03358169272542
-0.0393133796751499
-0.04383110627532
-0.0470147170126438
-0.0488507822155952
-0.0494198575615882
-0.04887655377388
-0.0474262796342372
-0.0453006364405155
-0.0427330955862998
-0.0399372279644012
-0.0370889641344547
-0.0343141704797744
-0.0316828154027462
-0.0292097833007574
-0.0268635470420122
-0.0245827361941337
-0.0222941096872091
-0.0199267361313104
-0.017422541975975
-0.0147429751232266
-0.0118717271834611
-0.0088160131126642
-0.0056080375798046
-0.0023044017143547
0.0010195095092058
0.0042799655348062
0.007397505454719
0.0103076240047812
0.0129657601937651
0.0153477098792791
0.0174484569579362
0.0192785784602165
0.0208577364683151
0.0222085267305374
0.0233541131019592
0.024319838732481
0.0251349732279777
0.0258310083299875
0.0264368932694196
0.0269739404320716
0.0274527668952941
0.0278721116483211
0.0282135047018528
0.0284242946654558
0.02839389257133
0.0279413573443889
0.0268294438719749
0.0248070284724235
0.0216684862971305
0.0173115748912096
0.0117776989936828
0.0052648009732365
-0.0018893608357757
-0.0092495987191796
-0.0163431745022535
-0.022723451256752
-0.0280227214097976
-0.0319870598614215
-0.0344918519258499
-0.0355383194983005
-0.035235621035099
-0.0337763801217079
-0.0314101427793502
-0.0284153074026107
-0.0250705145299434
-0.0216273721307516
-0.0182872787117958
-0.0151861989870667
-0.0123902149498462
-0.0099015422165393
-0.0076714903116226
-0.0056160148233175
-0.0036317948251962
-0.0016132369637489
0.0005307551473379
0.0028640236705541
0.0054159928113222
0.0081793814897537
0.01111357845366
0.014152773655951
0.0172153729945421
0.0202140193432569
0.0230664666742086
0.0257038734853267
0.0280746072530746
0.0301466770470142
0.0319088026881217
0.0333670079708099
0.0345386788249015
0.0354471802711486
0.0361173078417778
0.0365727022290229
0.0368355587124824
0.0369272604584693
0.0368679575622081
0.0366742424666881
0.0363574922084808
0.0359243005514144
0.0353769250214099
0.0347140952944755
0.0339341163635253
0.0330356918275356
0.0320062898099422
0.0307953208684921
0.0292865224182605
0.0272918138653039
0.0245775822550058
0.0209161676466465
0.0161450244486331
0.0102176778018474
0.003237041644752
-0.0045369644649326
-0.0127119701355695
-0.0208163689821958
-0.0283664837479591
-0.0349312648177146
-0.0401828363537788
-0.0439253076910972
-0.0460999906063079
-0.0467726029455661
-0.0461110398173332
-0.0443594008684158
-0.041808858513832
-0.0387650728225708
-0.0355165340006351
-0.0323094613850116
-0.0293293390423059
-0.0266883336007595
-0.0244211107492446
-0.0224922038614749
-0.0208142008632421
-0.0192707758396863
-0.0177385155111551
-0.0161050856113433
-0.0142830079421401
-0.0122185796499252
-0.0098958760499954
-0.0073359990492463
-0.0045916587114334
-0.0017372795846313
0.0011438960209488
0.0039711990393698
0.0066726491786539
0.0091876033693552
0.0114700971171259
0.0134917385876178
0.0152407269924879
0.016719277948141
0.0179421827197074
0.0189347341656684
0.0197294931858778
0.02036321349442
0.0208735242486
0.0212944243103265
0.0216512586921453
0.0219576675444841
0.0222156681120395
0.0224181581288576
0.022552378475666
0.022600719705224
0.0225357562303543
0.0223066471517086
0.0218168720602989
0.0209069997072219
0.0193615034222602
0.0169444065541028
0.0134533271193504
0.0087771387770771
0.0029428601264953
-0.0038621481508016
-0.0113004390150308
-0.0189256519079208
-0.0262466147541999
-0.0327977761626243
-0.0381967052817344
-0.0421806834638118
-0.044623602181673
-0.0455352514982223
-0.0450458377599716
-0.0433788374066352
-0.0408158749341964
-0.0376595109701156
-0.0342001877725124
-0.0306907761842012
-0.0273303035646677
-0.0242557190358638
-0.0215382296591997
-0.0191842280328273
-0.017144376412034
-0.0153301954269409
-0.0136331915855407
-0.0119433514773845
-0.0101658618077635
-0.0082349330186843
-0.0061218291521072
-0.003833801485598
-0.0014053862541913
0.0011129528284072
0.0036642556078732
0.0061905020847916
0.0086356019601225
0.01094751060009
0.0130802923813462
0.0149982739239931
0.0166811496019363
0.0181249715387821
0.0193394217640161
0.0203457735478878
0.021174669265747
0.0218617022037506
0.0224428065121173
0.02294896915555
0.0233928710222244
0.0237439088523387
0.023903677240014
0.023699514567852
0.0229050386697053
0.0212857294827699
0.0186575334519147
0.0149418450891971
0.0102010481059551
0.0046430388465523
-0.0014042844995856
-0.0075367512181401
-0.0133257247507572
-0.0183721482753753
-0.0223548766225576
-0.0250633582472801
-0.0264102667570114
-0.0264275297522544
-0.0252514705061912
-0.0231002513319253
-0.0202443413436412
-0.0169719699770212
-0.0135550526902079
-0.0102226762101054
-0.007145432755351
-0.0044287927448749
-0.0021123485639691
-0.000174056738615
0.0014594178646802
0.0028949817642569
0.0042504221200942
0.0056334836408495
0.0071276910603046
0.0087857935577631
0.0106294024735689
0.0126511957496404
0.014816990122199
0.0170684456825256
0.0193281397223472
0.0215078759938478
0.0235197264701128
0.0252877809107303
0.026757450774312
0.0279001481831073
0.0287138521671295
0.0292186215519905
0.0294414386153221
0.0293871667236089
0.0290058217942714
0.0281762182712554
0.0267192684113979
0.0244379211217165
0.0211713090538978
0.0168501604348421
0.0115389563143253
0.0054500866681337
-0.001076418091543
-0.007620935793966
-0.0137442145496606
-0.0190459918230772
-0.0232142433524131
-0.0260561611503362
-0.0275063216686248
-0.0276169627904891
-0.0265374016016721
-0.0244876984506845
-0.0217310097068548
-0.0185461267828941
-0.015200899913907
-0.0119300065562129
-0.0089181009680032
-0.0062868990935385
-0.0040880851447582
-0.0023040031082928
-0.000854558777064
0.0003909189254045
0.001595014706254
0.0029263300821185
0.0045314417220652
0.0065102176740765
0.0088983764871954
0.0116614503785967
0.0147011149674654
0.0178715232759714
0.0210013166069984
0.0239152740687131
0.0264532659202814
0.0284875817596912
0.0299362875521183
0.0307679288089275
0.030997559428215
0.0306777954101562
0.0298852454870939
0.0286976173520088
0.0271596163511276
0.0252491943538188
0.0228632278740406
0.0198329053819179
0.0159661080688238
0.0111058810725808
0.0051892362534999
-0.0017109364271163
-0.0093733686953783
-0.0174477379769086
-0.0255007967352867
-0.0330785438418388
-0.0397683233022689
-0.0452461168169975
-0.0493019595742225
-0.0518462434411048
-0.0529035329818725
-0.0525959581136703
-0.0511185564100742
-0.04871217161417
-0.045636348426342
-0.0421440713107585
-0.0384609960019588
-0.0347695350646972
-0.0311987437307834
-0.0278210192918777
-0.0246556773781776
-0.0216783378273248
-0.0188329722732305
-0.0160448942333459
-0.0132353939116001
-0.0103362798690795
-0.0073007950559258
-0.0041095800697803
-0.0007728962227702
0.0026703178882598
0.0061576273292303
0.0096111129969358
0.0129458829760551
0.0160801168531179
0.0189460180699825
0.0214969851076602
0.0237089004367589
0.0255768205970525
0.027109507471323
0.02832642942667
0.0292577594518661
0.0299419648945331
0.0304191336035728
0.0307191349565982
0.0308387540280818
0.0307101178914308
0.0301782991737127
0.0290080830454826
0.0269263908267021
0.0236887075006961
0.0191489458084106
0.0133126629516482
0.0063580172136425
-0.001378612127155
-0.0094448123127222
-0.017333636060357
-0.0245525054633617
-0.0306837763637304
-0.0354262664914131
-0.0386140532791614
-0.0402141287922859
-0.0403098240494728
-0.0390779487788677
-0.0367628075182437
-0.0336474291980266
-0.0300241746008396
-0.026167856529355
-0.0223125573247671
-0.0186340752989053
-0.0152421034872531
-0.0121818287298083
-0.0094417966902256
-0.0069666532799601
-0.0046715140342712
-0.0024568196386098
-0.0002255290746688
0.0020999633707106
0.0045662834309041
0.0071848994120955
0.0099335741251707
0.0127619374543428
0.0156012745574116
0.018375776708126
0.0210111998021602
0.0234405547380447
0.025608591735363
0.0274754669517278
0.0290185641497373
0.0302320644259452
0.0311252791434526
0.031720831990242
0.0320529490709304
0.0321651473641395
0.0321062393486499
0.0319240391254425
0.0316540226340293
0.031297780573368
0.0307919718325138
0.0299834087491035
0.0286333076655864
0.0264583937823772
0.0231960117816925
0.0186735242605209
0.0128634879365563
0.0059114745818078
-0.0018691415898501
-0.0100350901484489
-0.018075319007039
-0.025482315570116
-0.0318177603185176
-0.0367603823542594
-0.0401294976472854
-0.0418857969343662
-0.0421150214970111
-0.0410004369914531
-0.0387912653386592
-0.03577371686697
-0.03224578499794
-0.0284920558333396
-0.0247582681477069
-0.0212309435009956
-0.0180265363305807
-0.0151901887729763
-0.0127026783302426
-0.0104953534901142
-0.0084715504199266
-0.0065280338749289
-0.004570810124278
-0.0025258820969611
-0.0003472310490906
0.0019784104079008
0.0044329301454126
0.0069742086343467
0.0095445420593023
0.012078327126801
0.0145110115408897
0.0167878456413745
0.0188688077032566
0.0207296926528215
0.0223614890128374
0.0237687584012746
0.0249667391180992
0.0259763114154338
0.0268176216632127
0.0275065246969461
0.0280553419142961
0.028474798426032
0.0287764351814985
0.0289744194597005
0.0290816072374582
0.0290981456637382
0.0289925709366798
0.0286762937903404
0.0279836133122444
0.0266742408275604
0.024465063586831
0.0210868846625089
0.0163543373346328
0.0102292774245142
0.0028555542230606
-0.0054453248158097
-0.0142131140455603
-0.0229122526943683
-0.0310067906975746
-0.0380291640758514
-0.0436286851763725
-0.047595702111721
-0.0498646274209022
-0.0505008324980735
-0.0496769435703754
-0.0476443096995353
-0.0447017922997474
-0.0411625318229198
-0.0373218804597854
-0.033430278301239
-0.0296737849712371
-0.026165135204792
-0.0229467116296291
-0.0200013741850852
-0.0172662138938903
-0.0146513096988201
-0.012063069269061
-0.0094237569719553
-0.0066825640387833
-0.0038200977724045
-0.0008483384735882
0.0021926155313849
0.005240224301815
0.0082182511687278
0.011048100888729
0.0136598534882068
0.0160007029771804
0.0180399995297193
0.0197704099118709
0.0212047565728425
0.0223702546209096
0.0233033895492553
0.0240453388541936
0.024636972695589
0.0251152552664279
0.0255119483917951
0.0258533153682947
0.0261599533259868
0.0264464356005191
0.0267207752913236
0.0269836895167827
0.0272260289639234
0.0274191796779632
0.0274932608008384
0.0273093450814485
0.0266466010361909
0.0252235531806945
0.0227523054927587
0.0190079733729362
0.0138924913480877
0.0074752252548933
1.1650845408439636e-06
-0.0081332027912139
-0.0164319109171628
-0.0243689082562923
-0.0314590036869049
-0.037316720932722
-0.0416934601962566
-0.0444890186190605
-0.0457410514354705
-0.0455998703837394
-0.0442955121397972
-0.0421032570302486
-0.0393127799034118
-0.0362022779881954
-0.0330154262483119
-0.0299409292638301
-0.0270982459187507
-0.0245334487408399
-0.0222263894975185
-0.0201065428555011
-0.0180737636983394
-0.0160199906677007
-0.0138470288366079
-0.0114787742495536
-0.0088692232966423
-0.0060062701813876
-0.0029114540666341
0.0003633797168731
0.003742444794625
0.0071351760998368
0.0104461619630455
0.013584217056632
0.0164704918861389
0.0190444439649581
0.021266333758831
0.0231174286454916
0.0246000252664089
0.0257370471954345
0.0265697389841079
0.027152569964528
0.0275447629392147
0.0278002973645925
0.0279598608613014
0.0280466713011264
0.0280615612864494
0.0279668644070625
0.0276603177189826
0.0269597861915826
0.0256183743476867
0.0233697816729545
0.0199906695634126
0.0153645817190408
0.0095303319394588
0.0026995027437806
-0.0047627217136323
-0.0123873837292194
-0.0196687318384647
-0.0261328760534524
-0.0313943438231945
-0.0351918637752532
-0.0374027676880359
-0.0380399189889431
-0.0372341759502887
-0.0352069176733493
-0.0322395674884319
-0.0286432690918445
-0.0247280672192573
-0.0207727290689945
-0.0169993713498115
-0.0135574480518698
-0.0105186905711889
-0.0078822551295161
-0.0055884616449475
-0.0035371193662285
-0.0016075763851404
0.0003197258338332
0.0023428741842508
0.0045245047658681
0.0068875751458108
0.0094196554273366
0.0120802829042077
0.0148073099553585
0.0175241865217685
0.0201509781181812
0.0226148720830678
0.0248556584119796
0.0268292687833309
0.0285112615674734
0.0298973806202411
0.0310015492141246
0.031853437423706
0.0324930399656295
0.0329588949680328
0.0332698188722133
0.033399224281311
0.0332482978701591
0.03263795748353
0.0313322395086288
0.0290874131023883
0.025714561343193
0.021139258518815
0.0154390484094619
0.0088483514264225
0.00173199060373
-0.0054660299792885
-0.01228635199368
-0.018314603716135
-0.0232260189950466
-0.0268109124153852
-0.0289830695837736
-0.0297727212309837
-0.0293076038360595
-0.0277894251048564
-0.0254699438810348
-0.0226245243102312
-0.0195223428308963
-0.01639936119318
-0.0134399905800819
-0.0107669793069362
-0.0084376856684684
-0.0064465701580047
-0.0047343363985419
-0.0032038930803537
-0.0017405949765816
-0.0002330897841602
0.0014081806875765
0.003238565288484
0.0052750939503312
0.0074988100677728
0.0098600164055824
0.0122852474451065
0.0146876638755202
0.0169800464063882
0.0190856698900461
0.0209451615810394
0.0225208383053541
0.0237979851663112
0.0247815214097499
0.0254900436848402
0.0259507335722446
0.0261938981711864
0.026241198182106
0.0260827764868736
0.0256470330059528
0.0247800685465335
0.0232550334185361
0.0208160262554883
0.0172432288527488
0.0124186854809522
0.0063733253628015
-0.0006969571113586
-0.0084485076367855
-0.0164357330650091
-0.0241743773221969
-0.0312068462371826
-0.0371559150516986
-0.0417584553360939
-0.0448778755962848
-0.046499840915203
-0.0467161312699317
-0.0457009300589561
-0.0436841510236263
-0.0409248545765876
-0.0376854389905929
-0.0342074446380138
-0.0306919887661933
-0.0272875875234603
-0.0240849219262599
-0.0211180336773395
-0.0183730777353048
-0.0158030521124601
-0.0133432410657405
-0.0109242880716919
-0.0084837824106216
-0.005975411273539
-0.0033740848302841
-0.0006790184415876
0.0020855411421507
0.0048745749518275
0.0076299933716654
0.0102893253788352
0.0127941267564892
0.0150960450991988
0.0171603728085756
0.0189682375639677
0.0205159951001405
0.0218108333647251
0.0228664986789226
0.023702410981059
0.0243435483425855
0.0248174667358398
0.0251491535454988
0.0253566429018974
0.0254446659237146
0.0253874287009239
0.0251011215150356
0.0244236625730991
0.0231208130717277
0.0209248214960098
0.0175975859165191
0.0130001604557037
0.0071460381150245
0.0002201525494456
-0.0074404957704246
-0.0153941567987203
-0.023154892027378
-0.0302549358457326
-0.0362991616129875
-0.0410032793879509
-0.0442118719220161
-0.0458969548344612
-0.0461413264274597
-0.0451133102178573
-0.0430388264358043
-0.0401736348867416
-0.0367775075137615
-0.0330923907458782
-0.029325483366847
-0.0256372243165969
-0.02213423140347
-0.018867801874876
-0.0158387087285518
-0.0130077097564935
-0.0103095564991235
-0.0076682870276272
-0.005012696608901
-0.0022894549183547
0.0005299164913594
0.0034478926099836
0.0064420504495501
0.0094677237793803
0.0124639458954334
0.0153628094121813
0.018100194633007
0.0206244811415672
0.0229004099965095
0.0249080918729305
0.0266395416110754
0.0280957669019699
0.0292859338223934
0.0302276648581028
0.0309470295906066
0.0314770080149173
0.0318532064557075
0.0321077182888984
0.032263845205307
0.0323343575000762
0.0323233753442764
0.0322281792759895
0.0320334434509277
0.0316918268799781
0.0310989618301391
0.030080834403634
0.0284043680876493
0.0258144997060298
0.0220936220139265
0.0171267241239547
0.0109503585845232
0.0037688640877604
-0.004065943416208
-0.0121016856282949
-0.0198467299342155
-0.0268350429832935
-0.0326820835471153
-0.0371232107281684
-0.0400310754776001
-0.0414106883108615
-0.0413778387010097
-0.0401321351528167
-0.037930853664875
-0.0350614041090011
-0.0318114608526229
-0.0284410826861858
-0.0251595471054315
-0.0221084989607334
-0.0193558614701032
-0.0169025529175996
-0.0146973337978124
-0.0126545894891023
-0.0106738926842808
-0.0086585283279418
-0.0065288953483104
-0.0042317039333283
-0.0017460794188082
0.0009155259467661
0.0037108084652572
0.0065735299140214
0.0094222463667392
0.0121714044362306
0.0147433280944824
0.017078710719943
0.0191410277038812
0.0209135748445987
0.022394835948944
0.0235967636108398
0.0245437435805797
0.025269728153944
0.0258143674582242
0.0262173414230346
0.0265110153704881
0.0267158057540655
0.0268403589725494
0.0268844552338123
0.0268440376967191
0.0267168991267681
0.0265040602535009
0.0262043867260217
0.0258018374443054
0.0252433791756629
0.0244135148823261
0.0231242664158344
0.0211359560489654
0.0182053633034229
0.0141453649848699
0.0088802715763449
0.0024840431287884
-0.0048096473328769
-0.0126302409917116
-0.0205195564776659
-0.0279946811497211
-0.0346119441092014
-0.040018793195486
-0.0439835749566555
-0.0464041605591774
-0.0473025329411029
-0.0468100123107433
-0.0451444089412689
-0.042579922825098
-0.0394125394523143
-0.0359266586601734
-0.0323688015341758
-0.028930127620697
-0.025736941024661
-0.0228491704910993
-0.0202662553638219
-0.0179379619657993
-0.015778511762619
-0.0136839663609862
-0.0115515328943729
-0.0092979129403829
-0.0068723927251994
-0.0042604682967066
-0.0014797146432101
0.0014263316988945
0.004394887946546
0.0073520997539162
0.0102223847061395
0.0129397036507725
0.0154594834893941
0.017766784876585
0.0198772884905338
0.02183030359447
0.0236761402338743
0.025461982935667
0.0272195022553205
0.0289564318954944
0.0306540615856647
0.0322697013616561
0.0337407179176807
0.034988947212696
0.0359253250062465
0.0364491567015647
0.0364357307553291
0.0357206426560878
0.0341009870171546
0.0313647426664829
0.0273418687283992
0.0219587311148643
0.0152776949107646
0.0075126513838768
-0.000982376281172
-0.0097500840201973
-0.0182856749743223
-0.0261017866432666
-0.0327887460589408
-0.0380557850003242
-0.0417486019432544
-0.0438479259610176
-0.0444541536271572
-0.0437611751258373
-0.0420246422290802
-0.0395315177738666
-0.0365722887217998
-0.0334140583872795
-0.0302777215838432
-0.0273234285414218
-0.0246441047638654
-0.0222657136619091
-0.0201544426381587
-0.018230939283967
-0.016390174627304
-0.0145238414406776
-0.0125400191172957
-0.010374579578638
-0.0079937586560845
-0.0053926249966025
-0.0025936216115951
0.0003547985106706
0.0033828606829047
0.0064087528735399
0.0093490649014711
0.012128154747188
0.0146855944767594
0.0169790592044591
0.018983544781804
0.0206913910806179
0.0221136212348938
0.0232791490852832
0.0242293961346149
0.0250094830989837
0.0256587788462638
0.0261993408203125
0.0266152005642652
0.0268229097127914
0.0266523994505405
0.0258600637316703
0.0241763889789581
0.021372465416789
0.017324524000287
0.0120588801801204
0.0057673547416925
-0.0012094336561858
-0.0084263682365417
-0.0153939491137862
-0.0216416921466588
-0.0267751924693584
-0.0305171944200992
-0.0327265039086341
-0.0333970449864864
-0.0326434485614299
-0.0306768976151943
-0.0277742594480514
-0.0242450237274169
-0.0203984342515468
-0.0165119357407093
-0.0128055047243833
-0.0094266645610332
-0.0064471643418073
-0.0038686115294694
-0.0016344953328371
0.000352781265974
0.0022124014794826
0.0040661767125129
0.0060209771618247
0.0081528620794415
0.0104964906349778
0.0130432052537798
0.0157462749630212
0.0185302421450614
0.021302755922079
0.0239674467593431
0.0264364499598741
0.0286412723362445
0.0305391103029251
0.0321124419569969
0.0333649031817913
0.0343160405755043
0.0349905639886856
0.0353974252939224
0.0355023555457592
0.0352033302187919
0.0343228615820407
0.0326306819915771
0.0298977419734001
0.0259656831622123
0.0208064503967762
0.0145511804148554
0.0074843284673988
9.877607226371763e-06
-0.007402816787362
-0.01428232062608
-0.0202126130461692
-0.0248756874352693
-0.0280778929591178
-0.0297590270638465
-0.029983477666974
-0.0289186127483844
-0.0268075726926326
-0.0239387992769479
-0.0206139516085386
-0.0171185303479433
-0.013696901500225
-0.0105318911373615
-0.0077321617864072
-0.0053301956504583
-0.0032907291315495
-0.0015276153571903
7.439916953444481e-05
0.0016374187543988
0.00327197345905
0.0050640450790524
0.0070660496130585
0.0092909755185246
0.0117120761424303
0.0142696145921945
0.0168814286589622
0.0194536540657281
0.0218913853168487
0.0241094268858432
0.0260408874601125
0.0276429876685142
0.0289006046950817
0.0298244338482618
0.0304422304034233
0.0307858660817146
0.0308736823499202
0.030683621764183
0.0301223304122686
0.0290098972618579
0.0270968787372112
0.024114079773426
0.0198423713445663
0.0141823897138237
0.007202249020338
-0.0008505787700414
-0.0095746265724301
-0.0184691976755857
-0.0270035248249769
-0.0346836522221565
-0.0411070398986339
-0.0459990128874778
-0.049225527793169
-0.0507849901914596
-0.0507890358567237
-0.0494372136890888
-0.0469878055155277
-0.0437285155057907
-0.0399489626288414
-0.0359172821044921
-0.0318617597222328
-0.0279555115848779
-0.0243064630776643
-0.0209578201174736
-0.0178978592157363
-0.0150735452771186
-0.0124057829380035
-0.009805385954678
-0.0071880463510751
-0.004486946389079
-0.0016623551491647
0.0012915390543639
0.0043453341349959
0.0074415877461433
0.0105059817433357
0.0134568493813276
0.0162136349827051
0.0187059193849563
0.0208812803030014
0.0227101817727088
0.0241875499486923
0.0253300759941339
0.0261700116097927
0.0267487987875938
0.027112066745758
0.0273042730987072
0.0273629501461982
0.0273132193833589
0.0271550007164478
0.0268354266881942
0.0262181051075458
0.0250740963965654
0.0231095682829618
0.0200266819447278
0.0155998058617115
0.0097434241324663
0.0025521256029605
-0.0056961728259921
-0.0145714618265628
-0.0235487669706344
-0.0320785865187644
-0.0396561101078987
-0.0458774641156196
-0.0504756048321723
-0.0533316358923912
-0.0544644817709922
-0.0540090799331665
-0.0521901696920394
-0.0492927022278308
-0.0456297174096107
-0.0415101870894432
-0.0372103005647659
-0.0329516902565956
-0.0288877617567777
-0.0250990744680166
-0.0215993132442235
-0.0183495730161666
-0.0152758602052927
-0.0122865140438079
-0.009289039298892
-0.006207107566297
-0.0029952586628496
0.0003543796483427
0.0038151261396706
0.0073349485173821
0.0108478525653481
0.0142836859449744
0.017574081197381
0.0206562429666519
0.0234759971499443
0.0259897764772176
0.0281668622046709
0.0299929324537515
0.0314725115895271
0.0326272174715995
0.0334904864430427
0.0341025851666927
0.0345073156058788
0.0347477160394191
0.0348604544997215
0.0348722711205482
0.0347989611327648
0.0346420407295227
0.0343768708407878
0.0339305214583873
0.0331581011414527
0.0318359024822711
0.0296857059001922
0.0264294520020484
0.0218608770519495
0.0159134641289711
0.00870166067034
0.0005217297002673
-0.008183903992176
-0.01688670553267
-0.0250449161976575
-0.0321757458150386
-0.0379122085869312
-0.0420338287949562
-0.044469017535448
-0.0452772378921508
-0.044622428715229
-0.0427447259426116
-0.039932508021593
-0.0364940203726291
-0.0327273309230804
-0.0288914311677217
-0.0251856409013271
-0.0217407643795013
-0.0186183489859104
-0.0158157050609588
-0.0132777672260999
-0.0109153697267174
-0.0086267385631799
-0.0063174897804856
-0.0039149541407823
-0.0013753729872405
0.0013146176934242
0.0041394755244255
0.0070579480379819
0.0100087132304906
0.0129189323633909
0.0157153960317373
0.0183336827903985
0.0207206737250089
0.0228352732956409
0.0246520638465881
0.0261638164520263
0.0273795016109943
0.0283197704702615
0.0290119908750057
0.029486171901226
0.0297728013247251
0.029902271926403
0.0299044549465179
0.029806287959218
0.0296276211738586
0.0293764788657426
0.0290386006236076
0.0285548642277717
0.0277951955795288
0.0265514124184846
0.0245624911040067
0.0215670373290777
0.0173697248101234
0.0119031462818384
0.0052642431110143
-0.0022849729284644
-0.0103489719331264
-0.0184524971991777
-0.0261042695492506
-0.03285788372159
-0.0383602641522884
-0.0423822179436683
-0.0448289364576339
-0.0457328855991363
-0.0452347695827484
-0.0435581021010875
-0.0409813523292541
-0.0378082692623138
-0.0343356281518936
-0.0308216996490955
-0.0274623502045869
-0.0243792925029993
-0.0216204859316349
-0.0191694740206003
-0.0169611237943172
-0.014902139082551
-0.0128916511312127
-0.0108369709923863
-0.0086647840216755
-0.0063304440118372
-0.0038242272567003
-0.0011709423270076
0.0015769314486533
0.0043495008721947
0.0070701702497899
0.009664561599493
0.0120675675570964
0.0142290731891989
0.0161179210990667
0.0177238415926694
0.019055888056755
0.0201362203806638
0.0209926012903451
0.0216536745429039
0.0221475269645452
0.0225022174417972
0.0227458868175745
0.0229044612497091
0.0229974016547203
0.0230301320552825
0.0229777339845895
0.0227603688836097
0.0222247708588838
0.0211502388119697
0.0192851237952709
0.0164037272334098
0.012366677634418
0.0071688876487314
0.0009632199071347
-0.0059463432990014
-0.0131413787603378
-0.0201480314135551
-0.0265049673616886
-0.0318235121667385
-0.0358274541795253
-0.0383704304695129
-0.0394351631402969
-0.0391191989183425
-0.0376115627586841
-0.0351632758975029
-0.032055128365755
-0.0285676941275596
-0.0249562542885541
-0.021430192515254
-0.0181392263621091
-0.0151682319119572
-0.0125378128141164
-0.0102115245535969
-0.0081124054268002
-0.0061425445601344
-0.0041991109028458
-0.0021883314475417
-3.857351839542389e-05
0.0022899704053997
0.0048007126897573
0.007462347857654
0.0102173183113336
0.0129941906780004
0.0157185494899749
0.0183199439197778
0.0207365341484546
0.0229194592684507
0.0248374454677104
0.0264793597161769
0.0278525128960609
0.0289787761867046
0.0298877321183681
0.0305994227528572
0.0310944281518459
0.0312844514846801
0.0310048051178455
0.0300401747226715
0.0281759481877088
0.0252569839358329
0.0212376695126295
0.0162123367190361
0.0104186683893203
0.0042108087800443
-0.0019926875829696
-0.0077697318047285
-0.0127481231465935
-0.016645323485136
-0.0192915759980678
-0.0206341855227947
-0.0207271594554185
-0.0197124928236007
-0.0177967902272939
-0.015226436778903
-0.0122623331844806
-0.0091528743505477
-0.0061082616448402
-0.0032835276797413
-0.0007729949429631
0.0013877940364181
0.0032164454460144
0.0047740787267684
0.0061495378613471
0.0074384403415024
0.008724620565772
0.010071063414216
0.0115181636065244
0.0130823077633976
0.0147527083754539
0.0164919011294841
0.0182437375187873
0.0199446324259042
0.0215329676866531
0.0229551773518323
0.0241690315306186
0.0251455921679735
0.0258703511208295
0.0263413600623607
0.0265587922185659
0.0265019349753856
0.026100680232048
0.0252189598977565
0.02366553992033
0.0212334897369146
0.0177548080682754
0.0131526105105876
0.0074783349409699
0.0009262571111321
-0.0061801243573427
-0.0134287606924772
-0.0203763209283351
-0.0266072042286396
-0.0317815579473972
-0.035667136311531
-0.0381542108952999
-0.0392511114478111
-0.0390638299286365
-0.0377709940075874
-0.0356008931994438
-0.0328085198998451
-0.0296511501073837
-0.0263651944696903
-0.0231461357325315
-0.0201330464333295
-0.0174023695290088
-0.0149730797857046
-0.0128185618668794
