bvp
-0.0141803408041596
-0.0123153533786535
-0.0103739015758037
-0.0083160921931266
-0.0061285579577088
-0.0038231222424656
-0.0014339124318212
0.0009873895905911
0.003378388704732
0.0056741833686828
0.0078149642795324
0.009751982986927
0.0114519614726305
0.0128993624821305
0.0140972277149558
0.0150665501132607
0.015841756016016
0.0164626725018024
0.016967698931694
0.0173905417323112
0.0177575666457414
0.0180847570300102
0.0183732360601425
0.0185966342687606
0.0186799876391887
0.0184846296906471
0.0178153272718191
0.0164536908268928
0.0142089948058128
0.0109714334830641
0.0067521394230425
0.0016992571763694
-0.0039128372445702
-0.0097193736582994
-0.0153187718242406
-0.0203295014798641
-0.0244374312460422
-0.0274267457425594
-0.0291906744241714
-0.029726319015026
-0.0291229169815778
-0.0275455564260482
-0.0252121575176715
-0.022367063909769
-0.0192559994757175
-0.016102097928524
-0.0130830965936183
-0.0103165181353688
-0.0078566707670688
-0.0056991130113601
-0.0037910100072622
-0.0020485697314143
-0.0003766054287552
0.0013161287643015
0.0031054094433784
0.0050410986877977
0.0071399244479835
0.0093848770484328
0.0117305191233754
0.0141117274761199
0.0164532158523798
0.0186776630580425
0.0207130722701549
0.0225003380328416
0.0239991135895252
0.0251902714371681
0.0260750409215688
0.0266706123948097
0.0270044561475515
0.0271102786064147
0.0270224325358867
0.0267638601362705
0.0263271126896142
0.0256542395800352
0.0246277563273906
0.0230837222188711
0.020847825333476
0.0177832189947366
0.0138340331614017
0.0090546384453773
0.0036196745932102
-0.0021904713939875
-0.0080268280580639
-0.0135210482403635
-0.0183360558003187
-0.0222072768956422
-0.0249654036015272
-0.0265430361032485
-0.0269713308662176
-0.0263654757291078
-0.0249002501368522
-0.0227846130728721
-0.0202391073107719
-0.0174731500446796
-0.0146651789546012
-0.0119515983387827
-0.0094227315858006
-0.0071224276907742
-0.0050524654798209
-0.0031808791682124
-0.0014523919671773
0.0001982660032808
0.0018323459662497
0.0034965388476848
0.005216003395617
0.0069910264573991
0.0087992586195468
0.0106013063341379
0.0123471934348344
0.0139856543391942
0.0154755320399999
0.0167944058775901
0.0179409626871347
0.0189302153885364
0.0197841972112655
0.0205238107591867
0.0211650300770998
0.021716920658946
0.0221785251051187
0.0225333236157894
0.0227374993264675
0.0227022040635347
0.0222799088805913
0.0212689787149429
0.0194448847323656
0.0166110340505838
0.0126522248610854
0.0075776916928589
0.0015432252548635
-0.005158097948879
-0.0121359732002019
-0.0189594868570566
-0.0252150800079107
-0.0305556822568178
-0.0347329452633857
-0.037609726190567
-0.0391573123633861
-0.0394433476030826
-0.0386133939027786
-0.0368673764169216
-0.0344341285526752
-0.0315477922558784
-0.0284271128475666
-0.0252586547285318
-0.0221863519400358
-0.0193077474832534
-0.016673270612955
-0.0142878638580441
-0.0121183283627033
-0.0101058790460228
-0.0081799533218145
-0.0062708603218197
-0.0043203611858189
-0.002289680764079
-0.0001637367531657
0.0020493334159255
0.0043229609727859
0.0066192904487252
0.0088942013680934
0.0110992360860109
0.0131854731589555
0.0151112228631973
0.0168485734611749
0.0183851048350334
0.0197225250303745
0.0208736862987279
0.0218581520020961
0.022697377949953
0.0234104823321104
0.0240091867744922
0.0244867578148841
0.0247995369136333
0.0248489491641521
0.0244753845036029
0.0234738532453775
0.0216339249163866
0.0187932830303907
0.0148877818137407
0.0099837174639105
0.0042830831371247
-0.0018990595126524
-0.0081773791462183
-0.0141494171693921
-0.0194496735930442
-0.0237936917692422
-0.0270025208592414
-0.0290053002536296
-0.0298266261816024
-0.0295686293393373
-0.0283916797488927
-0.0264935083687305
-0.0240890346467494
-0.0213908199220895
-0.0185887962579727
-0.0158345680683851
-0.0132339550182223
-0.0108431642875075
-0.0086674224585294
-0.0066670393571257
-0.0047714514657855
-0.0028970409184694
-0.0009642606601119
0.0010888865217566
0.0032968325540423
0.0056607029400765
0.0081491842865943
0.0107045900076627
0.0132516454905271
0.0157080143690109
0.0179945472627878
0.0200439691543579
0.021807312965393
0.023255992680788
0.0243806038051843
0.0251903720200061
0.0257118754088878
0.0259834043681621
0.0260479636490345
0.0259492825716733
0.0257285088300704
0.0254164598882198
0.0250187683850526
0.024495143443346
0.0237402766942977
0.022579813376069
0.0207924786955118
0.0181565545499324
0.014506627805531
0.0097847953438758
0.0040733804926276
-0.0024005216546356
-0.0092909475788474
-0.0161822121590375
-0.0226473957300186
-0.0283029600977897
-0.0328517034649848
-0.0361078232526779
-0.0380016379058361
-0.0385704934597015
-0.0379425808787345
-0.036314383149147
-0.0339237824082374
-0.0310236103832721
-0.0278578102588653
-0.0246402136981487
-0.0215373504906892
-0.0186575893312692
-0.0160483065992593
-0.0137015394866466
-0.011566175147891
-0.0095639145001769
-0.0076055051758885
-0.005604843609035
-0.0034923776984214
-0.0012266021221876
0.0012016054242849
0.0037718033418059
0.006439093966037
0.0091404914855957
0.0118033969774842
0.0143544655293226
0.0167278200387954
0.018872182816267
0.0207548812031745
0.0223613791167736
0.0236916076391935
0.0247566122561693
0.0255770720541477
0.0261816401034593
0.0266047492623329
0.0268838666379451
0.0270544365048408
0.027144156396389
0.0271686017513275
0.027121627703309
0.0269529111683368
0.0265428330749273
0.025697860866785
0.0241764206439256
0.0217368863523006
0.018194792792201
0.0134760187938809
0.0076527707278728
0.000952476169914
-0.006265397183597
-0.0135587900876998
-0.0204637013375759
-0.0265543088316917
-0.031494665890932
-0.0350712649524211
-0.0371999703347682
-0.037914365530014
-0.0373469069600105
-0.0357051976025104
-0.0332428216934204
-0.0302295889705419
-0.0269254557788372
-0.0235589258372783
-0.0203101206570863
-0.0172998886555433
-0.0145868631079792
-0.0121720526367425
-0.0100098177790641
-0.0080242082476615
-0.0061270627193152
-0.0042337537743151
-0.0022756587713956
-0.0002094730734825
0.001978863729164
0.0042758388444781
0.0066455374471843
0.0090372739359736
0.0113931279629468
0.0136536229401826
0.0157630257308483
0.0176743548363447
0.0193535983562469
0.0207826029509305
0.0219585690647363
0.022891879081726
0.0236048735678195
0.0241283942013978
0.0244947466999292
0.0247321557253599
0.0248642191290855
0.0249115787446498
0.0248905718326568
0.0248048305511474
0.0246274508535861
0.024277402088046
0.0236037466675043
0.0223932266235351
0.0204048752784729
0.0174217820167541
0.0133071718737483
0.0080525875091552
0.0018041310831904
-0.005143370013684
-0.012382292188704
-0.0194486156105995
-0.0258874725550413
-0.031312633305788
-0.0354462638497352
-0.0381371490657329
-0.0393628068268299
-0.0392183810472488
-0.0378937423229217
-0.0356425754725933
-0.0327501483261585
-0.0295041874051094
-0.0261681992560625
-0.0229586511850357
-0.0200295727699995
-0.0174642335623502
-0.0152752436697483
-0.0134154250845313
-0.0117961317300796
-0.0103075169026851
-0.0088371513411402
-0.0072858720086514
-0.0055809700861573
-0.0036850278265774
-0.0015986263751983
0.0006427699699997
0.0029776487499475
0.0053308848291635
0.0076244818046689
0.0097848279401659
0.0117494650185108
0.0134738301858305
0.0149341393262147
0.0161255244165658
0.0170579236000776
0.017751632258296
0.0182346813380718
0.0185416433960199
0.0187104288488626
0.0187763907015323
0.0187673643231391
0.0187032613903284
0.0185962170362472
0.0184409525245428
0.0181933268904685
0.0177494548261165
0.0169401168823242
0.0155474003404378
0.0133445328101515
0.0101521108299493
0.0058933962136507
0.0006304327398538
-0.0054274229332804
-0.0119427982717752
-0.0184943191707134
-0.0246357731521129
-0.029955755919218
-0.0341267772018909
-0.0369376093149185
-0.0383053198456764
-0.0382690243422985
-0.0369720309972763
-0.034637838602066
-0.0315419845283031
-0.0279820021241903
-0.0242485143244266
-0.0205981507897377
-0.0172290857881307
-0.014263991266489
-0.011745510622859
-0.0096445735543966
-0.0078774774447083
-0.006326200440526
-0.004858223721385
-0.0033458452671766
-0.0016848864033818
0.0001912908628582
0.0023066056892275
0.0046449089422822
0.0071561904624104
0.0097650894895195
0.0123822595924139
0.0149165410548448
0.0172854904085397
0.0194234605878591
0.0212860256433486
0.0228503849357366
0.0241147503256797
0.0250972360372543
0.0258289016783237
0.0263389758765697
0.0266349148005247
0.0266792178153991
0.0263719912618398
0.0255542434751987
0.0240366160869598
0.0216472391039133
0.0182863343507051
0.013969630934298
0.0088474554941058
0.0031974336598068
-0.0026079309172928
-0.0081546660512685
-0.013048562221229
-0.0169677287340164
-0.0196957178413867
-0.0211330782622098
-0.0212922729551792
-0.020282007753849
-0.0182862915098667
-0.0155417211353778
-0.0123125910758972
-0.0088645722717046
-0.0054410933516919
-0.0022441032342612
0.0005822493694722
0.0029629925265908
0.0048931743949651
0.0064264596439898
0.0076576499268412
0.0087056793272495
0.0096959369257092
0.0107415113598108
0.0119285248219966
0.0133071886375546
0.0148878376930952
0.0166438184678554
0.0185191202908754
0.0204364359378814
0.0223071258515119
0.0240431185811758
0.0255666598677635
0.0268173478543758
0.0277564208954572
0.0283648651093244
0.0286322236061096
0.0285364631563425
0.0280203130096197
0.0269751548767089
0.0252463035285472
0.0226635374128818
0.0190859921276569
0.0144499205052852
0.0088088084012269
0.0023509375751018
-0.0046129636466503
-0.0116863921284675
-0.0184392929077148
-0.0244663376361131
-0.029438117519021
-0.0331335887312889
-0.0354511067271232
-0.0364039242267608
-0.0361056700348854
-0.0347473472356796
-0.0325702875852584
-0.0298399552702903
-0.0268191881477832
-0.0237424001097679
-0.020797336474061
-0.0181146264076232
-0.0157624762505292
-0.0137485899031162
-0.0120292026549577
-0.0105219734832644
-0.0091224974021315
-0.0077229877933859
-0.0062283328734338
-0.0045681884512305
-0.0027062487788498
-0.0006450726650655
0.0015757577493786
0.0038887439295649
0.0062124137766659
0.0084638642147183
0.0105667635798454
0.0124574694782495
0.0140901869162917
0.0154402609914541
0.0165052898228168
0.0173014979809522
0.0178536493331193
0.0181783940643072
0.0182596966624259
0.0180221162736415
0.0173192583024501
0.0159499701112508
0.013699815608561
0.0103974007070064
0.0059707770124077
0.0004866290837526
-0.0058391597121953
-0.0126606067642569
-0.0195458084344863
-0.0260380581021308
-0.0317189022898674
-0.0362572893500328
-0.0394376143813133
-0.0411688238382339
-0.0414795726537704
-0.0405020117759704
-0.0384467914700508
-0.0355731919407844
-0.0321591459214687
-0.0284752715378999
-0.0247622374445199
-0.0212101470679044
-0.0179440900683403
-0.0150205343961715
-0.0124340383335947
-0.0101299528032541
-0.0080206682905554
-0.0060035497881472
-0.0039774016477167
-0.0018578781746327
0.0004095369949936
0.002843671478331
0.0054284716024994
0.0081191966310143
0.0108524058014154
0.0135544091463088
0.0161484740674495
0.0185638908296823
0.0207434557378292
0.0226468481123447
0.0242522321641445
0.025556530803442
0.0265732053667306
0.02733008377254
0.0278673321008682
0.0282306373119354
0.0284603163599967
0.0285780448466539
0.0285670924931764
0.0283491369336843
0.0277711413800716
0.0266143511980772
0.0246303658932447
0.0215986315160989
0.0173886623233556
0.0120086055248975
0.0056267604231834
-0.001439445069991
-0.0087627172470092
-0.0158643703907728
-0.0222806762903928
-0.0276225004345178
-0.0316157191991806
-0.0341190993785858
-0.0351230204105377
-0.0347330123186111
-0.0331447422504425
-0.030616957694292
-0.0274418033659458
-0.0239125695079565
-0.0202947277575731
-0.0168032925575971
-0.0135875139385461
-0.0107254879549145
-0.0082282871007919
-0.006051312200725
-0.0041111949831247
-0.0023049833253026
-0.0005284352228045
0.0013083647936582
0.0032696854323148
0.0053878710605204
0.0076626450754702
0.0100651681423187
0.0125436894595623
0.0150299770757555
0.0174477528780698
0.0197210367769002
0.0217811111360788
0.0235730111598968
0.0250604543834924
0.0262298621237278
0.0270920656621456
0.0276770144701004
0.0280241332948207
0.0281750373542308
0.0281694270670413
0.0280385874211788
0.0277910083532333
0.0273900553584098
0.0267307516187429
0.0256313830614089
0.0238541960716247
0.0211544334888458
0.0173432845622301
0.0123463729396462
0.0062415623106062
-0.000734282657504
-0.0082098031416535
-0.0157275777310132
-0.0228078104555606
-0.0290142223238945
-0.0340051874518394
-0.0375615432858467
-0.0395941436290741
-0.0401371791958808
-0.0393328256905078
-0.0374097265303134
-0.0346534214913845
-0.0313703343272209
-0.0278536193072795
-0.0243578217923641
-0.0210807640105485
-0.0181492641568183
-0.0156125547364354
-0.0134483547881245
-0.0115783149376511
-0.0098872119560837
-0.0082447137683629
-0.0065278252586722
-0.0046394681558012
-0.0025210529565811
-0.0001581767573952
0.0024212496355175
0.0051547554321587
0.0079578347504138
0.010739023797214
0.01341163367033
0.0159007534384727
0.018149010837078
0.0201203972101211
0.0217993929982185
0.0231868531554937
0.0242963097989559
0.0251496061682701
0.0257643386721611
0.0261291433125734
0.0261763446033
0.025768456980586
0.0247091129422187
0.0227808877825737
0.0198026653379201
0.0156888980418443
0.0104927057400345
0.004421189893037
-0.0021809167228639
-0.0088754408061504
-0.0151924174278974
-0.0206929240375757
-0.0250202175229787
-0.0279353447258472
-0.0293340440839529
-0.0292435437440872
-0.0278057530522346
-0.0252539981156587
-0.0218845792114734
-0.0180228203535079
-0.0139871481806039
-0.0100571122020483
-0.0064485874027013
-0.0032974258065223
-0.0006534913554787
0.0015137419104576
0.0032985936850309
0.0048344410024583
0.0062677054665982
0.0077358079142868
0.0093480395153164
0.0111714182421565
0.0132262334227561
0.015488239005208
0.0178946815431118
0.0203568451106548
0.0227766912430524
0.0250606629997491
0.0271282866597175
0.0289173536002635
0.0303875338286161
0.0315222144126892
0.0323266983032226
0.03282231092453
0.0330365896224975
0.0329860895872116
0.0326500125229358
0.0319436118006706
0.030708672478795
0.0287346616387367
0.0258081704378128
0.0217741541564464
0.0165917389094829
0.0103706000372767
0.003375805914402
-0.0040015606209635
-0.0112980846315622
-0.0180425271391868
-0.0238174609839916
-0.0283067561686038
-0.0313244685530662
-0.0328229628503322
-0.0328824743628501
-0.0316892564296722
-0.0295045226812362
-0.0266271196305751
-0.0233601927757263
-0.0199858397245407
-0.0167426988482475
-0.013806871138513
-0.0112810125574469
-0.0091917561367154
-0.0074955951422452
-0.0060955826193094
-0.0048665832728147
-0.0036807660944759
-0.0024265563115477
-0.0010209237225353
0.0005836058408021
0.0023970510810613
0.0043933317065238
0.0065147615969181
0.0086816921830177
0.0108046969398856
0.0127956690266728
0.0145782865583896
0.0160963218659162
0.0173167586326599
0.0182293504476547
0.0188445262610912
0.0191892758011817
0.0193009711802005
0.0192184951156377
0.0189684964716434
0.0185429919511079
0.01787094399333
0.0168019346892833
0.015119643881917
0.0125846788287162
0.0089947637170553
0.0042465832084417
-0.0016190763562917
-0.008401658385992
-0.0157573148608207
-0.0232429467141628
-0.0303773693740367
-0.0367066338658332
-0.0418615527451038
-0.0455958396196365
-0.0477991700172424
-0.0484903901815414
-0.0477987676858902
-0.0459384210407733
-0.0431785359978675
-0.0398124195635318
-0.0361294001340866
-0.03238957375288
-0.0288002341985702
-0.0254995301365852
-0.0225524604320526
-0.0199568588286638
-0.0176560580730438
-0.0155571158975362
-0.0135513795539736
-0.0115330852568149
-0.0094134248793125
-0.0071309730410575
-0.0046585267409682
-0.0020029167644679
0.0007997928187251
0.0036880022380501
0.0065805516205728
0.0093892980366945
0.0120326355099678
0.0144438194110989
0.016575414687395
0.0184020958840847
0.0199202597141265
0.0211441423743963
0.0221015121787786
0.0228291638195514
0.0233666971325874
0.0237520225346088
0.0240197069942951
0.0241975151002407
0.024299593642354
0.0243137534707784
0.0241783428937196
0.0237597711384296
0.0228517316281795
0.0212039537727832
0.0185735560953617
0.0147867677733302
0.00979526899755
0.003710163757205
-0.0031966180540621
-0.0105236899107694
-0.017796229571104
-0.0245319418609142
-0.030303344130516
-0.0347863659262657
-0.0377871766686439
-0.039247091859579
-0.0392324775457382
-0.0379138775169849
-0.0355368368327617
-0.0323915965855121
-0.0287846326828002
-0.0250075198709964
-0.0213065538555383
-0.0178628414869308
-0.0147832576185464
-0.0120993666350841
-0.0097753573209047
-0.0077241593971848
-0.00582887372002
-0.0039662797935307
-0.0020279516465961
6.498955190181732e-05
0.0023546298034489
0.0048444578424096
0.0075022475793957
0.0102676441892981
0.0130618242546916
0.0157988704741001
0.0183974057435989
0.0207870919257402
0.022911824285984
0.024735378101468
0.0262465365231037
0.0274572595953941
0.0283950828015804
0.0290954727679491
0.0295957662165164
0.0299298781901597
0.0301267132163047
0.0302129238843917
0.0302138533443212
0.0301488321274518
0.0300214122980833
0.0298020001500844
0.0294028520584106
0.0286598801612854
0.0273411627858877
0.025187648832798
0.0219740401953458
0.0175709631294012
0.0119929676875472
0.0054202363826334
-0.0018149695824831
-0.0092739518731832
-0.0164743885397911
-0.0229552537202835
-0.0283329635858535
-0.0323406457901001
-0.0348463356494903
-0.0358511209487915
-0.0354731567203998
-0.0339244604110717
-0.0314820632338523
-0.028453404083848
-0.0251414366066455
-0.0218145716935396
-0.0186828691512346
-0.0158838517963886
-0.0134793668985366
-0.0114599857479333
-0.0097567802295088
-0.0082610193639993
-0.0068468512035906
-0.0053935311734676
-0.0038045416586101
-0.0020174654200673
-5.704350769519806e-06
0.0022209170274436
0.0046178391203284
0.0071143978275358
0.0096264034509658
0.0120671931654214
0.0143564417958259
0.0164277292788028
0.0182341244071722
0.0197507217526435
0.020974176004529
0.0219202861189842
0.0226199328899383
0.0231125485152006
0.0234386436641216
0.0236347950994968
0.0237309783697128
0.0237492714077234
0.0237047467380762
0.0236050896346569
0.0234414134174585
0.0231670010834932
0.0226723253726959
0.0217744316905736
0.0202355403453111
0.0178103391081094
0.0143068647012114
0.0096426215022802
0.0038823038339614
-0.0027526756748557
-0.0099061420187354
-0.0171346608549356
-0.0239696353673934
-0.0299804881215095
-0.0348262041807174
-0.0382865108549594
-0.0402709543704986
-0.040811862796545
-0.0400477088987827
-0.0381999611854553
-0.0355448499321937
-0.0323803126811981
-0.0289926063269376
-0.0256296060979366
-0.0224817059934139
-0.0196697991341352
-0.0172422006726264
-0.0151795949786901
-0.0134070599451661
-0.0118133686482906
-0.0102732740342617
-0.0086681153625249
-0.0069032232277095
-0.0049194823950529
-0.0026970356702804
-0.0002538291737437
0.002358853816986
0.0050655398517847
0.0077780531719326
0.0104052517563104
0.0128630241379141
0.0150843355804681
0.0170237533748149
0.0186563283205032
0.0199753269553184
0.0209900625050067
0.0217235032469034
0.0222095344215631
0.0224892534315586
0.0226064957678318
0.0226028319448232
0.0225093681365251
0.0223307646811008
0.0220215022563934
0.0214641001075506
0.0204660408198833
0.0187873058021068
0.0161934811621904
0.0125169502571225
0.0077090733684599
0.0018706731498241
-0.0047463104128837
-0.0117664327844977
-0.018741812556982
-0.0252138227224349
-0.0307716969400644
-0.0350992418825626
-0.0380030572414398
-0.0394195467233657
-0.0394058674573898
-0.0381210222840309
-0.035799965262413
-0.0327244214713573
-0.0291927829384803
-0.0254886150360107
-0.0218521784991025
-0.0184617601335048
-0.0154252713546156
-0.0127787133678793
-0.0104915937408804
-0.0084818750619888
-0.0066377641633152
-0.0048392154276371
-0.002975383773446
-0.0009581092745065
0.0012686792761087
0.0037242108955979
0.0063898507505655
0.0092116091400384
0.01210867613554
0.0149876270443201
0.0177567414939403
0.0203364230692386
0.0226656906306743
0.0247052609920501
0.0264375247061252
0.0278638079762458
0.0289981290698051
0.0298540908843278
0.0304219461977481
0.0306421555578708
0.0303916074335575
0.029493547976017
0.0277509428560733
0.0249973125755786
0.0211518332362175
0.016261663287878
0.0105201350525021
0.0042536011897027
-0.0021222401410341
-0.0081611890345811
-0.0134445121511816
-0.0176305063068866
-0.0204887017607688
-0.0219138171523809
-0.021923441439867
-0.0206453055143356
-0.0182948522269725
-0.0151451816782355
-0.0114950602874159
-0.0076374793425202
-0.0038315756246447
-0.0002824738621711
0.0028714220970869
0.0055639157071709
0.0077971182763576
0.0096299163997173
0.0111613953486084
0.0125109571963548
0.0137987360358238
0.0151291275396943
0.0165779832750558
0.0181846655905246
0.019950944930315
0.0218453202396631
0.0238089282065629
0.0257637314498424
0.027625098824501
0.0293142832815647
0.0307657662779092
0.0319315940141677
0.0327852070331573
0.0333222970366478
0.0335558019578456
0.0335025824606418
0.0331599190831184
0.0324753001332283
0.0313232205808162
0.029508551582694
0.0268038976937532
0.0230088233947753
0.0180123336613178
0.0118410810828208
0.0046805227175354
-0.0031358487904071
-0.0111675336956977
-0.0189285948872566
-0.0259544849395751
-0.0318596921861171
-0.0363753400743007
-0.0393644496798515
-0.0408209040760993
-0.0408564731478691
-0.0396765582263469
-0.0375483743846416
-0.034768346697092
-0.0316326469182968
-0.0284107327461242
-0.0253214463591575
-0.0225152447819709
-0.0200673546642065
-0.0179815273731946
-0.0162019692361354
-0.0146318431943655
-0.0131544321775436
-0.011653097346425
-0.0100285252556204
-0.008211120031774
-0.0061670234426856
-0.003899032715708
-0.001443678047508
0.0011343359947204
0.0037491898983716
0.0063040871173143
0.0087045123800635
0.0108703700825572
0.0127444900572299
0.0142975803464651
0.0155281750485301
0.0164567753672599
0.0171171780675649
0.0175472535192966
0.0177738741040229
0.0177858527749776
0.0175032019615173
0.0167622976005077
0.0153309945017099
0.0129546970129013
0.0094216782599687
0.0046279840171337
-0.0013768337666988
-0.0083748968318104
-0.0159982461482286
-0.0237755216658115
-0.0311981979757547
-0.0377915427088737
-0.0431729257106781
-0.047086164355278
-0.0494109615683555
-0.0501552298665046
-0.0494380071759223
-0.0474656298756599
-0.0445031635463237
-0.0408449992537498
-0.0367873199284076
-0.0326025485992431
-0.028515750542283
-0.0246852710843086
-0.0211928989738225
-0.0180473420768976
-0.0151986600831151
-0.0125580439344048
-0.0100180618464946
-0.007470978423953
-0.0048253363929688
-0.0020195161923766
0.0009706974960863
0.0041313339024782
0.0074155004695057
0.0107526779174804
0.0140589959919452
0.0172469243407249
0.02023446559906
0.022953463718295
0.0253549516201019
0.0274110473692417
0.0291156210005283
0.030483229085803
0.0315446704626083
0.032341118901968
0.0329188518226146
0.0333245694637298
0.0336000546813011
0.0337698087096214
0.0338152796030044
0.0336435325443744
0.0330705903470516
0.0318365842103958
0.0296547282487154
0.026279916986823
0.02157624065876
0.0155660416930913
0.0084489360451698
0.0005864524282515
-0.0075443210080266
-0.0154181141406297
-0.0225342232733964
-0.0284780245274305
-0.0329613909125328
-0.0358396619558334
-0.0371078327298164
-0.0368821807205677
-0.0353729724884033
-0.0328519754111766
-0.0296192150563001
-0.025971982628107
-0.022177243605256
-0.0184501875191926
-0.0149420956149697
-0.0117376027628779
-0.0088587533682584
-0.0062741455622017
-0.0039126761257648
-0.0016811517998576
0.0005165580660104
0.0027636620216071
0.0051194936968386
0.0076121306046843
0.0102364029735326
0.012957596220076
0.0157186463475227
0.0184494294226169
0.0210757665336132
0.0235266610980033
0.0257407072931528
0.0276718586683273
0.029292918741703
0.0305952988564968
0.0315862596035003
0.0322856158018112
0.0327223986387252
0.0329313836991786
0.0329491533339023
0.032810166478157
0.0325448811054229
0.0321793891489505
0.0317333862185478
0.0312166195362806
0.0306229870766401
0.0299140568822622
0.0289902910590171
0.027669608592987
0.0256982985883951
0.0227982271462678
0.0187340602278709
0.0133798755705356
0.006767613813281
-0.0008954564109444
-0.0092441365122795
-0.0178024601191282
-0.0260507874190807
-0.0334971770644187
-0.0397363901138305
-0.0444890968501567
-0.0476189106702804
-0.0491268038749694
-0.0491298884153366
-0.0478342846035957
-0.0455065630376338
-0.042443785816431
-0.0389437712728977
-0.0352785140275955
-0.0316710211336612
-0.0282777696847915
-0.0251820497214794
-0.0223986282944679
-0.0198856741189956
-0.0175616350024938
-0.0153252696618437
-0.0130756208673119
-0.0107287093997001
-0.0082284417003393
-0.0055519342422485
-0.0027114292606711
0.0002474583452567
0.0032532915938645
0.006221879273653
0.0090699382126331
0.0117242652922868
0.0141275692731142
0.0162431839853525
0.018056059256196
0.0195697862654924
0.0208031851798295
0.0217865109443664
0.0225567240267992
0.0231530927121639
0.0236128587275743
0.0239671226590871
0.0242380928248167
0.0244384668767452
0.0245719216763973
0.0246339794248342
0.0246147774159908
0.0245033092796802
0.0242909751832485
0.0239733457565307
0.0235480740666389
0.0230058431625366
0.0223103389143943
0.0213703550398349
0.0200216583907604
0.018036849796772
0.0151667017489671
0.011202024295926
0.0060364864766597
-0.0002883393317461
-0.007567036896944
-0.0154464300721883
-0.0234698895364999
-0.0311417356133461
-0.0379962548613548
-0.0436540096998214
-0.0478581972420215
-0.050490915775299
-0.0515692755579948
-0.0512246489524841
-0.0496735423803329
-0.0471871085464954
-0.0440600998699665
-0.0405789278447628
-0.0369935519993305
-0.033498752862215
-0.0302253365516662
-0.027239691466093
-0.0245486833155155
-0.0221080239862203
-0.0198363754898309
-0.017634242773056
-0.0154027370736002
-0.0130602633580565
-0.010555169545114
-0.0078708659857511
-0.005024270620197
-0.0020605586469173
0.0009555290453135
0.0039499890990555
0.0068477932363748
0.0095791686326265
0.012086110189557
0.0143282916396856
0.0162862204015254
0.0179616417735815
0.0193749442696571
0.0205588564276695
0.0215507186949253
0.0223867911845445
0.0230988562107086
0.0237118080258369
0.0242425985634326
0.0247007012367248
0.025089431554079
0.02540791220963
0.0256535783410072
0.0258244909346103
0.0259203128516674
0.0259414687752723
0.025884486734867
0.0257297996431589
0.0254219733178615
0.0248489826917648
0.0238336399197578
0.0221496485173702
0.0195636022835969
0.0158927869051694
0.0110621377825737
0.0051426840946078
-0.0016388827934861
-0.0089214574545621
-0.0162576176226139
-0.0231771636754274
-0.0292508248239755
-0.0341407731175422
-0.0376305021345615
-0.0396341420710086
-0.0401889532804489
-0.0394363813102245
-0.037597008049488
-0.0349408984184265
-0.0317556746304035
-0.0283170565962791
-0.0248633958399295
-0.0215761307626962
-0.0185706093907356
-0.0158959403634071
-0.0135397352278232
-0.011438874527812
-0.0094970660284161
-0.0076050925999879
-0.0056585250422358
-0.0035710418596863
-0.0012847492471337
0.0012231487780809
0.0039397599175572
0.0068200407549738
0.0097934901714324
0.0127764558419585
0.0156857669353485
0.0184475202113389
0.0210026670247316
0.0233100727200508
0.0253451559692621
0.0270980335772037
0.0285741761326789
0.0297929048538208
0.0307819657027721
0.031572975218296
0.03219885379076
0.0326895490288734
0.0330630093812942
0.0333077423274517
0.0333572141826152
0.0330712273716926
0.0322438329458236
0.030640821903944
0.0280544180423021
0.0243604090064764
0.019563065841794
0.0138144046068191
0.0074030207470059
0.0007163319969549
-0.0058152037672698
-0.0117778806015849
-0.0168257616460323
-0.0207155738025903
-0.0233209636062383
-0.0246286056935787
-0.0247247293591499
-0.0237755216658115
-0.0220017172396183
-0.0196523182094097
-0.0169806126505136
-0.0142213758081197
-0.0115702226758003
-0.0091686509549617
-0.00709675764665
-0.0053722481243312
-0.0039562950842082
-0.0027676373720169
-0.0017005507834255
-0.0006424067541956
0.0005095268134027
0.0018344132695347
0.0033792718313634
0.0051541617140173
0.0071320859715342
0.0092552239075303
0.0114450249820947
0.0136129781603813
0.015670970082283
0.0175409540534019
0.0191617086529731
0.0204912405461072
0.0215086732059717
0.0222163889557123
0.0226380079984664
0.0228129103779792
0.0227895565330982
0.0226163081824779
0.0223289765417575
0.0219327434897422
0.021377570927143
0.020537769421935
0.0192124638706445
0.017154973000288
0.0141266714781522
0.009961612522602
0.0046214303001761
-0.0017768731340765
-0.0089645199477672
-0.0165527127683162
-0.0240869726985692
-0.0311118066310882
-0.0372298471629619
-0.0421445369720459
-0.045682206749916
-0.0477934256196022
-0.0485379919409751
-0.0480617024004459
-0.0465698726475238
-0.0443001426756382
-0.0414983034133911
-0.0383975580334663
-0.0351993627846241
-0.0320575721561908
-0.0290688499808311
-0.0262707695364952
-0.0236486233770847
-0.0211494881659746
-0.0186995062977075
-0.0162212252616882
-0.0136483591049909
-0.0109362630173563
-0.0080677773803472
-0.0050531956367194
-0.0019249217584729
0.0012684636749327
0.0044658966362476
0.007597642019391
0.0105917565524578
0.0133832804858684
0.0159239489585161
0.0181875508278608
0.0201677922159433
0.0218732878565788
0.0233250223100185
0.0245535373687744
0.0255933478474617
0.026477251201868
0.027232764288783
0.0278806593269109
0.0284324530512094
0.0288810934871435
0.0291813034564256
0.0292258579283952
0.0288347825407981
0.0277726538479328
0.0257955249398946
0.0227130390703678
0.0184444263577461
0.0130545469000935
0.006762227974832
-8.412543684244156e-05
-0.0070578372105956
-0.0137166399508714
-0.0196619182825088
-0.0245849173516035
-0.0282938499003648
-0.0307198464870452
-0.0319058150053024
-0.0319846756756305
-0.0311519969254732
-0.0296375527977943
-0.0276797767728567
-0.0255044996738433
-0.0233067162334918
-0.021234942600131
-0.0193801522254943
-0.0177726205438375
-0.0163884237408638
-0.0151624251157045
-0.0140036903321743
-0.0128105441108345
-0.0114823766052722
-0.0099296942353248
-0.0080857062712311
-0.0059177409857511
-0.0034343050792813
-0.0006833532825112
0.0022580493241548
0.0052953804843127
0.0083268163725733
0.0112541886046528
0.013992671854794
0.016476672142744
0.0186626352369785
0.0205293670296669
0.0220770686864852
0.0233263596892356
0.0243161953985691
0.0250990260392427
0.0257323198020458
0.0262686386704444
0.0267489552497863
0.0271997395902872
0.0276315119117498
0.0280394311994314
0.0284068435430526
0.0287079848349094
0.0289009716361761
0.0289071667939424
0.0285875834524631
0.0277337562292814
0.0260856132954359
0.0233781486749649
0.0194046851247549
0.0140764340758323
0.0074616679921746
-0.0002044099383056
-0.0085417563095688
-0.0170743055641651
-0.0252934452146291
-0.032723743468523
-0.0389787927269935
-0.0437954775989055
-0.0470444150269031
-0.0487228892743587
-0.0489361509680748
-0.0478731207549572
-0.045780312269926
-0.0429336577653884
-0.0396102145314216
-0.0360638871788978
-0.0325066521763801
-0.0290942825376987
-0.0259173698723316
-0.0230013579130172
-0.0203153248876333
-0.017786331474781
-0.0153184561058878
-0.0128132589161396
-0.0101877665147185
-0.0073889940977096
-0.0044019613415002
-0.0012487806379795
0.0020180027931928
0.0053246598690748
0.0085881426930427
0.0117285195738077
0.0146782007068395
0.0173868238925933
0.0198225677013397
0.021972170099616
0.0238398797810077
0.0254432410001754
0.0268082432448864
0.0279658734798431
0.0289478674530982
0.0297828093171119
0.0304942391812801
0.031099921092391
0.0316126868128776
0.0320413596928119
0.032390147447586
0.0326586887240409
0.0328420251607894
0.0329226627945899
0.0328486785292625
0.0325066186487674
0.0317083932459354
0.030206037685275
0.0277366526424884
0.0240860562771558
0.0191502626985311
0.0129779139533638
0.0057844370603561
-0.0020659940782934
-0.0101070944219827
-0.0178353805094957
-0.0247775353491306
-0.0305445902049541
-0.0348666831851005
-0.0376085676252841
-0.0387668274343013
-0.038453496992588
-0.0368729159235954
-0.0342949405312538
-0.0310248360037803
-0.0273717958480119
-0.0236188359558582
-0.019997265189886
-0.0166699513792991
-0.0137240840122103
-0.0111720161512494
-0.0089616058394312
-0.0069962190464138
-0.0051595149561762
-0.0033383620902895
-0.0014396524056792
0.0005995687097311
0.0028073317371308
0.0051769143901765
0.0076723741367459
0.0102366600185632
0.0128000043332576
0.0152905443683266
0.0176448039710521
0.0198119729757308
0.0217528529465198
0.0234395675361156
0.0248586889356374
0.0260152574628591
0.0269329566508531
0.0276483297348022
0.0282029714435338
0.0286363083869218
0.0289757922291755
0.0292225163429975
0.0293315518647432
0.0291899982839822
0.028608800843358
0.0273446477949619
0.0251499861478805
0.0218362361192703
0.0173316746950149
0.0117157250642776
0.0052216816693544
-0.0017891349270939
-0.0088762762024998
-0.0155825391411781
-0.0214952155947685
-0.0262929797172546
-0.0297712422907352
-0.03184674680233
-0.0325466357171535
-0.031988576054573
-0.0303593315184116
-0.0278936885297298
-0.024851344525814
-0.021492725238204
-0.0180559046566486
-0.0147360526025295
-0.0116712236776947
-0.0089366566389799
-0.0065461304038763
-0.0044601378031075
-0.0026007313281297
-0.0008701095357537
0.0008306396193802
0.002584961708635
0.0044481479562819
0.0064409165643155
0.0085506439208984
0.0107377730309963
0.0129433386027812
0.0150966290384531
0.017124094069004
0.0189579259604215
0.0205422490835189
0.0218380279839038
0.0228263065218925
0.0235074386000633
0.0238974597305059
0.0240241773426532
0.0239237938076257
0.0236376263201236
0.0232078675180673
0.0226721595972776
0.0220551081001758
0.0213514734059572
0.020501036196947
0.0193673726171255
0.017737541347742
0.0153520237654447
0.0119605474174022
0.0073880683630704
0.0015906356275081
-0.0053155794739723
-0.0130581334233284
-0.0212405510246753
-0.0293956659734249
-0.0370500683784484
-0.0437849462032318
-0.049280859529972
-0.0533406361937522
-0.055890716612339
-0.056968055665493
-0.0567006096243858
-0.0552834719419479
-0.0529519245028495
-0.0499555841088295
-0.0465358830988407
-0.0429075732827186
-0.0392456799745559
-0.0356782414019107
-0.0322838425636291
-0.0290927551686763
-0.0260924641042947
-0.023239329457283
-0.0204723589122295
-0.0177245121449232
-0.0149339735507965
-0.0120563739910721
-0.0090722423046827
-0.0059874206781387
-0.0028303731232881
0.0003516976721584
0.0034992801956832
0.0065488191321492
0.0094404621049761
0.012124016880989
0.0145623525604605
0.0167323872447013
0.0186249129474163
0.0202433299273252
0.0216011218726634
0.0227195713669061
0.0236258022487163
0.024350069463253
0.0249231252819299
0.0253739673644304
0.0257274340838193
0.0260023605078458
0.0262076295912265
0.0263290703296661
0.0263051725924015
0.0260027796030044
0.0252116285264492
0.0236701760441064
0.0211195237934589
0.0173691194504499
0.0123549131676554
0.0061734123155474
-0.0009181946516036
-0.0085328128188848
-0.0162056013941764
-0.0234579741954803
-0.0298600923269987
-0.0350782088935375
-0.0388998389244079
-0.0412369146943092
-0.0421135015785694
-0.0416465438902378
-0.0400239564478397
-0.0374806858599185
-0.0342728160321712
-0.0306519959121942
-0.0268453378230333
-0.0230411272495985
-0.0193769112229347
-0.0159328989684581
-0.0127344448119401
-0.0097609320655465
-0.0069583598524332
-0.0042550442740321
-0.0015775328502058
0.0011362824589014
0.003927094861865
0.0068076662719249
0.0097619304433465
0.0127508137375116
0.0157207902520895
0.0186105389147996
0.0213573314249515
0.0239037983119487
0.0262029133737087
0.0282222926616668
0.0299467220902442
0.0313762389123439
0.0325227938592433
0.0334085002541542
0.0340641289949417
0.0345254875719547
0.0348269306123256
0.0349949747323989
0.0350464880466461
0.0349927209317684
0.0348448976874351
0.03461629524827
0.0343214683234691
0.0339755341410636
0.0335932411253452
0.0331873036921024
0.0327663272619247
0.032329998910427
0.0318578332662582
0.0312898345291614
0.0305031538009643
0.0292987562716007
0.0274143572896718
0.0245673954486846
0.0205180272459983
0.0151340020820498
0.0084376959130167
0.0006233286112546
-0.0079587046056985
-0.0168481171131134
-0.0255396142601966
-0.0335488989949226
-0.0404686070978641
-0.0460067726671695
-0.0500021614134311
-0.0524200871586799
-0.0533377900719642
-0.0529241599142551
-0.0514138266444206
-0.0490766204893589
-0.0461878031492233
-0.0430028289556503
-0.0397367887198925
-0.0365503095090389
-0.0335429869592189
-0.030752632766962
-0.0281617026776075
-0.0257117785513401
-0.0233211144804954
-0.020901994779706
-0.0183771699666976
-0.015691926702857
-0.0128193339332938
-0.0097600240260362
-0.0065389918163418
-0.003201148007065
0.0001942170783877
0.0035805227234959
0.0068903672508895
0.0100597739219665
0.0130316624417901
0.0157587938010692
0.0182063896209001
0.0203548185527324
0.0221990868449211
0.023744435980916
0.025003395974636
0.0259966291487216
0.0267535187304019
0.0273089054971933
0.0276967473328113
0.0279446169734001
0.0280719362199306
0.0280911419540643
0.0280101411044597
0.0278345085680484
0.0275687854737043
0.0272181257605552
0.0267903059720993
0.0262963231652975
0.0257446262985467
0.0251213368028402
0.0243605710566043
0.0233235191553831
0.0218020658940076
0.0195518173277378
0.0163479801267385
0.0120466947555542
0.0066321641206741
0.0002371920272707
-0.0068647824227809
-0.0142928846180439
-0.0216109510511159
-0.0283874347805976
-0.0342510379850864
-0.038931019604206
-0.0422746390104293
-0.0442452318966388
-0.0449090488255023
-0.0444148369133472
-0.0429694950580596
-0.0408133678138256
-0.0381953530013561
-0.0353479422628879
-0.0324656665325164
-0.0296899843961
-0.0271010659635067
-0.0247185416519641
-0.0225118640810251
-0.0204155817627906
