bvp
-0.0155818574130535
-0.0141337364912033
-0.0127163268625736
-0.0112944319844245
-0.0098346453160047
-0.0083131724968552
-0.0067185070365667
-0.0050507616251707
-0.0033214772120118
-0.0015528788790106
0.0002255346626043
0.0019818861037492
0.0036868089810013
0.0053171999752521
0.0068557420745491
0.008288599550724
0.0096070291474461
0.0108083523809909
0.0118918484076857
0.0128555037081241
0.0136971296742558
0.0144184315577149
0.0150292692705988
0.0155469914898276
0.0159906409680843
0.0163751691579818
0.0167086571455001
0.0169933401048183
0.0172287635505199
0.0174138583242893
0.0175485704094171
0.0176353994756937
0.0176783297210931
0.0176803078502416
0.0176417920738458
0.0175580270588397
0.0174107383936643
0.0171554759144783
0.0167128443717956
0.0159701853990554
0.0147944828495383
0.0130558665841817
0.0106585398316383
0.0075706611387431
0.0038439314812421
-0.0003824089653789
-0.0048949546180665
-0.0094341086223721
-0.0137295052409172
-0.0175360161811113
-0.0206639803946018
-0.0229969266802072
-0.0244940929114818
-0.0251812059432268
-0.0251359976828098
-0.024472439661622
-0.0233252998441457
-0.0218372512608766
-0.0201484225690364
-0.0183855853974819
-0.0166510045528411
-0.0150147313252091
-0.0135131618008017
-0.0121520832180976
-0.0109109580516815
-0.0097496826201677
-0.0086191799491643
-0.0074715940281748
-0.0062670726329088
-0.0049789156764745
-0.0035980474203824
-0.0021345894783735
-0.0006144847720861
0.0009271092712879
0.0024526473134756
0.0039287218824028
0.0053321495652198
0.0066526932641863
0.0078907590359449
0.0090529732406139
0.0101488642394542
0.011188737116754
0.0121829397976398
0.013144165277481
0.0140910167247056
0.01504881773144
0.0160474628210067
0.0171182435005903
0.01828901655972
0.0195768363773822
0.0209799725562334
0.022473718971014
0.0240124985575675
0.0255323108285665
0.0269473083317279
0.028146356344223
0.0289980620145797
0.0293638370931148
0.0291162878274917
0.0281639546155929
0.0264774542301893
0.024102609604597
0.0211511850357055
0.0177743881940841
0.0141306240111589
0.0103564634919166
0.0065470873378217
0.0027476327959448
-0.0010484748054295
-0.0048947939649224
-0.0088768349960446
-0.0130838956683874
-0.0175686627626419
-0.0223041828721761
-0.0271558500826358
-0.0318821258842945
-0.0361665897071361
-0.0396749749779701
-0.0421202518045902
-0.0433127731084823
-0.0431832894682884
-0.041778415441513
-0.0392332188785076
-0.035729669034481
-0.031452402472496
-0.0265544634312391
-0.021142004057765
-0.0152779519557952
-0.008998604491353
-0.0023374296724796
0.0046472856774926
0.0118465572595596
0.0190842375159263
0.0261143893003463
0.0326346792280674
0.0383165180683136
0.0428477935492992
0.0459792241454124
0.0475634969770908
0.0475763529539108
0.0461108535528183
0.0433457717299461
0.0395033247768878
0.0348140560090541
0.0294957496225833
0.0237449519336223
0.0177393741905689
0.0116485115140676
0.005644810386002
-9.39143355935812e-05
-0.0053930794820189
-0.0100967166945338
-0.0140855330973863
-0.0172911435365676
-0.0196982752531766
-0.0213356260210275
-0.0222636722028255
-0.0225628782063722
-0.0223221015185117
-0.0216289013624191
-0.0205626245588064
-0.019189927726984
-0.0175615642219781
-0.0157098546624183
-0.0136505328118801
-0.0113917337730526
-0.008944634348154
-0.006328665651381
-0.0035734847187995
-0.0007226865272969
0.0021631631534546
0.0050077834166586
0.0077240401878952
0.0102205341681838
0.0124082062393426
0.0142061477527022
0.0155476005747914
0.0163857080042362
0.0166971590369939
0.0164843145757913
0.0157756302505731
0.014621278271079
0.0130813037976622
0.0112054282799363
0.0090087745338678
0.0064552472904324
0.0034599937498569
-8.888822048902512e-05
-0.0042969295755028
-0.009224034845829
-0.0148476483300328
-0.0210405029356479
-0.0275711212307214
-0.0341289117932319
-0.0403685085475444
-0.045959997922182
-0.0506309121847152
-0.0541919507086277
-0.0565442256629467
-0.0576718896627426
-0.057627011090517
-0.0565113276243209
-0.0544586218893528
-0.0516217276453971
-0.048165276646614
-0.0442602299153804
-0.0400752015411853
-0.0357638075947761
-0.0314507521688938
-0.0272214747965335
-0.0231204032897949
-0.0191570352762937
-0.0153146982192993
-0.011559247970581
-0.007847286760807
-0.0041344612836837
-0.0003842320293188
0.0034243296831846
0.0072916559875011
0.011196575127542
0.015098500996828
0.0189417824149131
0.0226608347147703
0.0261857323348522
0.0294480081647634
0.0323803573846817
0.0349030457437038
0.0369041711091995
0.0382299050688743
0.0386932119727134
0.0381025150418281
0.0363069623708725
0.0332449786365032
0.0289795100688934
0.0237103216350078
0.0177601613104343
0.0115365572273731
0.0054774265736341
-5.973502993583679e-06
-0.0045752804726362
-0.0079937875270843
-0.0101378932595252
-0.0109934173524379
-0.0106405299156904
-0.0092335976660251
-0.0069803278893232
-0.0041196290403604
-0.0008973255753517
0.0024568494409322
0.0057479999959468
0.0088306572288274
0.0116178914904594
0.014082383364439
0.0162492953240871
0.0181833691895008
0.0199725329875946
0.0217096470296382
0.0234748907387256
0.025321077555418
0.0272645577788352
0.0292845498770475
0.0313311293721199
0.0333378985524177
0.0352332890033721
0.0369489341974258
0.0384275466203689
0.0396293327212333
0.0405342504382133
0.0411392897367477
0.0414502248167991
0.0414654798805713
0.0411524027585983
0.0404257997870445
0.0391418375074863
0.037114679813385
0.0341559499502182
0.0301285237073898
0.0249981842935085
0.0188653860241174
0.0119673991575837
0.0046523828059434
-0.0026664761826395
-0.0095665687695145
-0.0156703032553195
-0.0206877533346414
-0.0244391057640314
-0.0268563721328973
-0.0279716309159994
-0.0278994739055633
-0.0268189143389463
-0.024955091997981
-0.0225567743182182
-0.0198694765567779
-0.0171099286526441
-0.0144481640309095
-0.0119988024234771
-0.0098191890865564
-0.0079138064756989
-0.0062452936545014
-0.0047500538639724
-0.0033552201930433
-0.0019922452047467
-0.0006051217205822
0.0008446243591606
0.0023757750168442
0.0039872946217656
0.0056580500677227
0.0073480522260069
0.00900399684906
0.0105687668547034
0.0119915921241045
0.0132342036813497
0.0142712462693452
0.0150886494666337
0.0156838409602642
0.0160639658570289
0.0162343811243772
0.0161775220185518
0.015830798074603
0.0150764398276805
0.0137541368603706
0.0116950161755085
0.0087655447423458
0.004910347983241
0.0001834463328123
-0.0052414834499359
-0.011086318641901
-0.0170067958533763
-0.0226431172341108
-0.0276684239506721
-0.0318244211375713
-0.0349397882819175
-0.0369341820478439
-0.0378147587180137
-0.0376678220927715
-0.0366427227854728
-0.0349288396537303
-0.032733179628849
-0.0302621610462665
-0.0277041103690862
-0.0252121891826391
-0.0228921268135309
-0.0207972377538681
-0.0189305823296308
-0.0172539390623569
-0.0157029572874307
-0.0142047759145498
-0.0126926461234688
-0.0111158173531293
-0.0094451075419783
-0.0076731713488698
-0.0058113355189561
-0.0038864854723215
-0.0019376687705516
-1.2287870049476624e-05
0.0018370412290096
0.0035574994981288
0.0051047969609498
0.0064510907977819
0.0075873620808124
0.0085208769887685
0.009267846122384
0.0098389536142349
0.0102195553481578
0.0103529188781976
0.0101373139768838
0.0094421654939651
0.0081387851387262
0.0061362367123365
0.0034127552062273
3.5760924220085144e-05
-0.0038343034684658
-0.0079591628164052
-0.0120554063469171
-0.0158367343246936
-0.0190534349530935
-0.0215198509395122
-0.0231275837868452
-0.0238466896116733
-0.023719023913145
-0.0228465646505355
-0.0213750414550304
-0.0194745939224958
-0.0173204019665718
-0.0150740882381796
-0.012868377380073
-0.0107993753626942
-0.0089243799448013
-0.0072606592439115
-0.005787699483335
-0.0044570686295628
-0.0032068490982055
-0.0019739065319299
-0.0007016975432634
0.0006543630734086
0.0021221404895186
0.0037084715440869
0.0053975339978933
0.0071541275829076
0.0089301019906997
0.0106710055842995
0.0123226707801222
0.0138374222442507
0.0151788238435983
0.016325008124113
0.017270378768444
0.0180231966078281
0.0185964033007621
0.0189922507852315
0.0191853232681751
0.0191122628748416
0.0186769850552082
0.0177720561623573
0.0163079407066106
0.0142410509288311
0.0115939145907759
0.0084629626944661
0.0050121694803237
0.0014518480747938
-0.0019932175055146
-0.0051154280081391
-0.0077478773891925
-0.0097777806222438
-0.0111499922350049
-0.0118638053536415
-0.0119659341871738
-0.0115394806489348
-0.0106908353045582
-0.0095382230356335
-0.0082025313749909
-0.0067992229014635
-0.0054296553134918
-0.0041706678457558
-0.0030658710747957
-0.00212476355955
-0.0013302955776453
-0.0006495928391814
-4.283338785171509e-05
0.0005317758768796
0.0011143190786242
0.0017368346452713
0.0024170996621251
0.0031573874875903
0.0039465399459004
0.0047627380117774
0.0055773863568902
0.0063600232824683
0.0070834159851074
0.0077268816530704
0.008275942876935
0.0087208086624741
0.0090565029531717
0.009282381273806
0.0093979239463806
0.00939467176795
0.0092456331476569
0.0088972868397831
0.0082719204947352
0.007281525991857
0.005848791450262
0.0039304969832301
0.0015367344021797
-0.0012604910880327
-0.0043314807116985
-0.0075050485320389
-0.0105926487594842
-0.0134137356653809
-0.0158164240419864
-0.0176905412226915
-0.0189739316701889
-0.0196537375450134
-0.0197628494352102
-0.0193716771900653
-0.0185756888240575
-0.0174813289195299
-0.0161944311112165
-0.0148113025352358
-0.0134102497249841
-0.01204539462924
-0.0107458475977182
-0.0095194121822714
-0.0083581497892737
-0.0072433352470397
-0.0061492859385907
-0.0050480933859944
-0.0039162077009677
-0.0027407484594732
-0.0015229622367769
-0.0002782089286483
0.0009672300657257
0.0021815858781337
0.0033332300372421
0.0043953424319624
0.0053487382829189
0.0061819804832339
0.0068914722651243
0.0074833161197602
0.0079725999385118
0.0083781769499182
0.0087178396061062
0.0090069351717829
0.0092577971518039
0.0094782030209898
0.0096716843545436
0.0098410183563828
0.0099904648959636
0.0101202931255102
0.0102123748511075
0.0102147199213504
0.0100360410287976
0.0095570292323827
0.0086564719676971
0.0072433101013302
0.0052847824990749
0.0028225746937096
-2.732151187956333e-05
-0.0030890507623553
-0.0061511578969657
-0.0089970594272017
-0.0114357937127351
-0.0133251892402768
-0.0145829701796174
-0.0151862716302275
-0.015164203941822
-0.0145886838436126
-0.0135642681270837
-0.0122154243290424
-0.0106716994196176
-0.0090529322624206
-0.0074579566717147
-0.0059594651684165
-0.0046030646190047
-0.0034070359542965
-0.0023636994883418
-0.0014450196176767
-0.0006115930154919
0.0001787953078746
0.0009649666026234
0.0017777672037482
0.0026371031999588
0.0035509159788489
0.0045151282101869
0.0055146808736026
0.0065281582064926
0.0075338291935622
0.008510423824191
0.0094342837110161
0.0102806994691491
0.0110298572108149
0.0116715868934988
0.0122065329924225
0.0126448804512619
0.0130025027319788
0.0132958618924021
0.0135391289368271
0.0137439277023077
0.0139198377728462
0.0140739902853965
0.0142086260020732
0.0143164955079555
0.0143724884837865
0.0143212750554084
0.0140700079500675
0.0134969782084226
0.0124752447009086
0.0109023638069629
0.0087282499298453
0.0059741325676441
0.0027376632206141
-0.0008165910840034
-0.0044789207167923
-0.0080232992768287
-0.0112370550632476
-0.0139457508921623
-0.0160285867750644
-0.0174232926219701
-0.0181239228695631
-0.0181755032390356
-0.017665296792984
-0.0167099833488464
-0.0154424821957945
-0.0140000125393271
-0.0125111313536763
-0.0110817868262529
-0.0097842086106538
-0.0086521981284022
-0.0076826466247439
-0.0068417312577366
-0.0060745468363165
-0.00531558226794
-0.0044982163235545
-0.0035639805719256
-0.0024711834266781
-0.0012015616521239
0.0002361191436648
0.0018084850162267
0.0034660827368497
0.0051523400470614
0.0068092802539467
0.0083816219121217
0.0098220631480216
0.0110965259373188
0.0121861416846513
0.0130867483094334
0.0138075863942503
0.0143690956756472
0.0148005168884992
0.0151381343603134
0.0154235307127237
0.0156987141817808
0.0159961842000484
0.016326904296875
0.0166682619601488
0.0169529989361763
0.0170654393732547
0.0168515667319297
0.0161419585347175
0.0147823467850685
0.0126670412719249
0.0097691854462027
0.0061591602861881
0.0020038695074617
-0.002453604247421
-0.0069271391257643
-0.0111251166090369
-0.0147867854684591
-0.0177112929522991
-0.019773868843913
-0.0209305435419082
-0.0212140437215566
-0.0207213647663593
-0.0195965319871902
-0.0180119723081588
-0.0161494575440883
-0.014182660728693
-0.0122619066387414
-0.010499557480216
-0.0089586777612566
-0.00765020865947
-0.0065399706363677
-0.0055624796077609
-0.004636988043785
-0.003682660870254
-0.0026315040886402
-0.0014375392347574
-8.136406540870667e-05
0.0014295438304543
0.0030646407976746
0.0047773802652955
0.0065128440037369
0.0082139335572719
0.0098265875130891
0.0113046690821647
0.0126130916178226
0.0137292891740798
0.0146456360816955
0.0153717109933495
0.0159312896430492
0.0163535140454769
0.0166653450578451
0.0168897807598114
0.0170461814850568
0.0171494409441947
0.017205873504281
0.0172012783586978
0.0170834958553314
0.0167503077536821
0.0160520765930414
0.0148133877664804
0.0128701431676745
0.0101118786260485
0.0065184822306036
0.0021805537398904
-0.0027035174425691
-0.0078510968014597
-0.012932414188981
-0.0176162365823984
-0.0216150861233472
-0.0247163362801074
-0.0267943665385246
-0.027810763567686
-0.0278090219944715
-0.0269039310514926
-0.0252655744552612
-0.0230993069708347
-0.020622331649065
-0.0180395003408193
-0.015522968955338
-0.0131981400772929
-0.0111370412632822
-0.0093593681231141
-0.007838680408895
-0.0065118307247757
-0.0052924063056707
-0.0040872013196349
-0.0028104530647397
-0.0013924501836299
0.0002144528552889
0.0020295148715376
0.0040390356443822
0.0061969999223947
0.0084321927279233
0.0106595875695347
0.0127925714477896
0.0147546520456671
0.0164880454540252
0.0179551839828491
0.0191368870437145
0.020033199340105
0.0206633638590574
0.0210613831877708
0.0212699733674526
0.0213336534798145
0.0212887488305568
0.0211476236581802
0.0208776928484439
0.0203855838626623
0.0195197258144617
0.0180950183421373
0.0159331336617469
0.0129078282043337
0.0089839110150933
0.0042401887476444
-0.0011286693625152
-0.0068313479423522
-0.0125161856412887
-0.0178177412599325
-0.0224046260118484
-0.0260180402547121
-0.0284938495606184
-0.0297687482088804
-0.0298756975680589
-0.0289327930659055
-0.027124973013997
-0.0246780961751937
-0.0218308959156274
-0.0188103951513767
-0.0158130265772342
-0.0129914321005344
-0.0104448832571506
-0.0082150138914585
-0.0062894620932638
-0.0046115946024656
-0.0030955513939261
-0.0016440874896943
-0.0001647560857236
0.0014155167154967
0.0031390273943543
0.0050124693661928
0.007008456159383
0.0090732546523213
0.0111389737576246
0.0131340874359011
0.0149890389293432
0.0166399851441383
0.018033992499113
0.0191349554806947
0.0199278704822063
0.020419904962182
0.0206374526023864
0.0206199437379837
0.0204100534319877
0.0200362019240856
0.0194884147495031
0.0186990965157747
0.0175409317016601
0.0158465392887592
0.013447337783873
0.0102218268439173
0.0061384662985801
0.0012802830897271
-0.0041543678380548
-0.0098727783188223
-0.0155240604653954
-0.0207440946251153
-0.0252031236886978
-0.0286458451300859
-0.030914731323719
-0.0319574102759361
-0.0318227931857109
-0.0306467339396476
-0.0286285877227783
-0.0260030534118413
-0.0230126269161701
-0.0198828876018524
-0.0167987905442714
-0.0138844074681401
-0.0111926468089222
-0.0087072802707552
-0.0063573974184691
-0.0040427912026643
-0.0016633570194244
0.0008578714914619
0.0035626590251922
0.0064516374841332
0.0094826389104127
0.0125769218429923
0.0156315937638282
0.0185346007347106
0.02118013612926
0.0234804861247539
0.0253725424408912
0.026819996535778
0.0278130006045103
0.0283671077340841
0.0285196751356124
0.028319651260972
0.0278094299137592
0.0270024873316288
0.0258640870451927
0.0243037343025207
0.0221865363419055
0.0193635262548923
0.0157138146460056
0.0111912060528993
0.0058657275512814
-5.4706819355487823e-05
-0.0062338849529623
-0.0122484182938933
-0.0176491662859916
-0.0220267102122306
-0.0250669680535793
-0.0265878941863775
-0.0265536531805992
-0.0250675715506076
-0.0223494190722703
-0.0187037531286478
-0.0144837852567434
-0.0100524267181754
-0.0057433331385254
-0.0018294150941073
0.0014956844970583
0.0041247517801821
0.0060346839018166
0.0072750132530927
0.0079497480764985
0.0081945545971393
0.0081519996747374
0.0079513918608427
0.0076968185603618
0.0074608763679862
0.0072828233242034
0.0071711428463459
0.007108368910849
0.0070579489693045
0.0069734062999486
0.0068074287846684
0.0065200421959161
0.0060862954705953
0.0055005457252264
0.0047716526314616
0.0039054853841662
0.002879069186747
0.0016194656491279
9.723007678985596e-07
-0.0021340353414416
-0.0049362024292349
-0.0085051069036126
-0.0128522273153066
-0.0178796630352735
-0.0233796276152133
-0.0290548168122768
-0.0345560051500797
-0.0395284183323383
-0.0436551757156848
-0.0466921888291835
-0.0484926179051399
-0.0490154586732387
-0.0483181700110435
-0.0465404242277145
-0.0438828468322753
-0.0405819676816463
-0.0368830896914005
-0.0330138579010963
-0.0291632656008005
-0.0254686493426561
-0.0220099557191133
-0.0188110396265983
-0.015847036615014
-0.0130563303828239
-0.010356550104916
-0.0076623568311333
-0.004901154898107
-0.0020246095955371
0.0009849639609456
0.004114213399589
0.0073234345763921
0.0105539709329605
0.013737441971898
0.0168061442673206
0.0197021625936031
0.0223829895257949
0.0248236116021871
0.0270153302699327
0.0289611704647541
0.0306660234928131
0.0321176201105117
0.0332614704966545
0.0339831560850143
0.0341114848852157
0.0334475487470626
0.0318126380443573
0.0291006565093994
0.0253200978040695
0.0206120945513248
0.0152387823909521
0.0095470063388347
0.0039190156385302
-0.0012770248576998
-0.0057286964729428
-0.0092087425291538
-0.0115881105884909
-0.0128332739695906
-0.0129950549453496
-0.0121945505961775
-0.0106052327901124
-0.0084308749064803
-0.0058837244287133
-0.0031659882515668
-0.0004533948376774
0.0021188231185078
0.0044635348021984
0.0065421843901276
0.0083603849634528
0.0099586313590407
0.0113994423300027
0.012754495255649
0.0140933478251099
0.0154745038598775
0.0169380791485309
0.0184990055859088
0.0201443918049335
0.0218376107513904
0.023526381701231
0.0251522604376077
0.0266594942659139
0.0280006192624568
0.029139082878828
0.0300508625805377
0.0307252891361713
0.0311640389263629
0.0313786268234252
0.0313889719545841
0.0312234535813331
0.0309168435633182
0.0305033735930919
0.0300041604787111
0.0294082537293434
0.028649017214775
0.0275869872421026
0.0260160937905311
0.0236985050141811
0.0204168912023305
0.0160298701375722
0.0105178589001297
0.0040068486705422
-0.0032369215041399
-0.0108393859118223
-0.0183702353388071
-0.0254023112356662
-0.0315651148557662
-0.0365813970565795
-0.0402844026684761
-0.0426199808716774
-0.0436374545097351
-0.0434718951582908
-0.0423211380839347
-0.0404197983443737
-0.0380122624337673
-0.0353275649249553
-0.0325590409338474
-0.0298515055328607
-0.0272961501032114
-0.02493117749691
-0.0227474980056285
-0.020698981359601
-0.018715601414442
-0.0167174525558948
-0.0146288489922881
-0.0123924892395734
-0.0099796978756785
-0.0073926611803472
-0.0046603335067629
-0.0018308307044208
0.0010371240787208
0.0038802749477326
0.0066345646046102
0.0092384703457355
0.0116364378482103
0.0137829259037971
0.0156470332294702
0.017216607928276
0.0184987597167491
0.0195143483579158
0.0202898513525724
0.0208518523722887
0.0212251935154199
0.0214335545897483
0.0215010810643434
0.02145317196846
0.0213150158524513
0.0211056806147098
0.0208242479711771
0.0204286072403192
0.0198161844164133
0.0188197866082191
0.0172260645776987
0.0148156136274337
0.0114166010171175
0.0069561935961246
0.0014924332499504
-0.00478021427989
-0.0115494560450315
-0.0184239745140075
-0.0249847210943698
-0.030839379876852
-0.0356705076992511
-0.0392667949199676
-0.0415333993732929
-0.0424866825342178
-0.0422399006783962
-0.0409822762012481
-0.0389524586498737
-0.0364085808396339
-0.033598456531763
-0.0307354088872671
-0.0279831737279891
-0.0254488885402679
-0.0231827646493911
-0.0211830399930477
-0.0194033682346344
-0.0177631247788667
-0.0161636620759964
-0.0145080480724573
-0.0127180404961109
-0.0107443425804376
-0.0085701793432235
-0.0062109273858368
-0.0037100871559232
-0.0011302889324724
0.0014582606963813
0.0039872201159596
0.0063957264646887
0.0086346548050642
0.0106703005731105
0.0124851912260055
0.014076218008995
0.0154519043862819
0.016628935933113
0.0176283698529005
0.0184719376266002
0.0191788729280233
0.0197653044015169
0.0202456656843423
0.0206332001835107
0.0209385566413402
0.0211639963090419
0.0212887227535247
0.0212471522390842
0.0209119897335767
0.0200974475592374
0.0185890402644872
0.01619185321033
0.0127815250307321
0.0083448197692632
0.0030012889765203
-0.0030007064342498
-0.0093137007206678
-0.0155386347323656
-0.0212794374674558
-0.0261925123631954
-0.0300219822674989
-0.0326181575655937
-0.0339400433003902
-0.0340461991727352
-0.0330789498984813
-0.0312425345182418
-0.0287759192287921
-0.0259248577058315
-0.0229169726371765
-0.0199409648776054
-0.0171320959925651
-0.0145667120814323
-0.0122654717415571
-0.0102028120309114
-0.0083201341331005
-0.0065396931022405
-0.0047771334648132
-0.0029537854716181
-0.0010094717144966
0.0010864529758691
0.0033289892598986
0.0056793517433106
0.0080753602087497
0.0104454886168241
0.0127205913886427
0.0148415882140398
0.0167637281119823
0.0184583459049463
0.019913850352168
0.0211353804916143
0.022141108289361
0.0229570176452398
0.0236143209040164
0.0241483859717845
0.0245910435914993
0.0249512456357479
0.0251912213861942
0.0252124704420566
0.0248611085116863
0.0239527039229869
0.0223112292587757
0.0198145695030689
0.0164358504116535
0.0122669115662574
0.0075149266049265
0.0024754777550697
-0.0025079720653593
-0.0070909103378653
-0.0109718665480613
-0.0139236897230148
-0.0158118717372417
-0.0166032761335372
-0.0163630619645118
-0.0152384703978896
-0.0134336464107036
-0.0111818248406052
-0.0087181273847818
-0.0062544541433453
-0.0039595048874616
-0.0019460199400782
-0.0002658013254404
0.0010866383090615
0.0021631568670272
0.0030471486970782
0.0038374541327357
0.0046337815001606
0.0055239354260265
0.0065708798356354
0.0078039397485554
0.0092187449336051
0.0107823712751269
0.0124413073062896
0.0141325434669852
0.0157945081591606
0.0173750706017017
0.0188360549509525
0.020153734833002
0.0213167313486337
0.0223234556615352
0.0231779292225837
0.0238815080374479
0.024419505149126
0.0247427951544523
0.0247517693787813
0.0242967661470174
0.0232005640864372
0.0212957393378019
0.0184672698378562
0.0146912997588515
0.0100590623915195
0.004778116941452
-0.0008494488429278
-0.0064674541354179
-0.0117154195904731
-0.0162749495357275
-0.0199040882289409
-0.0224570799618959
-0.023889560252428
-0.0242508202791214
-0.0236670337617397
-0.0223208516836166
-0.0204300135374069
-0.0182236954569816
-0.01591825671494
-0.0136968484148383
-0.0116940606385469
-0.0099862683564424
-0.0085907559841871
-0.0074745253659784
-0.0065692737698554
-0.0057882042601704
-0.0050417650490999
-0.0042497809045016
-0.0033486625179648
-0.0022960712667554
-0.0010751130757853
0.0003044176846742
0.0018107946962118
0.0034003572072833
0.0050276583060622
0.0066505353897809
0.0082303592935204
0.0097311167046427
0.0111208697780966
0.012377037666738
0.0134910997003316
0.0144676659256219
0.0153197329491376
0.016061894595623
0.0166968256235122
0.017191169783473
0.0174498222768306
0.0173090659081935
0.0165591221302747
0.0149876102805137
0.0124301919713616
0.008816179819405
0.0041977623477578
-0.0012443149462342
-0.0072198938578367
-0.013368853367865
-0.0193113833665847
-0.0246974229812622
-0.0292457155883312
-0.0327673181891441
-0.0351731665432453
-0.0364704839885234
-0.0367519110441207
-0.0361758768558502
-0.034938309341669
-0.0332437492907047
-0.0312842242419719
-0.0292254611849784
-0.0271962322294712
-0.0252803415060043
-0.0235128365457057
-0.0218822304159402
-0.0203391350805759
-0.0188089665025472
-0.0172060243785381
-0.0154468426480889
-0.0134620806202292
-0.0112076615914702
-0.0086727021262049
-0.0058795656077563
-0.0028770426288247
0.000267140334472
0.0034725372679531
0.006653880700469
0.0097301471978425
0.0126313138753175
0.0153027670457959
0.0177087020128965
0.0198332648724317
0.0216782446950674
0.0232586488127708
0.0245987419039011
0.0257296841591596
0.0266862772405147
0.0275012925267219
0.0281997136771678
0.0287910960614681
0.0292546357959508
0.0295191444456577
0.0294489096850156
0.028847437351942
0.0274858716875314
0.0251528732478618
0.0217108838260173
0.0171404629945755
0.0115615669637918
0.0052277669310569
-0.0015040342696011
-0.0082201147451996
-0.0145057756453752
-0.0200006589293479
-0.0244382414966821
-0.0276624429970979
-0.0296265054494142
-0.0303820874541997
-0.0300629194825887
-0.0288637988269329
-0.0270158760249614
-0.024760790169239
-0.0223258025944232
-0.0199023596942424
-0.0176315680146217
-0.0155978351831436
-0.0138284871354699
-0.0122982105240225
-0.0109402453526854
-0.0096648698672652
-0.0083795273676514
-0.0070035504177212
-0.0054762922227382
-0.0037616388872265
-0.0018502618186175
0.0002420512028038
0.0024800635874271
0.0048161325976252
0.0071962205693125
0.009563636034727
0.0118623562157154
0.0140428757295012
0.0160687696188688
0.0179188512265682
0.0195843502879142
0.0210658702999353
0.0223723575472831
0.0235199555754661
0.0245287902653217
0.0254181176424026
0.0262025091797113
0.0268912557512521
0.0274899695068597
0.0280023533850908
0.0284312181174755
0.028775293380022
0.0290157832205295
0.0290934536606073
0.0288874544203281
0.0282103978097438
0.0268298145383596
0.0245141256600618
0.0210892856121063
0.016489490866661
0.0107889147475361
0.0042064748704433
-0.0029184883460402
-0.0101735200732946
-0.0171306803822517
-0.0234018787741661
-0.0286822170019149
-0.0327745638787746
-0.0355950184166431
-0.0371659062802791
-0.0376019701361656
-0.0370896905660629
-0.0358605608344078
-0.0341631397604942
-0.0322364121675491
-0.0302849113941192
-0.0284595787525177
-0.0268483683466911
-0.0254760291427373
-0.0243102516978979
-0.0232728328555822
-0.0222560260444879
-0.0211425051093101
-0.0198244452476501
-0.018218420445919
-0.0162754226475954
-0.0139852156862616
-0.0113743301481008
-0.0084992880001664
-0.0054368935525417
-0.0022733048535883
0.0009055666159838
0.0040217665955424
0.0070110531523823
0.0098245106637477
0.0124265551567077
0.0147939119488
0.0169162396341562
0.0187954995781183
0.0204445384442806
0.0218842923641204
0.0231377556920051
0.0242246836423873
0.0251602679491043
0.025955781340599
0.0266193281859159
0.0271548870950937
0.0275589562952518
0.027813309803605
0.0278692338615655
0.0276269577443599
0.0269258338958024
0.0255573838949203
0.0233014058321714
0.0199757702648639
0.01548608019948
0.0098629854619503
0.0032787583768367
-0.0039632217958569
-0.0114659890532493
-0.018792051821947
-0.025518761947751
-0.0312878899276256
-0.0358412228524684
-0.0390366166830062
-0.0408467128872871
-0.0413459688425064
-0.0406909026205539
-0.0390966273844242
-0.0368105396628379
-0.0340850241482257
-0.0311533734202384
-0.0282114297151565
-0.0254040956497192
-0.0228163748979568
-0.0204710811376571
-0.0183353312313556
-0.0163350440561771
-0.0143738994374871
-0.0123530412092804
-0.0101889921352267
-0.0078266328200697
-0.0052452171221375
-0.0024585640057921
0.0004887906834483
0.0035294219851493
0.0065848296508193
0.0095778759568929
0.0124409981071949
0.015119251795113
0.0175706259906291
0.0197661109268665
0.0216907449066638
0.0233439579606056
0.024737250059843
0.0258910544216632
0.0268324930220842
0.0275893006473779
0.0281720869243145
0.0285468511283397
0.0286139771342277
0.0282095409929752
0.0271316543221473
0.0251856427639722
0.0222383420914411
0.018266387283802
0.0133823147043585
0.0078311758115887
0.0019598705694079
-0.0038334121927618
-0.0091562699526548
-0.0136709446087479
-0.0171276070177555
-0.019382644444704
-0.0204042345285415
-0.0202646367251873
-0.0191204957664012
-0.0171880684792995
-0.0147179048508405
-0.0119679337367415
-0.009175257757306
-0.0065309181809425
-0.0041623804718256
-0.0021270029246807
-0.0004173051565885
0.0010261880233883
0.0023004794493317
0.0035236366093158
0.0048133870586752
0.0062644304707646
0.0079328399151563
0.0098326345905661
0.0119421733543276
0.0142133152112364
0.0165794268250465
0.0189623422920703
0.0212786085903644
0.0234470553696155
0.0253983829170465
0.0270835421979427
0.0284780208021402
0.0295808166265487
0.0304071977734565
0.0309729799628257
0.0312689803540706
0.031233787536621
0.0307413954287767
0.0296141188591718
0.0276587083935737
0.0247166473418474
0.0207142177969217
0.0156967025250196
0.0098389806225895
0.0034306598827242
-0.003161075990647
-0.0095400549471378
-0.0153310950845479
-0.0202242378145456
-0.0240046083927154
-0.0265637338161468
-0.0278956666588783
-0.0280835796147584
-0.0272812247276306
-0.0256917476654052
-0.0235463865101337
-0.0210834611207246
-0.0185253154486417
-0.0160552654415369
-0.013801209628582
-0.0118290707468986
-0.0101450495421886
-0.0087049771100282
-0.007429105695337
-0.006221224553883
-0.0049884878098964
-0.0036559251602739
-0.0021739283110946
-0.0005215285345911
0.0012930519878864
0.0032356730662286
0.0052526402287185
0.0072771906852722
0.0092362593859434
0.011059021577239
0.0126851145178079
0.0140704521909356
0.0151909403502941
0.0160438455641269
0.0166447460651397
0.0170184448361396
0.0171842016279697
0.0171347633004188
0.0168125741183757
0.0160962417721748
0.0148092750459909
0.0127518326044082
0.0097484085708856
0.0056996811181306
0.0006228610873222
-0.0053320210427045
-0.0118929371237754
-0.0186980813741683
-0.0253411121666431
-0.0314225256443023
-0.0365991368889808
-0.0406209453940391
-0.0433476418256759
-0.0447460114955902
-0.0448765642940998
-0.0438766181468963
-0.0419406183063983
-0.0392971336841583
-0.0361854434013366
-0.0328329801559448
-0.0294348802417516
-0.0261396281421184
-0.023042844608426
-0.0201879311352968
-0.0175718329846858
-0.0151544651016592
-0.0128705482929945
-0.0106439525261521
-0.0084040658548474
-0.0060989265330135
-0.0036987992934882
-0.0011895567877218
0.0014374881284311
0.0041902656666934
0.0070728510618209
0.0100784134119749
0.0131819676607847
0.0163362957537174
0.0194731280207633
0.0225092209875583
0.0253564342856407
0.0279330909252166
0.0301710441708564
0.0320174917578697
0.0334368534386158
0.0344134792685508
0.0349510461091995
0.0350663103163242
0.0347730182111263
0.0340544767677784
0.0328366756439209
0.0309803001582622
0.0283021572977304
0.0246228352189064
0.019825330004096
0.0139051917940378
0.0069968234747648
-0.0006300387904047
-0.0086002415046095
-0.0164811816066503
-0.0238386485725641
-0.0302898623049259
-0.0355437435209751
-0.039421372115612
-0.0418577678501606
-0.0428927429020404
-0.0426551476120948
-0.0413406603038311
-0.0391849540174007
-0.0364363193511962
-0.0333313606679439
-0.0300748087465763
-0.0268236957490444
-0.0236780866980552
-0.0206819549202919
-0.0178325213491916
-0.0150918159633874
-0.0123997768387198
-0.0096912812441587
-0.0069139339029788
-0.0040406910702586
-0.0010739965364336
0.0019572349265217
0.0050042523071169
0.0080071091651916
0.0109035605564713
0.0136361811310052
0.0161577202379703
0.0184344928711652
0.0204476229846477
0.0221922937780618
0.0236745290458202
0.0249078795313835
0.0259129740297794
0.0267177373170852
0.027355283498764
0.0278608538210392
0.028269238770008
0.0286120995879173
0.0289153717458248
0.0291964691132307
0.0294575560837984
0.0296704676002264
0.0297545343637466
0.029559226706624
0.0288680456578731
0.0274294223636388
0.0250065699219703
0.0214347690343856
0.0166721455752849
0.0108276735991239
0.0041580880060791
-0.002964281477034
-0.0101044587790966
-0.0168256927281618
-0.0227462295442819
-0.0275818891823291
-0.0311667788773775
-0.0334529839456081
-0.0344968400895595
-0.0344378501176834
-0.0334735512733459
-0.031833715736866
-0.0297566670924425
-0.0274682864546775
-0.0251625515520572
-0.0229837708175182
-0.0210153721272945
-0.0192788504064083
-0.0177408643066883
-0.0163260772824287
-0.014933937229216
-0.0134564228355884
-0.0117949545383453
-0.0098752044141292
-0.0076568834483623
-0.0051364842802286
-0.0023440429940819
0.000664317049086
0.0038151927292346
0.0070258886553347
0.010212268680334
0.0132957166060805
0.0162081960588693
0.0188966281712055
0.0213259160518646
0.023479625582695
0.025358946993947
0.0269797965884208
0.02836743183434
0.0295494385063648
0.0305501259863376
0.0313881896436214
0.0320744067430496
0.0326022505760192
0.0329278334975242
0.0329472124576568
0.0324870869517326
0.0313212722539901
0.0292136296629905
0.0259755738079547
0.0215209852904081
0.0159028992056846
0.0093228593468666
0.0021116540301591
-0.0053146588616073
-0.0125124407932162
-0.0190679840743541
-0.0246450491249561
-0.0290134698152542
-0.0320564694702625
-0.0337656810879707
-0.034230038523674
-0.0336163938045501
-0.0321419611573219
-0.0300439093261957
-0.0275520682334899
-0.02486770786345
-0.0221488308161497
-0.0195016451179981
-0.0169783476740121
-0.0145825948566198
-0.0122807640582323
-0.0100144231691956
-0.0077133579179644
-0.0053092241287231
-0.0027475655078887
2.4600885808467865e-06
0.0029408682603389
0.0060348710976541
0.0092241140082478
0.0124311111867427
0.0155720608308911
0.0185649916529655
0.0213368386030197
0.023830596357584
0.0260090008378028
0.0278532952070236
0.0293612573295831
0.0305463634431362
0.0314348228275775
0.0320595242083072
0.0324538238346576
0.0326422750949859
0.0326219648122787
0.0323389582335948
0.0316741019487381
0.0304494202136993
0.0284585431218147
0.0255148969590663
0.0215034782886505
0.0164212882518768
0.0103964740410447
0.003682754933834
-0.0033699525520205
-0.0103631019592285
-0.0169025044888257
-0.0226436965167522
-0.0273248068988323
-0.0307860262691974
-0.0329737216234207
-0.0339303016662597
-0.0337760858237743
-0.0326883047819137
-0.0308778416365385
-0.0285658538341522
-0.0259637683629989
-0.0232566557824611
-0.0205900967121124
-0.0180627889931201
-0.0157262627035379
-0.0135904494673013
-0.011630579829216
-0.0097938617691397
-0.0080110076814889
-0.0062137749046087
-0.0043509197421371
-0.0023958454839885
-0.0003466298803687
0.0017772763967514
0.0039393864572048
0.0060915406793355
0.0081799207255244
0.0101502602919936
0.0119516579434275
0.0135402614250779
0.0148829063400626
0.0159593671560287
0.016763549298048
0.0173039212822914
0.0176017917692661
0.0176874417811632
0.017595998942852
0.0173635613173246
0.0170204620808362
0.0165751650929451
0.0159895941615104
0.0151602234691381
0.0139193553477525
0.0120610427111387
0.0093872025609016
0.0057623051106929
0.0011604540050029
-0.0043104086071252
-0.0104130115360021
-0.0168094411492347
-0.0231085494160652
-0.0289231929928064
-0.0339209139347076
-0.0378569513559341
-0.040589839220047
-0.042081668972969
-0.0423850007355213
-0.0416230112314224
-0.0399691089987754
-0.0376273542642593
-0.0348136387765407
-0.0317375138401985
-0.0285851433873176
-0.0255059376358985
-0.0226028338074684
-0.0199256427586078
-0.0174720585346221
-0.0151976328343153
-0.0130311632528901
-0.0108935870230197
-0.0087158866226673
-0.0064505576156079
-0.0040770773775875
-0.0016031833365559
0.0009395030792802
0.0035047559067606
0.0060412650927901
0.0084998738020658
0.0108377803117036
0.0130202509462833
0.0150224501267075
0.0168303716927766
0.0184380505234003
0.0198440570384264
0.0210519041866064
0.0220714006572961
0.0229166690260171
0.0236027631908655
0.024143099784851
0.024548053741455
0.0248245820403099
0.0249756351113319
0.0249970201402902
0.0248675476759672
0.0245307069271802
0.0238757859915494
0.0227343831211328
0.0209037046879529
0.0181917008012533
0.0144674945622682
0.0097034098580479
0.0040006143972277
-0.0024091452360153
-0.0091891940683126
-0.0159440506249666
-0.0222726352512836
-0.0278164166957139
-0.0322956889867782
-0.0355312228202819
-0.0374501720070838
-0.0380788668990135
-0.0375280790030956
-0.0359734520316123
-0.0336313769221305
-0.0307328607887029
-0.0274995006620883
-0.0241245944052934
-0.0207612439990043
-0.0175164006650447
-0.0144490972161293
-0.011573520489037
-0.0088671185076236
-0.0062823058106005
-0.003760224673897
-0.0012448276393115
0.0013051414862275
0.0039083613082766
0.0065566007979214
0.0092150038108229
0.0118297412991523
0.0143380928784608
0.0166751965880393
0.0187794510275125
0.0205985773354768
0.0220951624214649
0.0232502501457929
0.0240635816007852
0.0245507471263408
0.0247399248182773
0.0246698558330535
0.0243874341249465
0.0239432752132415
0.0233865901827812
0.0227608419954776
0.0221012495458126
0.0214362479746341
0.0207914337515831
0.0201898291707038
0.0196469165384769
0.0191630311310291
0.0187108721584081
0.018217971548438
0.0175552312284708
0.016544884070754
0.014991408213973
0.0127262622117996
0.0096519589424133
0.0057742744684219
0.0012143058702349
-0.0038029965944588
-0.008978746831417
-0.0139809679239988
-0.0184904299676418
-0.0222426056861877
-0.0250548757612705
-0.0268357191234827
-0.0275817736983299
-0.0273686051368713
-0.0263368748128414
-0.0246740411967039
-0.0225921496748924
-0.0203044712543487
-0.0180044658482074
-0.0158488191664218
-0.0139452200382947
-0.0123456884175539
-0.0110471872612833
-0.0100005734711885
-0.0091253900900483
-0.008326880633831
-0.0075124818831682
-0.0066048139706254
-0.0055492725223302
-0.0043168240226805
-0.0029039019718766
-0.0013300012797117
0.000367235392332
0.0021383515559136
0.0039289966225624
0.0056869788095355
0.0073672188445925
0.0089332172647118
0.0103584164753556
