bvp
-0.0285586528480052
-0.0335470661520957
-0.0369769558310508
-0.0387982800602912
-0.0390855595469474
-0.0380144529044628
-0.0358327738940715
-0.0328302197158336
-0.0293082688003778
-0.0255521442741155
-0.0218064226210117
-0.0182558372616767
-0.0150163332000374
-0.0121380677446722
-0.009616419672966
-0.0074093760922551
-0.0054584527388215
-0.0037055094726383
-0.0021016197279095
-0.0006100735627114
0.0007929885759949
0.0021192366257309
0.0033722054213285
0.0045539028942584
0.0056697279214859
0.0067294761538505
0.007745704613626
0.0087319826707243
0.0097019430249929
0.0106700640171766
0.0116534922271966
0.0126726552844047
0.0137513913214206
0.0149160465225577
0.0161914397031068
0.0175946317613124
0.0191275253891944
0.0207700058817863
0.0224776528775692
0.0241862442344427
0.025820106267929
0.027301387861371
0.0285595878958702
0.0295342579483985
0.030161328613758
0.0303455609828233
0.0299333464354276
0.0287054367363452
0.026403184980154
0.0227847397327423
0.017693443223834
0.0111156180500984
0.0032102838158607
-0.0056958179920911
-0.015145456418395
-0.024610623717308
-0.0335616581141948
-0.0415318720042705
-0.0481647700071334
-0.0532371923327446
-0.0566595271229743
-0.058461382985115
-0.058772325515747
-0.0577997528016567
-0.0558011606335639
-0.0530521981418132
-0.0498173311352729
-0.0463275201618671
-0.0427633002400398
-0.0392434075474739
-0.0358230583369731
-0.0325020775198936
-0.0292390529066324
-0.0259694866836071
-0.0226253308355808
-0.0191503930836915
-0.0155097972601652
-0.0116962771862745
-0.0077352058142423
-0.0036852634511888
0.0003695371560752
0.0043341652490198
0.0081152878701686
0.0116289323195815
0.0148066729307174
0.017601378262043
0.0199894588440656
0.0219699591398239
0.0235615856945514
0.0247966051101684
0.0257147084921598
0.0263612736016511
0.0267867036163806
0.0270419381558895
0.0271729361265897
0.0272182095795869
0.0272085815668106
0.0271666515618562
0.0271039456129074
0.0270139463245868
0.0268595274537801
0.0265566669404506
0.0259639360010623
0.0248905830085277
0.0231289118528366
0.0205035097897052
0.0169221870601177
0.0124145857989788
0.0071462215855717
0.001401106826961
-0.0044614691287279
-0.010061852633953
-0.0150524601340293
-0.0191590636968612
-0.0222066640853881
-0.0241279564797878
-0.0249565169215202
-0.0248097144067287
-0.0238659940659999
-0.0223400108516216
-0.0204583927989006
-0.0184378437697887
-0.0164654441177845
-0.0146821662783622
-0.0131733901798725
-0.0119676478207111
-0.0110416524112224
-0.0103299580514431
-0.0097375977784395
-0.0091553907841444
-0.0084775006398558
-0.0076177013106644
-0.006519800517708
-0.0051593268290162
-0.003538375487551
-0.0016791679663583
0.0003809477493632
0.002594371791929
0.0049099279567599
0.0072808191180229
0.0096696652472019
0.0120477946475148
0.014392590150237
0.0166875049471855
0.0189222730696201
0.0210890807211399
0.0231768786907196
0.025168377906084
0.0270397569984197
0.0287602301687002
0.0302912816405296
0.0315879359841346
0.0326012894511222
0.0332789830863475
0.0335607677698135
0.0333679504692554
0.032593086361885
0.0311002731323242
0.0287411250174045
0.0253861956298351
0.0209652949124574
0.0155027173459529
0.0091347927227616
0.0021066777408123
-0.0052498336881399
-0.0125556457787752
-0.0194339156150817
-0.0255560390651226
-0.0306732058525085
-0.0346308201551437
-0.0373685657978057
-0.0389118269085884
-0.0393573157489299
-0.0388529971241951
-0.0375764034688472
-0.0357158482074737
-0.0334551259875297
-0.0309595093131065
-0.0283620208501815
-0.0257532559335231
-0.023179218173027
-0.0206474605947732
-0.018136378377676
-0.0156039614230394
-0.012999041005969
-0.010277702473104
-0.0074197445064783
-0.0044380417093634
-0.0013789599761366
0.0016842029290273
0.0046610506251454
0.0074541554786264
0.0099685667082667
0.0121207972988486
0.0138466591015458
0.0151053993031382
0.0158809088170528
0.01618392765522
0.0160525608807802
0.0155468666926026
0.0147404056042432
0.0137123921886086
0.0125401373952627
0.0112930610775947
0.0100310798734426
0.0088041499257087
0.0076469648629426
0.0065670856274664
0.0055297003127634
0.0044478261843323
0.003188569098711
0.0015994948334991
-0.000451712636277
-0.0030387369915843
-0.0061502740718424
-0.0096790976822376
-0.0134292496368289
-0.0171425323933362
-0.0205377265810966
-0.0233511887490749
-0.0253694951534271
-0.0264504346996545
-0.0265324488282203
-0.0256336107850074
-0.0238433219492435
-0.0213111825287342
-0.0182327032089233
-0.0148292277008295
-0.0113258510828018
-0.0079326014965772
-0.0048274910077452
-0.0021406579762697
5.4681673645973206e-05
0.0017417976632714
0.0029542627744376
0.0037649632431566
0.0042714532464742
0.0045825606212019
0.0048064105212688
0.0050370693206787
0.0053425882942974
0.0057602478191256
0.0063000516965985
0.0069514703936874
0.0076894550584256
0.0084815649315714
0.009297115728259
0.010113569907844
0.0109169268980622
0.0116986595094203
0.0124539202079176
0.0131822936236858
0.013887794688344
0.0145777082070708
0.0152620924636721
0.0159509666264057
0.0166474003344774
0.0173405483365058
0.0179990865290164
0.0185612700879573
0.0189247075468301
0.0189439728856086
0.0184424389153718
0.017241945490241
0.0152041539549827
0.0122694000601768
0.0084823258221149
0.0039970693178474
-0.0009397473186254
-0.0060206037014722
-0.010915657505393
-0.0153154078871011
-0.0189715828746557
-0.0217247512191534
-0.0235107764601707
-0.0243504103273153
-0.0243324674665927
-0.023596279323101
-0.0223127827048301
-0.0206633638590574
-0.0188203528523445
-0.0169338658452034
-0.0151228345930576
-0.0134659186005592
-0.0119951646775007
-0.0106982253491878
-0.0095274243503808
-0.008409559726715
-0.0072564948350191
-0.0059796068817377
-0.0045049600303173
-0.0027831867337226
-0.0007930733263492
0.0014585945755243
0.0039393827319145
0.0065953377634286
0.0093561671674251
0.0121402870863676
0.0148604391142725
0.017432389780879
0.0197844933718442
0.0218622796237468
0.023628432303667
0.025062870234251
0.0261628441512584
0.0269390773028135
0.0274048466235399
0.0275571905076503
0.027355819940567
0.0267117917537689
0.0254940558224916
0.0235534086823463
0.0207591392099857
0.0170405507087707
0.0124231446534395
0.0070480285212397
0.0011659236624836
-0.0048923715949058
-0.0107584632933139
-0.0160716976970434
-0.0205212123692035
-0.0238789021968841
-0.0260172802954912
-0.0269103683531284
-0.0266223810613155
-0.0252914763987064
-0.0231108404695987
-0.0203059073537588
-0.0171095542609691
-0.0137390382587909
-0.0103772301226854
-0.007160821929574
-0.0041759274899959
-0.0014577526599168
0.0010046903043985
0.0032557994127273
0.0053562708199024
0.0073682945221662
0.0093441559001803
0.0113154938444495
0.0132853640243411
0.0152291888371109
0.017103623598814
0.0188565906137228
0.0204365607351064
0.0218006744980812
0.0229186788201332
0.0237746480852365
0.0243693683296442
0.0247195567935705
0.0248505137860775
0.0247830152511596
0.0245156921446323
0.0240066349506378
0.0231623575091362
0.0218428932130336
0.0198872461915016
0.0171546097844839
0.0135694481432437
0.0091570476070046
0.0040595959872007
-0.0014707609079778
-0.0071004135534167
-0.0124595053493976
-0.0171940941363573
-0.0210122670978307
-0.0237140823155641
-0.0252037569880485
-0.0254900306463241
-0.0246779285371303
-0.0229497198015451
-0.0205371566116809
-0.0176930539309978
-0.0146667920053005
-0.0116827394813299
-0.0089215217158198
-0.0065066451206803
-0.0044991807080805
-0.002901264000684
-0.0016648927703499
-0.0007031159475445
9.486591443419456e-05
0.0008446024730801
0.0016491208225488
0.0025890166871249
0.0037182921078056
0.0050619193352758
0.0066150296479463
0.0083456924185156
0.0102016143500804
0.0121188685297966
0.0140307545661926
0.015875119715929
0.0175977051258087
0.019152570515871
0.0205036140978336
0.0216259900480508
0.0225012321025133
0.0231007579714059
0.0233608391135931
0.0231630634516477
0.0223346035927534
0.020673494786024
0.0179951228201389
0.0141880754381418
0.0092610083520412
0.0033635841682553
-0.0032220459543168
-0.0101133566349744
-0.0168790910392999
-0.023100022226572
-0.0284204855561256
-0.0325807109475135
-0.0354323163628578
-0.0369408763945102
-0.0371758043766021
-0.0362901426851749
-0.0344975665211677
-0.0320486761629581
-0.0292034652084112
-0.026203105226159
-0.0232482254505157
-0.0204854775220155
-0.018000554293394
-0.0158177316188812
-0.0139063689857721
-0.0121932597830891
-0.010579471476376
-0.0089592868462204
-0.0072373752482235
-0.0053418390452861
-0.0032333622220903
-0.0009097012225538
0.0015972252003848
0.0042306687682867
0.006918556522578
0.0095804501324892
0.012136205099523
0.0145170968025922
0.0166733935475349
0.0185744743794202
0.0202040094882249
0.021556181833148
0.0226349867880344
0.0234530642628669
0.0240277182310819
0.0243731681257486
0.0244857519865036
0.0243213791400194
0.0237745456397533
0.0226743537932634
0.0208077020943164
0.0179668329656124
0.0140064507722854
0.0088942358270287
0.0027439091354608
-0.0041796099394559
-0.0114888157695531
-0.0187275260686874
-0.0254349764436483
-0.0312066711485385
-0.0357392132282257
-0.0388525798916816
-0.0404930636286735
-0.0407230406999588
-0.0397012867033481
-0.0376561544835567
-0.0348546914756298
-0.0315723195672035
-0.0280673280358314
-0.0245606619864702
-0.0212203953415155
-0.0181526709347963
-0.0154005764052271
-0.0129497190937399
-0.010739623568952
-0.0086807012557983
-0.0066726757213473
-0.0046191364526748
-0.0024385377764701
-7.397588342428207e-05
0.00249914964661
0.0052696503698825
0.0081929275766015
0.0111982440575957
0.0141973160207271
0.0170952342450618
0.019804673269391
0.0222565867006778
0.0244038738310337
0.0262216497212648
0.027706254273653
0.0288733877241611
0.0297540016472339
0.0303867738693952
0.0308110006153583
0.0310630425810813
0.0311734192073345
0.0311618037521839
0.0310300048440694
0.0307494420558214
0.0302402786910533
0.0293540973216295
0.0278805699199438
0.0255832262337207
0.0222525168210268
0.0177633017301559
0.0121227754279971
0.0054941764101386
-0.0018104137852787
-0.0093674007803201
-0.0167020559310913
-0.0233558937907218
-0.0289428327232599
-0.0331855602562427
-0.0359339751303195
-0.0371694602072238
-0.0369945093989372
-0.0356085114181041
-0.0332765690982341
-0.0302971415221691
-0.026971323415637
-0.0235759150236845
-0.020340196788311
-0.0174268763512372
-0.0149215701967477
-0.0128346923738718
-0.0111136343330144
-0.0096604833379387
-0.0083516584709286
-0.007057387381792
-0.0056611509062349
-0.0040773209184408
-0.0022624807897955
-0.0002168679493479
0.0020244978368282
0.0044043860398232
0.0068514901213347
0.0092857321724295
0.0116259520873427
0.0137984277680516
0.0157431624829769
0.0174177587032318
0.0187981892377138
0.0198767874389886
0.0206601284444332
0.0211670771241188
0.0214256737381219
0.0214700624346733
0.0213383994996547
0.0210702661424875
0.0207028090953826
0.0202663335949182
0.019779484719038
0.0192399527877569
0.018605038523674
0.0177696160972118
0.0165617130696773
0.0147662395611405
0.012170111760497
0.0086162742227315
0.0040534241124987
-0.0014324598014354
-0.0076136849820613
-0.0141447531059384
-0.020609175786376
-0.0265780724585056
-0.0316683091223239
-0.0355891734361648
-0.038169540464878
-0.0393638238310813
-0.0392407923936843
-0.0379628017544746
-0.0357609093189239
-0.0329053997993469
-0.0296736694872379
-0.0263228453695774
-0.0230696126818656
-0.0200737845152616
-0.017427185550332
-0.015153738670051
-0.0132207153365015
-0.0115539385005831
-0.0100529557093977
-0.0086084511131048
-0.0071209813468158
-0.0055154841393232
-0.003749027615413
-0.0018123760819435
0.0002740053460001
0.0024669507984071
0.004707605112344
0.0069290646351873
0.0090657351538538
0.0110620316118001
0.0128774913027882
0.0144885703921318
0.0158890951424837
0.0170892030000686
0.0181118883192539
0.0189883634448051
0.0197528954595327
0.0204367712140083
0.0210598073899745
0.0216149687767028
0.022047746926546
0.0222425796091556
0.0220281481742858
0.021203976124525
0.0195827428251504
0.0170384664088487
0.0135476300492882
0.0092117926105856
0.00425595510751
-0.0009973223786801
-0.0061721536330878
-0.0108915204182267
-0.0148268351331353
-0.0177358668297529
-0.0194822493940591
-0.0200373716652393
-0.0194716732949018
-0.0179381072521209
-0.0156482644379138
-0.0128457807004451
-0.0097810793668031
-0.0066880695521831
-0.0037633385509252
-0.0011491756886243
0.0010762980673462
0.0028990027494728
0.0043611610308289
0.0055481079034507
0.0065691052004694
0.0075361286289989
0.0085466131567955
0.0096711935475468
0.0109462309628725
0.0123726278543472
0.0139198144897818
0.0155326053500175
0.0171408392488956
0.0186712499707937
0.020058574154973
0.0212514586746692
0.0222134348005056
0.0229247920215129
0.0233846381306648
0.0236073862761259
0.0236157476902008
0.0234343446791172
0.0230813845992088
0.0225551947951316
0.0218166150152683
0.0207744017243385
0.0192855782806873
0.0171785801649093
0.0142950322479009
0.0105365766212344
0.005902636796236
0.0005112262442708
-0.0054023256525397
-0.0115117467939853
-0.0174448154866695
-0.0228357128798961
-0.0273748654872179
-0.0308435894548892
-0.0331258885562419
-0.0342052355408668
-0.0341563895344734
-0.0331305786967277
-0.0313311293721199
-0.0289858728647232
-0.0263234451413154
-0.0235537309199571
-0.020850770175457
-0.0183411315083503
-0.0161004289984703
-0.0141543950885534
-0.0124819278717041
-0.0110231889411807
-0.0096934139728546
-0.008399000391364
-0.0070538925938308
-0.005593423731625
-0.0039817448705434
-0.0022124073002487
-0.0003046421334147
0.001700900029391
0.0037464532069861
0.0057650692760944
0.0076912557706236
0.0094688590615987
0.0110545195639133
0.012419581413269
0.013551365584135
0.0144506553187966
0.0151263335719704
0.015592947602272
0.0158718209713697
0.0159917902201414
0.0159872286021709
0.0158931650221347
0.0157396215945482
0.0155438836663961
0.0152935776859521
0.0149218374863266
0.0142914103344082
0.0132037820294499
0.0114343948662281
0.0087832659482955
0.0051276208832859
0.0004634223878383
-0.0050751520320773
-0.0112228570505976
-0.0176156871020793
-0.0238407477736473
-0.0294911842793226
-0.034216359257698
-0.037760704755783
-0.0399851091206073
-0.0408702492713928
-0.0405056588351726
-0.0390671417117118
-0.0367880314588546
-0.0339306518435478
-0.0307583510875701
-0.0275084190070629
-0.0243703667074441
-0.0214737337082624
-0.0188851207494735
-0.0166112147271633
-0.0146059487015008
-0.0127825736999511
-0.0110316611826419
-0.0092428047209978
-0.0073243882507085
-0.0052165612578392
-0.0028954707086086
-0.0003711245954036
0.0023164264857769
0.0051027634181082
0.0079098902642726
0.0106596043333411
0.0132831027731299
0.0157242864370346
0.0179392993450164
0.0198966786265373
0.0215805005282163
0.0229936242103576
0.0241556148976087
0.0250949990004301
0.0258413143455982
0.0264216214418411
0.0268608424812555
0.027182288467884
0.0274075008928775
0.0275555588304996
0.0276397485285997
0.027659572660923
0.0275851041078567
0.0273349415510892
0.0267605148255825
0.0256516188383102
0.0237692408263683
0.020900497213006
0.0169194154441356
0.011832850985229
0.0057983202859759
-0.0008867993019521
-0.0078201666474342
-0.0145489489659667
-0.0206334609538316
-0.0257040429860353
-0.029500339180231
-0.0318898856639862
-0.0328671596944332
-0.0325384847819805
-0.0310984030365943
-0.0288001094013452
-0.0259238108992576
-0.0227480717003345
-0.0195254161953926
-0.0164608769118785
-0.0136953294277191
-0.0112984916195273
-0.0092732226476073
-0.0075670909136533
-0.006086790934205
-0.00471499748528
-0.0033296542242169
-0.001822005957365
-0.0001111524179577
0.0018451754003763
0.0040466347709298
0.0064549501985311
0.0090039633214473
0.0116098569706082
0.0141798816621303
0.0166215877979993
0.0188522934913635
0.020806435495615
0.0224408693611621
0.023738220334053
0.0247068386524915
0.0253763739019632
0.025790387764573
0.0259990952908992
0.0260521788150072
0.025991566479206
0.0258484315127134
0.025644201785326
0.0253896340727806
0.0250791236758232
0.0246782321482896
0.0241039469838142
0.0232089553028345
0.0217875372618436
0.0196087229996919
0.0164671204984188
0.0122376624494791
0.0069220964796841
0.000674468872603
-0.0062044630758464
-0.0133048212155699
-0.0201671998947858
-0.0263477340340614
-0.031474731862545
-0.0352885983884334
-0.0376603305339813
-0.038589596748352
-0.038189060986042
-0.0366617031395435
-0.0342734605073928
-0.0313213281333446
-0.0281012468039989
-0.0248811710625886
-0.0218780674040317
-0.0192381255328655
-0.0170266162604093
-0.0152312032878398
-0.0137754464522004
-0.0125387068837881
-0.0113800587132573
-0.0101620033383369
-0.0087687475606799
-0.0071179438382387
-0.0051679881289601
-0.0029200939461588
-0.0004143388941884
0.0022785710170865
0.0050689587369561
0.0078617082908749
0.0105680078268051
0.0131122656166553
0.01543581020087
0.0175002198666334
0.0192883610725402
0.0208016540855169
0.0220546592026948
0.0230686850845813
0.0238680317997932
0.0244790837168693
0.0249264948070049
0.0252208486199378
0.0253372229635715
0.0251921135932207
0.0246318876743316
0.0234437957406044
0.0213942620903253
0.0182888880372047
0.0140350610017776
0.0086849965155124
0.0024481343571096
-0.0043279090896248
-0.0112024042755365
-0.0177007559686899
-0.0233756396919488
-0.0278604999184608
-0.0309065654873847
-0.0324001908302307
-0.0323639847338199
-0.0309436172246933
-0.0283816643059253
-0.024983711540699
-0.0210818350315094
-0.0169986486434936
-0.0130152087658643
-0.0093471892178058
-0.0061321463435888
-0.0034261755645275
-0.0012087188661098
0.0006028618663549
0.002131120301783
0.0035156169906258
0.0048925699666142
0.0063753980211913
0.008038911037147
0.0099131353199481
0.0119859660044312
0.0142103470861911
0.0165143106132745
0.0188133232295513
0.0210237801074981
0.0230742916464805
0.024910595268011
0.0264955013990402
0.0278096832334995
0.0288529433310031
0.0296405125409364
0.0301944203674793
0.0305310897529125
0.0306410863995552
0.0304625444114208
0.0298629030585289
0.0286462660878896
0.0265913680195808
0.0235092248767614
0.0193008184432983
0.0139972707256674
0.0077745411545038
0.0009416886605322
-0.0060964454896748
-0.0128954416140913
-0.0190321989357471
-0.0241576991975307
-0.0280338209122419
-0.0305491257458925
-0.0317142158746719
-0.0316430777311325
-0.0305283218622207
-0.0286157950758934
-0.0261782631278038
-0.0234864670783281
-0.0207798220217227
-0.0182422343641519
-0.0159888416528701
-0.0140650263056159
-0.012453805655241
-0.0110870087519288
-0.0098586156964302
-0.008641842752695
-0.007310988381505
-0.0057635614648461
-0.0039351708255708
-0.0018052093219012
0.0006033210083842
0.0032286494970321
0.0059809745289385
0.008757428266108
0.0114561030641198
0.0139852818101644
0.0162684377282857
0.0182481668889522
0.0198905318975448
0.0211864914745092
0.0221474934369325
0.0227994620800018
0.023179730400443
0.0233342442661523
0.0233093220740556
0.0231317095458507
0.0227758437395095
0.0221336614340543
0.021010709926486
0.0191572196781635
0.0163240730762481
0.0123281152918934
0.007110571488738
0.000772351399064
-0.0064230235293507
-0.0140777574852108
-0.0217133220285177
-0.0288383103907108
-0.0350139737129211
-0.0399036556482315
-0.0433013103902339
-0.0451397150754928
-0.0454801097512245
-0.0444870069622993
-0.0423967875540256
-0.0394876673817634
-0.0360508188605308
-0.0323607213795185
-0.028650626540184
-0.0250985249876976
-0.0218205396085977
-0.018868938088417
-0.0162359252572059
-0.0138633204624056
-0.0116577539592981
-0.009510445408523
-0.0073165232315659
-0.0049897017888724
-0.0024733426980674
0.0002524854498915
0.0031711286865174
0.0062357410788536
0.0093773454427719
0.0125130889937281
0.0155551843345165
0.0184189062565565
0.0210307277739048
0.0233376026153564
0.0253113377839326
0.0269449446350336
0.0282476916909217
0.0292432624846696
0.029966976493597
0.0304601527750492
0.0307648032903671
0.0309178512543439
0.0309381578117609
0.0308013297617435
0.0304098054766654
0.0295792333781719
0.0280574522912502
0.0255747456103563
0.0219114795327186
0.0169625300914049
0.0107811680063605
0.0035933377221226
-0.0042224479839205
-0.0121867479756474
-0.0197888873517513
-0.0265565142035484
-0.0321106053888797
-0.0362003073096275
-0.0387166328728199
-0.0396850928664207
-0.0392432548105716
-0.0376128628849983
-0.0350710451602935
-0.0319207794964313
-0.0284610949456691
-0.0249578058719635
-0.0216184686869382
-0.018578203395009
-0.0158982574939727
-0.0135725643485784
-0.0115391239523887
-0.0096966782584786
-0.0079267956316471
-0.0061169024556875
-0.0041769812814891
-0.0020491692703217
0.0002862102119252
0.0028100290801376
0.0054714977741241
0.0081994095817208
0.0109128337353467
0.0135298855602741
0.0159751083701849
0.0181857254356145
0.0201161447912454
0.0217403024435043
0.0230522695928812
0.0240646842867136
0.0248046275228261
0.0253088697791099
0.0256200954318046
0.0257831737399101
0.0258405096828937
0.0258268881589174
0.0257642120122909
0.0256543289870023
0.0254646725952625
0.0251056067645549
0.0244134757667779
0.0231585018336772
0.0210818015038967
0.0179511103779077
0.0136224059388041
0.00809280667454
0.0015274509787559
-0.0057498039677739
-0.0132974945008754
-0.0206169374287128
-0.0272190198302268
-0.032685786485672
-0.036716029047966
-0.0391488075256347
-0.039966944605112
-0.0392849296331405
-0.0373248122632503
-0.0343842133879661
-0.0307987630367279
-0.0269022285938262
-0.0229916609823703
-0.0193027127534151
-0.0159932356327772
-0.0131340250372886
-0.0107123414054512
-0.0086508532986044
-0.0068338238634169
-0.0051318309269845
-0.0034242286346852
-0.0016185906715691
0.0003371639177203
0.0024521211162209
0.0046982755884528
0.0070224157534539
0.0093592349439859
0.0116406129673123
0.0138003956526517
0.015779010951519
0.017531145364046
0.0190348103642463
0.0202993340790271
0.0213692840188741
0.0223188325762748
0.0232353787869215
0.0241980142891407
0.0252578184008598
0.0264269486069679
0.0276785176247358
0.0289526917040348
0.0301653854548931
0.0312185138463974
0.0320093296468257
0.0324326045811176
0.0323704592883586
0.0316753461956977
0.0301626473665237
0.0276254676282405
0.0238717626780271
0.0187763161957263
0.0123331528156995
0.0046876817941665
-0.0038636047393083
-0.0129020372405648
-0.0219370443373918
-0.0304717160761356
-0.0380685739219188
-0.0443976037204265
-0.0492609627544879
-0.0525976568460464
-0.0544705837965011
-0.0550407320261001
-0.0545375384390354
-0.0532293394207954
-0.0513933449983596
-0.0492871403694152
-0.0471243597567081
-0.0450569093227386
-0.0431659370660781
-0.0414625331759452
-0.0398983135819435
-0.0383829660713672
-0.036803513765335
-0.0350434482097625
-0.0330018550157547
-0.0306086596101522
-0.0278323255479335
-0.0246803555637598
-0.0211948491632938
-0.0174459554255008
-0.0135239567607641
-0.009529210627079
-0.0055615538731217
-0.001710875891149
0.0019505955278873
0.0053721773438155
0.0085244122892618
0.0113986432552337
0.0140068717300891
0.0163770802319049
0.0185448229312896
0.0205455776304006
0.022404683753848
0.0241181757301092
0.0256278701126575
0.0268058292567729
0.0274627208709716
0.0273828208446502
0.0263758432120084
0.0243300385773181
0.0212521776556968
0.0172844845801591
0.0126946931704878
0.0078420583158731
0.0031259506940841
-0.0010728351771831
-0.0044420436024665
-0.0067661963403224
-0.0079360734671354
-0.0079486239701509
-0.0068978257477283
-0.0049554221332073
-0.0023466106504201
0.0006755478680133
0.0038577932864427
0.0069743879139423
0.0098488256335258
0.012366272509098
0.0144768441095948
0.0161906257271766
0.0175665766000747
0.01869822666049
0.0196981970220804
0.0206816643476486
0.0217484775930643
0.0229676123708486
0.0243700332939624
0.02595023997128
0.0276704765856266
0.0294645689427852
0.0312447436153888
0.0329131446778774
0.0343753099441528
0.0355522707104682
0.0363882780075073
0.0368545204401016
0.0369510948657989
0.0367052070796489
0.0361638888716697
0.0353842563927173
0.0344224721193313
0.0333155542612075
0.0320537351071834
0.0305568631738424
0.0286723915487527
0.0262005068361759
0.0229404494166374
0.0187456998974084
0.0135725149884819
0.0075091510079801
0.0007801102474331
-0.006276125088334
-0.0132537111639976
-0.0197395533323287
-0.0253702253103256
-0.0298730619251728
-0.033087283372879
-0.0349676497280597
-0.0355742014944553
-0.0350505001842975
-0.0335973910987377
-0.0314493440091609
-0.0288520120084285
-0.0260403268039226
-0.0232207830995321
-0.020557552576065
-0.0181626044213771
-0.0160931274294853
-0.0143542783334851
-0.0129047930240631
-0.0116686979308724
-0.0105531746521592
-0.0094667561352252
-0.0083331074565649
-0.0070987874642014
-0.0057360786013305
-0.0042433864437043
-0.0026433456223458
-0.0009765964932739
0.0007070335559546
0.0023559406399726
0.0039222473278641
0.0053660757839679
0.006658662110567
0.0077836606651544
0.0087362267076969
0.0095223970711231
0.0101589784026145
0.0106709469109773
0.011087093502283
0.0114365359768271
0.0117444563657045
0.0120209529995918
0.0122399441897869
0.0123157696798443
0.0120915547013282
0.0113500664010643
0.0098495949059724
0.0073779840022325
0.0038099875673651
-0.0008493913337588
-0.0064475974068045
-0.0126966768875718
-0.0192119888961315
-0.025567403063178
-0.0313529632985591
-0.0362240448594093
-0.0399352088570594
-0.0423557795584201
-0.0434677563607692
-0.0433511100709438
-0.0421638563275337
-0.0401191040873527
-0.0374585837125778
-0.0344262644648551
-0.0312443934381008
-0.0280927345156669
-0.0250957682728767
-0.0223205331712961
-0.0197806321084499
-0.0174430031329393
-0.0152397798374295
-0.0130859492346644
-0.0108972918242216
-0.0086037730798125
-0.0061590806581079
-0.0035464451648294
-0.0007791314274072
0.0021028802730143
0.0050380667671561
0.0079509858042001
0.010762283578515
0.0133986007422208
0.0158008839935064
0.0179305430501699
0.0197715479880571
0.0213280357420444
0.0226192250847816
0.0236731264740228
0.0245207846164703
0.0251924637705087
0.0257166288793087
0.0261214040219783
0.0264345537871122
0.0266796611249446
0.0268721431493759
0.0270183756947517
0.0271170102059841
0.0271579250693321
0.0271114017814397
0.0269064921885728
0.0264111794531345
0.025431165471673
0.0237351600080728
0.0211022477596998
0.0173790045082569
0.0125300949439406
0.0066673504188656
4.866998642683029e-05
-0.0069535188376903
-0.0139046628028154
-0.020367806777358
-0.0259605385363101
-0.0303983688354492
-0.0335162580013275
-0.0352706797420978
-0.0357283651828765
-0.0350453816354274
-0.0334408245980739
-0.031168807297945
-0.0284904018044471
-0.0256480667740106
-0.0228445641696453
-0.0202258769422769
-0.0178697537630796
-0.0157854743301868
-0.0139263216406106
-0.0122082130983471
-0.0105282049626111
-0.0087818829342722
-0.0068803010508418
-0.0047638779506087
-0.0024083200842142
0.0001779003068804
0.00295877084136
0.0058754226192831
0.0088527612388134
0.0118092726916074
0.014666830189526
0.0173574332147836
0.0198270939290523
0.0220385454595088
0.0239722449332475
0.0256243795156478
0.0270037651062011
0.0281293541193008
0.0290263686329126
0.0297207720577716
0.0302355773746967
0.030590359121561
0.0308018550276756
0.0308840088546276
0.0308488626033067
0.0307084880769252
0.0304739885032176
0.0301513448357582
0.0297392457723617
0.0292258933186531
0.0285743437707424
0.0276978053152561
0.026443637907505
0.0246038548648357
0.0219529680907726
0.0183014497160911
0.0135503653436899
0.0077326633036136
0.0010304884053766
-0.0062368414364755
-0.0136540830135345
-0.0207700803875923
-0.0271595567464828
-0.0324743874371051
-0.036478467285633
-0.0390621870756149
-0.0402379259467124
-0.0401245057582855
-0.0389239601790905
-0.036890659481287
-0.0342978164553642
-0.0314070805907249
-0.028445366770029
-0.0255899522453546
-0.022958543151617
-0.020604059100151
-0.0185182094573974
-0.0166436992585659
-0.014890338294208
-0.0131520312279462
-0.0113244168460369
-0.009323108009994
-0.0071000298485159
-0.0046514803543686
-0.0020141853019595
0.0007468163967132
0.003551420988515
0.0063142389990389
0.0089522842317819
0.0113931875675916
0.0135805532336235
0.0154741331934928
0.0170490313321352
0.018296854570508
0.0192263219505548
0.0198609810322523
0.0202354919165372
0.0203908719122409
0.0203686896711587
0.0202078260481357
0.0199450012296438
0.0196154434233903
0.0192505028098821
0.0188730247318744
0.0184940192848444
0.0181089248508214
0.0176851376891136
0.0171405784785747
0.01632996276021
0.0150557411834597
0.0131032848730683
0.0102889211848378
0.006509430706501
0.0017803898081183
-0.0037478143349289
-0.0097997160628438
-0.0160088613629341
-0.0219709016382694
-0.0273020826280117
-0.0316874682903289
-0.0349128022789955
-0.0368799939751625
-0.0376044288277626
-0.0371962785720825
-0.0358358323574066
-0.033750295639038
-0.0311901587992906
-0.0284025333821773
-0.0256059896200895
-0.0229722410440444
-0.020615629851818
-0.0185895953327417
-0.0168897472321987
-0.0154624814167618
-0.0142184440046548
-0.0130508206784725
-0.011854788288474
-0.0105416402220726
-0.009046645835042
-0.0073340549133718
-0.0053988029249012
-0.0032637394033372
-0.0009743547998368
0.0014078128151595
0.0038131279870867
0.0061722761020064
0.0084233190864324
0.0105160027742385
0.0124142542481422
0.0140984430909156
0.0155656822025775
0.0168260131031274
0.0178977474570274
0.0188055112957954
0.0195784345269203
0.0202447846531867
0.0208217240869998
0.0212995838373899
0.021621860563755
0.0216697677969932
0.0212663430720567
0.0202046986669302
0.0182913057506084
0.0153960417956113
0.0114985890686512
0.0067138103768229
0.0012865657918155
-0.0044393250718712
-0.0100687677040696
-0.0152104888111352
-0.0195279717445373
-0.0227750446647405
-0.0248125083744525
-0.025610152631998
-0.0252389069646596
-0.0238535478711128
-0.0216677822172641
-0.0189277008175849
-0.0158858634531497
-0.0127756418660283
-0.0097889024764299
-0.0070595853030681
-0.0046551590785384
-0.0025786282494664
-0.0007795831188559
0.0008296556770801
0.0023557199165225
0.0039056958630681
0.0055691003799438
0.0074035446159541
0.0094281435012817
0.0116241034120321
0.0139412032440304
0.0163083039224147
0.0186438597738742
0.0208653286099433
0.0228979140520095
0.0246817469596862
0.0261777564883232
0.0273719169199466
0.0282747037708759
0.0289147291332483
0.0293300636112689
0.0295588038861751
0.029624830931425
0.029516689479351
0.0291667487472295
0.0284427478909492
0.0271622333675622
0.025131419301033
0.0221956614404916
0.0182854067534208
0.0134485932067036
0.0078620044514536
0.0018152194097638
-0.0043290345929563
-0.0101855155080556
-0.0153972208499908
-0.0196790322661399
-0.0228454768657684
-0.0248184092342853
-0.0256205685436725
-0.0253615621477365
-0.0242176875472068
-0.022407067939639
-0.0201639682054519
-0.0177153833210468
-0.0152613492682576
-0.0129595901817083
-0.0109134139493107
-0.0091645205393433
-0.0076963906176388
-0.0064477268606424
-0.0053292401134967
-0.0042402003891766
-0.0030847685411572
-0.0017866741400212
-0.0002984786406159
0.0013956568436697
0.0032811455894261
0.0053171799518167
0.0074437856674194
0.0095886252820491
0.0116728907451033
0.0136194983497262
0.0153625952079892
0.0168537758290767
0.018064172938466
0.0189852602779865
0.0196281988173723
0.0200187526643276
0.0201897732913494
0.0201748423278331
0.0199987441301345
0.0196569450199604
0.0190884452313184
0.0181607566773891
0.0166814606636762
0.0144349681213498
0.0112340943887829
0.006974003277719
0.0016752928495407
-0.0044970717281103
-0.0112468916922807
-0.018187191337347
-0.0248941406607627
-0.0309630017727613
-0.0360583029687404
-0.0399480834603309
-0.0425160750746727
-0.0437566861510276
-0.0437596589326858
-0.0426871515810489
-0.0407475307583808
-0.0381708815693855
-0.035187691450119
-0.0320107713341712
-0.0288206171244382
-0.0257533751428127
-0.0228925552219152
-0.0202681608498096
-0.0178637281060218
-0.0156267918646335
-0.0134799368679523
-0.0113353095948696
-0.0091126365587115
-0.0067539615556597
-0.0042308568954467
-0.0015450483188033
0.0012750078458338
0.004178718663752
0.0070986524224281
0.0099576041102409
0.0126769989728927
0.0151861868798732
0.0174324810504913
0.019387986510992
0.0210484489798545
0.0224269740283489
0.0235487222671508
0.0244468711316585
0.0251573156565427
0.025713488459587
0.0261445138603448
0.026474941521883
0.0267185401171445
0.0268603898584842
0.0268305074423551
0.0264832954853773
0.025600504130125
0.0239243004471063
0.0212116613984107
0.0172946210950613
0.0121320821344852
0.0058409278281033
-0.0013032066635787
-0.0088978130370378
-0.0164699535816907
-0.0235423762351274
-0.0296936482191085
-0.034601304680109
-0.0380653142929077
-0.0400145351886749
-0.0404990725219249
-0.0396713539958
-0.0377589836716651
-0.0350322239100933
-0.0317710638046264
-0.0282370820641517
-0.0246522519737482
-0.0211864523589611
-0.0179525278508663
-0.0150035563856363
-0.0123332850635051
-0.0098860496655106
-0.0075753191486001
-0.0053038736805319
-0.0029821814969182
-0.0005443086847662
0.0020426651462912
0.0047768955118954
0.0076237358152866
0.0105219166725873
0.0133953597396612
0.0161651223897933
0.0187572054564952
0.0211085230112075
0.0231729969382286
0.0249261893332004
0.0263658873736858
0.0275080986320972
0.0283816028386354
0.0290232934057712
0.0294734667986631
0.0297713764011859
0.0299523100256919
0.0300454124808311
0.0300727095454931
0.0300503559410572
0.0299886707216501
0.029888043180108
0.0297302659600973
0.0294609237462282
0.0289637669920921
0.0280466694384813
0.0264587774872779
0.0239357780665159
0.0202586092054843
0.0153140034526586
0.0091426726430654
0.0019586035050451
-0.0058680255897343
-0.0138608142733573
-0.0215077511966228
-0.0283332634717226
-0.0339556261897087
-0.0381231196224689
-0.0407283790409565
-0.0418032966554164
-0.0414989069104194
-0.0400555804371833
-0.0377686209976673
-0.0349521301686763
-0.0319037921726703
-0.0288753975182771
-0.0260528232902288
-0.0235469862818717
-0.0213949084281921
-0.0195676609873771
-0.0179843064397573
-0.0165323615074157
-0.0150905894115567
-0.0135477688163518
-0.0118153980001807
-0.0098361922428011
-0.0075888256542384
-0.0050875437445938
-0.00237837433815
0.0004667025059461
0.0033604074269533
0.0062138484790921
0.0089453123509883
0.0114828841760754
0.0137663995847105
0.0157516747713089
0.0174161344766616
0.0187617726624012
0.0198116973042488
0.0206028148531913
0.0211803168058395
0.0215938165783882
0.0218904837965965
0.0221028588712215
0.0222310535609722
0.022221203893423
0.0219492819160223
0.021223597228527
0.0198119562119245
0.017489306628704
0.0140968607738614
0.0095965173095464
0.0041009890846908
-0.00212785275653
-0.0087083028629422
-0.0151907801628112
-0.0211214274168014
-0.0261003356426954
-0.0298255495727062
-0.0321201905608177
-0.0329386927187442
-0.0323551706969738
-0.0305429548025131
-0.027749229222536
-0.0242656767368316
-0.0203977189958095
-0.0164338797330856
-0.0126169435679912
-0.0091219618916511
-0.0060458220541477
-0.0034079020842909
-0.0011596027761697
0.0007972363382577
0.0025855936110019
0.0043288739398121
0.0061320317909121
0.0080685317516326
0.0101719349622726
0.012434703297913
0.0148165645077824
0.0172573309391737
0.0196877792477607
0.0220378749072551
0.0242430809885263
0.0262494198977947
0.0280188247561454
0.0295332409441471
0.0307935457676649
0.0318139195442199
0.0326153673231601
0.0332173779606819
0.0336211025714874
0.0337826497852802
0.0335901863873004
0.0328630693256855
0.0313783548772335
0.0289183743298053
0.0253285132348537
0.0205692313611507
0.0147466631606221
0.0081145856529474
0.0010475097224116
-0.0060099745169281
-0.0126054547727108
-0.0183377619832754
-0.0229012202471494
-0.0261094141751527
-0.0279008150100708
-0.0283315312117338
-0.0275573022663593
-0.0258065648376941
-0.0233493223786354
-0.020467173308134
-0.01742634922266
-0.0144542250782251
-0.0117218112573027
-0.009333380497992
-0.007323982194066
-0.0056663788855075
-0.0042851259931921
-0.0030736636836081
-0.001912020263262
-0.0006850587669759
0.0006982318591326
0.0022905224468559
0.0041040498763322
0.0061163501814007
0.0082763452082872
0.0105104446411132
0.0127307577058672
0.0148457437753677
0.0167717151343822
0.0184411033987998
0.0198063440620899
0.0208433847874403
0.0215548574924469
0.0219681840389966
0.0221285186707973
0.0220903512090444
0.0219074580818414
0.0216164644807577
0.0212119203060865
0.0206196792423725
0.0196828711777925
0.0181728620082139
0.0158283021301031
0.0124158449470996
0.0077964439988136
0.0019763950258493
-0.0048711206763982
-0.0124188223853707
-0.0202296189963817
-0.0278200451284647
-0.0347251705825328
-0.0405532829463481
-0.0450254753232002
-0.0479953289031982
-0.0494466908276081
-0.0494760237634182
-0.0482682846486568
-0.0460692346096038
-0.0431554764509201
-0.0398071110248565
-0.0362832248210907
-0.0327982865273952
-0.0295048169791698
-0.0264872312545776
-0.0237646736204624
-0.0213006362318992
-0.0190188512206077
-0.0168230719864368
-0.0146160535514354
-0.0123138139024376
-0.0098555814474821
-0.0072110295295715
-0.0043836198747158
-0.0014096028171479
0.0016471485141664
0.0047066453844308
0.0076874746009707
0.0105163715779781
0.013132662512362
0.015492433682084
0.0175704341381788
0.0193574745208024
0.020857660099864
0.0220889188349246
0.023083982989192
0.0238870158791542
0.0245460364967584
0.0251048877835273
0.0255947336554527
0.0260181836783885
0.0263226777315139
0.0263754948973655
0.0259609539061784
0.024810429662466
0.0226593278348445
0.0193137302994728
0.0147065250203013
0.0089299762621521
0.0022392459213733
-0.0049761869013309
-0.0122476555407047
-0.0190934464335441
-0.0250807330012321
-0.0298740528523921
-0.0332657247781753
-0.0351854413747787
-0.0356892049312591
-0.034934114664793
-0.0331490039825439
-0.0306066814810037
-0.0275964736938476
-0.024394653737545
-0.0212362743914127
