bvp
-0.0230373181402683
-0.0318488925695419
-0.039909042418003
-0.046786792576313
-0.0521814301609993
-0.0559383369982242
-0.058040402829647
-0.0585861578583717
-0.0577633455395698
-0.0558215230703353
-0.053043607622385
-0.0497171767055988
-0.0461088567972183
-0.042443785816431
-0.0388904362916946
-0.0355521887540817
-0.0324678122997283
-0.0296199545264244
-0.0269473977386951
-0.0243595335632562
-0.0217546578496694
-0.0190401840955019
-0.0161487348377704
-0.0130461314693093
-0.0097331432625651
-0.0062447786331176
-0.0026455773040652
0.0009822947904467
0.0045530940406024
0.0079872207716107
0.0112174786627292
0.0141937732696533
0.0168860219419002
0.019284214824438
0.0213953517377376
0.0232394412159919
0.0248451381921768
0.0262446571141481
0.0274706706404685
0.0285563990473747
0.0295344702899456
0.030431181192398
0.0312578976154327
0.031997300684452
0.0325793772935867
0.0328560322523117
0.032596468925476
0.0315174348652362
0.0293421112000942
0.0258682072162628
0.0210268888622522
0.0149193191900849
0.0078198555856943
0.0001434027217328
-0.0076122665777802
-0.0149338450282812
-0.0213584601879119
-0.0265290234237909
-0.0302276313304901
-0.0323821529746055
-0.03305309638381
-0.0324097461998462
-0.030699161812663
-0.0282104816287755
-0.0252393297851085
-0.0220583900809288
-0.0188963804394006
-0.0159234814345836
-0.0132420379668474
-0.010883767157793
-0.008815512061119
-0.0069537088274955
-0.0051847044378519
-0.0033878907561302
-0.0014573661610484
0.0006825346499681
0.0030697798356413
0.0057053505443036
0.0085589149966835
0.011575230397284
0.0146813746541738
0.0177947767078876
0.0208308547735214
0.0237110536545515
0.0263690277934074
0.028751753270626
0.0308183133602142
0.0325400084257125
0.0339008644223213
0.0348967164754867
0.0355340167880058
0.0358266346156597
0.0357804335653781
0.035361785441637
0.0344683565199375
0.0329276546835899
0.0305305011570453
0.0270869024097919
0.0224848724901676
0.0167356673628091
0.0099948234856128
0.0025546913966536
-0.0051885666325688
-0.0127863017842173
-0.0197971612215042
-0.0258422698825597
-0.0306441355496644
-0.0340449586510658
-0.0360080115497112
-0.0366060249507427
-0.035997524857521
-0.0343956425786018
-0.0320384427905082
-0.0291666500270366
-0.0260079000145196
-0.0227632615715265
-0.0195940975099802
-0.0166121218353509
-0.0138762211427092
-0.0113961733877658
-0.009141020476818
-0.0070503591559827
-0.0050481357611715
-0.0030582514591515
-0.001019598566927
0.0011035025818273
0.0033184757921844
0.0056086336262524
0.0079406984150409
0.0102712027728557
0.012549347244203
0.0147189907729625
0.0167242866009473
0.0185182411223649
0.0200698152184486
0.0213669668883085
0.0224145110696554
0.0232281740754842
0.0238277968019247
0.0242279469966888
0.0244191996753215
0.0243388246744871
0.0238460376858711
0.0227247904986143
0.0207228604704141
0.0176149420440197
0.0132671082392334
0.0076838145032525
0.0010283133015036
-0.0063870558515191
-0.0141390701755881
-0.0217512976378202
-0.0287591777741909
-0.0347697213292121
-0.0395028106868267
-0.0428070500493049
-0.044653233140707
-0.0451150499284267
-0.044345311820507
-0.0425509884953498
-0.039969366043806
-0.0368464104831218
-0.0334151871502399
-0.0298753250390291
-0.0263792276382446
-0.0230269078165292
-0.0198661144822835
-0.0168968923389911
-0.0140821225941181
-0.0113621512427926
-0.0086691752076148
-0.0059391511604189
-0.0031212880276143
-0.0001852810382843
0.0028741862624883
0.0060367821715772
0.0092597194015979
0.0124838184565305
0.0156418550759553
0.0186668206006288
0.0214969664812088
0.0240782182663679
0.0263665877282619
0.0283314194530248
0.0299584455788135
0.0312503799796104
0.032223641872406
0.0329001396894454
0.033289898186922
0.0333621576428413
0.0330164469778537
0.032075747847557
0.030314041301608
0.0275102388113737
0.0235107503831386
0.0182828810065984
0.01194454357028
0.0047634500078856
-0.0028725496958941
-0.010506521910429
-0.017673835158348
-0.0239619687199592
-0.0290572308003902
-0.0327692218124866
-0.0350312739610672
-0.0358845330774784
-0.0354566611349582
-0.0339408889412879
-0.0315742082893848
-0.0286123845726251
-0.0253032147884368
-0.0218632165342569
-0.0184629801660776
-0.0152219347655773
-0.0122088715434074
-0.0094443149864673
-0.0069050486199557
-0.0045334394089877
-0.0022515784949064
2.182135358452797e-05
0.0023556328378617
0.0047955345362424
0.0073588686063885
0.0100337546318769
0.0127808414399623
0.0155376633629202
0.0182275157421827
0.0207725428044796
0.0231062024831771
0.0251800715923309
0.0269646141678094
0.0284466817975044
0.0296265203505754
0.0305156763643026
0.0311355143785476
0.0315160565078258
0.0316938571631908
0.0317035727202892
0.0315565876662731
0.0312086921185255
0.0305322911590337
0.0293137952685356
0.0272864364087581
0.0241909623146057
0.0198444798588752
0.0141968745738267
0.0073617026209831
-0.0003837961703538
-0.0086303371936082
-0.0168942436575889
-0.0246861688792705
-0.0315730050206184
-0.0372217036783695
-0.0414222665131092
-0.044092621654272
-0.0452690981328487
-0.0450851321220397
-0.0437439233064651
-0.0414927974343299
-0.0385993830859661
-0.035325538367033
-0.0319018512964248
-0.0285080298781394
-0.0252611897885799
-0.0222132708877325
-0.0193568337708711
-0.0166373457759618
-0.0139716425910592
-0.0112699829041957
-0.0084551200270652
-0.0054747043177485
-0.0023095519281923
0.0010210224427282
0.0044605717994272
0.0079249395057559
0.0113160125911235
0.0145349046215415
0.0174919888377189
0.0201144963502883
0.0223517101258039
0.024175900965929
0.0255792401731014
0.0265701431781053
0.0271714404225349
0.0274184588342905
0.0273552779108285
0.0270299147814512
0.0264893285930156
0.0257739964872598
0.0249067973345518
0.0238700732588768
0.0225778184831142
0.0208633951842784
0.0184990651905536
0.0152453277260065
0.0109140574932098
0.0054276925511658
-0.0011402494274079
-0.0085537172853946
-0.0164342522621154
-0.0243080370128154
-0.0316701643168926
-0.0380519591271877
-0.0430769622325897
-0.0464956127107143
-0.0481952615082263
-0.048190988600254
-0.0466080233454704
-0.0436614081263542
-0.0396308712661266
-0.0348298959434032
-0.0295734293758869
-0.0241500586271286
-0.018801374360919
-0.0137085393071174
-0.0089854886755347
-0.0046813674271106
-0.0007930127903819
0.0027185166254639
0.0059132613241672
0.00885995849967
0.0116241313517093
0.0142567846924066
0.0167860593646764
0.0192146319895982
0.0215228572487831
0.0236736834049224
0.0256178211420774
0.0273011475801467
0.0286726877093315
0.0296919904649257
0.0303374771028757
0.0306123197078704
0.0305431671440601
0.0301723852753639
0.0295461826026439
0.0286977067589759
0.027622316032648
0.0262523479759693
0.0244500376284122
0.0220300052314996
0.0188065227121114
0.0146513357758522
0.009544531814754
0.0036041014827787
-0.0029131309129297
-0.009640428237617
-0.0161529202014207
-0.0220280233770608
-0.0269004870206117
-0.0305012501776218
-0.0326752923429012
-0.033382873982191
-0.0326910726726055
-0.0307577289640903
-0.0278086196631193
-0.0241119265556335
-0.0199535693973302
-0.0156128499656915
-0.0113382134586572
-0.0073279645293951
-0.0037197051569819
-0.000585432164371
0.0020679309964179
0.0042881863191723
0.0061590312980115
0.0077779660932719
0.0092357508838176
0.0106025217100977
0.011922437697649
0.0132142547518014
0.0144748101010918
0.0156844481825828
0.0168145783245563
0.0178360976278781
0.0187261365354061
0.0194718912243843
0.0200717132538557
0.0205342676490545
0.0208744350820779
0.0211017355322837
0.0211992710828781
0.0210980605334043
0.0206609480082988
0.0196919366717338
0.0179734788835048
0.0153207797557115
0.0116382585838437
0.0069626737385988
0.0014794925227761
-0.0044931098818778
-0.0105482768267393
-0.0162501242011785
-0.0211938582360744
-0.0250556413084268
-0.0276255998760461
-0.0288194175809621
-0.0286703053861856
-0.0273095518350601
-0.0249439682811498
-0.0218336321413517
-0.0182674136012792
-0.0145330671221017
-0.010884023271501
-0.007509883493185
-0.0045168176293373
-0.0019203929696232
0.0003484680783003
0.0024250552523881
0.0044832713901996
0.0067041814327239
0.0092455092817544
0.0122148115187883
0.0156500395387411
0.0195128470659255
0.0236952826380729
0.0280355662107467
0.032340083271265
0.0364090204238891
0.0400600023567676
0.0431447252631187
0.0455574356019496
0.0472377501428127
0.0481705963611602
0.0483808144927024
0.047915294766426
0.046810396015644
0.0450562760233879
0.0425787791609764
0.0392514504492282
0.0349352099001407
0.0295329391956329
0.0230411384254694
0.0155813694000244
0.0074031520634889
-0.0011398009955883
-0.0096346214413642
-0.0176657475531101
-0.0248673278838396
-0.030959878116846
-0.0357693992555141
-0.039232425391674
-0.0413892827928066
-0.0423659086227417
-0.0423470810055732
-0.0415480732917785
-0.0401915311813354
-0.0384913273155689
-0.0366398692131042
-0.0347950346767902
-0.0330684371292591
-0.0315200239419937
-0.0301605965942144
-0.0289594884961843
-0.0278547927737236
-0.0267657861113548
-0.0256074592471122
-0.0243042595684528
-0.0227996185421943
-0.0210617408156394
-0.019086331129074
-0.0168955363333225
-0.014534180983901
-0.0120632322505116
-0.0095505630597472
-0.0070627033710479
-0.0046591870486736
-0.0023876894265413
-0.0002804044634103
0.0016472209244966
0.0033966396003961
0.0049849022179841
0.0064377430826425
0.0077740531414747
0.0089816320687532
0.009987598285079
0.0106384567916393
0.010709436610341
0.0099462196230888
0.0081254132091999
0.0051155053079128
0.0009216200560331
-0.004297187551856
-0.0102418148890137
-0.016513867303729
-0.0226723421365022
-0.0282937623560428
-0.0330243222415447
-0.0366142094135284
-0.0389314368367195
-0.0399602577090263
-0.0397869497537612
-0.0385737493634223
-0.036529503762722
-0.0338860154151916
-0.0308782011270523
-0.0277229584753513
-0.0245992355048656
-0.0216343291103839
-0.018898382782936
-0.016407161951065
-0.0141311874613165
-0.0120076704770326
-0.0099537624046206
-0.007882178761065
-0.0057175555266439
-0.0034088692627847
-0.0009338431991636
0.0017046445282176
0.0044847256503999
0.0073701390065252
0.0103137865662574
0.0132607258856296
0.016151949763298
0.0189312100410461
0.021551402285695
0.0239756107330322
0.0261751599609851
0.0281294025480747
0.0298275277018547
0.0312693752348423
0.0324635803699493
0.0334238335490226
0.0341645404696464
0.0346975959837436
0.0350292921066284
0.0351495407521724
0.035008430480957
0.0344926640391349
0.033424437046051
0.0315906591713428
0.0287917107343673
0.0248948354274034
0.0198791865259408
0.0138606140390038
0.0070902900770306
-7.170555181801319e-05
-0.0072035184130072
-0.0138803608715534
-0.019730120897293
-0.0244717206805944
-0.0279324278235435
-0.0300504956394433
-0.030869286507368
-0.0305230971425771
-0.0292131435126066
-0.0271769799292087
-0.0246586091816425
-0.0218840315937995
-0.0190428476780653
-0.016275679692626
-0.0136670526117086
-0.0112456856295466
-0.0089938780292868
-0.0068615209311246
-0.0047797327861189
-0.0026742210611701
-0.0004798462614417
0.0018456559628248
0.0043138917535543
0.006905875634402
0.0095779532566666
0.0122700966894626
0.0149121917784214
0.0174281150102615
0.0197422094643116
0.0217896960675716
0.0235263854265213
0.0249319318681955
0.0260053724050521
0.026757538318634
0.0272054299712181
0.0273674260824918
0.0272520668804645
0.0268385298550128
0.0260601714253425
0.0248040575534105
0.0229294840246438
0.0203009713441133
0.0168285109102726
0.0125057213008403
0.0074358042329549
0.0018369901226833
-0.0039775101467967
-0.0096419174224138
-0.0147899221628904
-0.0191031601279974
-0.022347304970026
-0.0243907812982797
-0.0252066776156425
-0.0248628892004489
-0.0235050022602081
-0.021334808319807
-0.0185872316360473
-0.0155069399625062
-0.0123240957036614
-0.0092317648231983
-0.0063698142766952
-0.0038177631795406
-0.0015966994687914
0.0003212923184037
0.001999142114073
0.0035181357525289
0.0049600494094192
0.0063923196867108
0.0078603150323033
0.009384511038661
0.0109584126621484
0.0125492885708808
0.01410448923707
0.0155607284978032
0.0168538503348827
0.0179276745766401
0.018738679587841
0.0192575510591268
0.0194715112447738
0.0193818546831607
0.0189873222261667
0.0182589441537857
0.0171234011650085
0.0154662700369954
0.0131564605981111
0.0100848628208041
0.0062062325887382
0.0015742036048322
-0.0036422689445316
-0.0091694658622145
-0.0146628757938742
-0.0197545010596513
-0.0241026245057582
-0.0274325180798769
-0.0295612458139657
-0.0304082669317722
-0.0299963671714067
-0.0284434128552675
-0.0259438715875148
-0.0227429829537868
-0.019108772277832
-0.0153051344677805
-0.0115688424557447
-0.0080926902592182
-0.0050131096504628
-0.0024015451781451
-0.0002641808241605
0.0014471234753727
0.002817022614181
0.0039480160921812
0.0049436618573963
0.0058931931853294
0.0068581337109208
0.0078657334670424
0.0089117847383022
0.00996910687536
0.0109969917684793
0.0119501519948244
0.0127872247248888
0.0134774725884199
0.0140046263113617
0.0143682034686207
0.0145817641168832
0.0146679077297449
0.0146506577730178
0.014543485827744
0.0143292974680662
0.0139368288218975
0.0132311601191759
0.0120314806699752
0.0101505676284432
0.0074432115070521
0.0038529080338776
-0.0005546796601265
-0.0055825831368565
-0.0109227113425731
-0.0161999054253101
-0.021027198061347
-0.0250601358711719
-0.0280387662351131
-0.0298094674944877
-0.030329406261444
-0.0296604223549366
-0.027955213561654
-0.0254364777356386
-0.0223692283034324
-0.0190289840102195
-0.0156712047755718
-0.0125061459839344
-0.0096821300685405
-0.0072792223654687
-0.0053128954023122
-0.0037447540089488
-0.0024957256391644
-0.0014588953927159
-0.000514549203217
0.0004507005214691
0.0015268819406628
0.0027720457874238
0.0042097382247447
0.0058292686007916
0.0075897211208939
0.0094272149726748
0.0112644769251346
0.0130237825214862
0.014640673995018
0.0160719752311706
0.0172956641763448
0.0183070413768291
0.0191163569688797
0.0197480525821447
0.0202384330332279
0.0206303633749485
0.0209663845598697
0.0212790165096521
0.0215727370232343
0.0217978116124868
0.0218291990458965
0.0214670747518539
0.0204654354602098
0.0185837335884571
0.0156485754996538
0.0116076227277517
0.00655960990116
0.0007528282585553
-0.0054459474049508
-0.0116038182750344
-0.0172856133431196
-0.0221157278865575
-0.0258214920759201
-0.0282524414360523
-0.0293818823993206
-0.029296102002263
-0.0281734094023704
-0.0262569859623909
-0.0238248463720083
-0.0211569629609584
-0.0185020063072443
-0.016051884740591
-0.0139289489015936
-0.0121830143034458
-0.0107951220124959
-0.009688070975244
-0.0087434444576501
-0.0078238965943455
-0.0067968359217047
-0.0055528441444039
-0.0040171509608626
-0.0021564438939094
2.096220850944519e-05
0.0024718530476093
0.005126257892698
0.0078947376459836
0.0106769865378737
0.0133727602660655
0.0158933382481336
0.0181709267199039
0.0201641395688056
0.021857850253582
0.0232577733695507
0.0243829190731048
0.0252593047916889
0.025916812941432
0.0263856910169124
0.0266848616302013
0.0267996788024902
0.0266561619937419
0.0261062830686569
0.0249381233006715
0.0229126550257205
0.0198182426393032
0.0155295878648757
0.0100559974089264
0.0035654543898999
-0.0036227309610694
-0.0110744349658489
-0.0182983111590147
-0.0248137600719928
-0.0302142519503831
-0.0342121683061122
-0.0366610065102577
-0.0375570878386497
-0.0370237715542316
-0.035282801836729
-0.0326196774840354
-0.0293494667857885
-0.025783697143197
-0.0221978966146707
-0.018805906176567
-0.0157464910298585
-0.0130805112421512
-0.0107963364571332
-0.0088241416960954
-0.0070570548996329
-0.0053725680336356
-0.0036509614437818
-0.0017919363453984
0.0002716230228543
0.0025644786655902
0.005066193640232
0.0077172070741653
0.0104320216923952
0.0131136737763881
0.0156655441969633
0.0180005151778459
0.0200492404401302
0.0217670947313308
0.023136917501688
0.0241663120687007
0.0248816069215536
0.0253220573067665
0.0255346819758415
0.025565143674612
0.0254399590194225
0.0251400303095579
0.0245748348534107
0.0235748179256916
0.0219157878309488
0.0193723663687706
0.0157817229628562
0.0110983410850167
0.0054275020956993
-0.0009715835331007
-0.0077150398865342
-0.0143470922484993
-0.020402655005455
-0.0254678912460804
-0.0292295031249523
-0.0315055288374424
-0.0322554670274257
-0.0315727554261684
-0.0296632945537567
-0.0268136952072381
-0.0233551226556301
-0.0196280479431152
-0.0159509479999542
-0.0125926919281482
-0.0097482670098543
-0.0075218249112367
-0.0059211961925029
-0.0048660426400601
-0.0042091733776032
-0.0037643546238541
-0.003334435634315
-0.0027397242374718
-0.0018436000682413
-0.0005668206140398
0.0011116871610283
0.0031625647097826
0.0055176634341478
0.0080819074064493
0.0107447933405637
0.013393435627222
0.0159261226654052
0.0182622112333774
0.0203452333807945
0.0221412759274244
0.0236380621790885
0.0248448401689529
0.0257860943675041
0.0264852866530418
0.0269397720694541
0.0270903669297695
0.0267987996339797
0.0258511193096637
0.0239942427724599
0.020997354760766
0.0167193561792373
0.011162044480443
0.0044943848624825
-0.0029572555795311
-0.010747754946351
-0.0183715168386697
-0.025330152362585
-0.0311954300850629
-0.0356542617082595
-0.0385326407849788
-0.0398013107478618
-0.0395641401410102
-0.0380321741104126
-0.0354909896850585
-0.0322666615247726
-0.0286908708512783
-0.0250662025064229
-0.0216358248144388
-0.0185625497251749
-0.0159207507967948
-0.0137014286592602
-0.0118268653750419
-0.0101704653352499
-0.0085804751142859
-0.0069064274430274
-0.0050234152004122
-0.002848794683814
-0.0003494881093502
0.002459218725562
0.005521070677787
0.0087501853704452
0.0120439752936363
0.0152947949245572
0.0183990076184272
0.021263126283884
0.0238077063113451
0.0259720757603645
0.0277191940695047
0.029032003134489
0.0298932492733001
0.0302524976432323
0.0299983844161033
0.0289571173489093
0.0269247516989707
0.0237223133444786
0.0192555412650108
0.0135634373873472
0.0068435678258538
-0.0005529667250812
-0.0081581175327301
-0.0154489781707525
-0.0219207070767879
-0.0271523911505937
-0.0308523662388324
-0.0328780487179756
-0.0332337170839309
-0.0320541225373744
-0.0295805260539054
-0.026131298393011
-0.0220665298402309
-0.0177482403814792
-0.0135004734620451
-0.0095755401998758
-0.006133509799838
-0.0032381005585193
-0.0008659120649099
0.0010761274024844
0.0027285674586892
0.0042548193596303
0.0058155111037194
0.0075443270616233
0.0095308348536491
0.0118135539814829
0.0143803879618644
0.0171734355390071
0.0200996547937393
0.0230466313660144
0.0258971229195594
0.0285391248762607
0.0308749787509441
0.0328309461474418
0.0343617871403694
0.0354427881538867
0.0360444113612175
0.0360962115228176
0.0354615822434425
0.0339430831372737
0.0313215069472789
0.0274166613817214
0.0221507418900728
0.0155966570600867
0.0079965470358729
-0.0002559074200689
-0.0086611378937959
-0.0166753288358449
-0.0237796995788812
-0.0295453201979398
-0.033679325133562
-0.0360460244119167
-0.0366645045578479
-0.0356891006231308
-0.0333792865276336
-0.0300624202936887
-0.0260942559689283
-0.0218236036598682
-0.0175628121942281
-0.0135622816160321
-0.00999123044312
-0.0069297878071665
-0.00437314203009
-0.0022459176834672
-0.000425858219387
0.0012277015484869
0.0028479157481342
0.0045417454093694
0.0063793370500206
0.0083892131224274
0.0105574894696474
0.012831968255341
0.0151316635310649
0.017360171303153
0.0194195695221424
0.0212219506502151
0.0226978044956922
0.0238015111535787
0.0245141815394163
0.0248422753065824
0.0248079784214496
0.0244271978735923
0.0236762966960668
0.0224612429738044
0.020611573010683
0.0179100949317216
0.0141489086672663
0.0091944364830851
0.0030442466959357
-0.004140431061387
-0.012036208063364
-0.020192677155137
-0.0280907750129699
-0.0352108888328075
-0.0410999171435833
-0.0454243533313274
-0.0479980893433094
-0.0487858243286609
-0.047890156507492
-0.0455281659960746
-0.0420009903609752
-0.0376586727797985
-0.0328628532588481
-0.0279515497386455
-0.0232085958123207
-0.0188404973596334
-0.0149662978947162
-0.0116210207343101
-0.0087673747912049
-0.0063125700689852
-0.0041295727714896
-0.0020809508860111
-4.088971763849258e-05
0.0020893234759569
0.0043720351532101
0.0068272179923951
0.0094318380579352
0.0121273715049028
0.0148317571729421
0.0174511689692735
0.0198912508785724
0.0220682974904775
0.0239177886396646
0.0253977123647928
0.0264889616519212
0.0271962918341159
0.0275490954518318
0.0275993384420871
0.0274159200489521
0.0270762983709573
0.0266566611826419
0.026222676038742
0.0258205961436033
0.0254606194794178
0.0250870920717716
0.0245500169694423
0.0236023887991905
0.0219344198703765
0.0192377008497715
0.0152823301032185
0.0099865645170211
0.0034593287855386
-0.0039973631501197
-0.0119270421564579
-0.0197883583605289
-0.0270370505750179
-0.0332001447677612
-0.037929281592369
-0.0410287305712699
-0.0424604788422584
-0.0423321798443794
-0.0408704094588756
-0.0383816733956337
-0.0352106615900993
-0.0317032374441623
-0.0281731151044368
-0.0248732212930917
-0.021976713091135
-0.0195685513317585
-0.0176462270319461
-0.0161300916224718
-0.0148835033178329
-0.0137408208101987
-0.0125376218929886
-0.0111356433480978
-0.0094375927001237
-0.0073917964473366
-0.0049913064576685
-0.0022701639682054
0.0007052777800709
0.003849517321214
0.0070712398737668
0.0102825593203306
0.0134026324376463
0.0163592360913753
0.0190932527184486
0.0215646214783191
0.0237535089254379
0.025655198842287
0.0272731259465217
0.0286144558340311
0.0296890251338481
0.0305093564093112
0.0310902316123247
0.0314472541213035
0.0315925255417823
0.0315230414271354
0.0311986375600099
0.0305167958140373
0.0293014831840991
0.0273192226886749
0.0243226643651723
0.0201118700206279
0.014598898589611
0.0078574120998382
0.0001401444897055
-0.0081427861005067
-0.0164790824055671
-0.0243272483348846
-0.0311877280473709
-0.0366593934595584
-0.0404777638614177
-0.0425324514508247
-0.0428635887801647
-0.0416422039270401
-0.0391391478478908
-0.035687930881977
-0.03164629265666
-0.0273580085486173
-0.0231194403022527
-0.0191570371389389
-0.0156165631487965
-0.0125603647902607
-0.0099718729034066
-0.0077693192288279
-0.0058285202831029
-0.0040108221583068
-0.0021886450704187
-0.0002632091636769
0.0018241086509078
0.0040857875719666
0.0064914776012301
0.0089804222807288
0.0114749670028686
0.0138903399929404
0.0161438751965761
0.0181658845394849
0.0199082251638174
0.0213457029312849
0.0224715862423181
0.023292701691389
0.0238273087888956
0.0241046845912933
0.0241630021482706
0.0240453630685806
0.0237958021461963
0.0234541743993759
0.0230516418814659
0.0226101800799369
0.0221421625465154
0.021640907973051
0.0210574325174093
0.0202735215425491
0.0190935730934143
0.0172698199748992
0.0145559823140501
0.0107722831889987
0.0058620451018214
-7.576495409011841e-05
-0.0067843352444469
-0.013877460733056
-0.020894855260849
-0.0273698680102825
-0.0328900143504142
-0.0371413007378578
-0.0399366617202758
-0.0412272028625011
-0.0410943180322647
-0.039726048707962
-0.0373853631317615
-0.0343769565224647
-0.0310150440782308
-0.0275925174355506
-0.0243529919534921
-0.0214691460132598
-0.019032334908843
-0.0170547813177108
-0.015480263158679
-0.0142012126743793
-0.013082112185657
-0.0119846072047948
-0.0107872746884822
-0.009396537207067
-0.0077511551789939
-0.0058246660046279
-0.0036263978108763
-0.0011994140222668
0.0013856422156095
0.0040412684902548
0.0066775460727512
0.0092159043997526
0.0115965362638235
0.0137796262279152
0.0157439354807138
0.0174838509410619
0.0190067179501056
0.0203309096395969
0.0214814022183418
0.0224821586161851
0.0233454592525959
0.0240549333393573
0.024543572217226
0.0246781520545482
0.0242645796388387
0.0230810306966304
0.0209321994334459
0.0177079513669013
0.0134269222617149
0.008251242339611
0.0024709808640182
-0.0035332879051566
-0.0093401409685611
-0.0145415877923369
-0.0187932439148426
-0.0218510255217552
-0.0235893782228231
-0.0240030139684677
-0.0231979638338089
-0.0213736798614263
-0.0187945012003183
-0.0157553646713495
-0.0125496163964271
-0.0094404397532343
-0.006635901518166
-0.0042712911963462
-0.0024019442498683
-0.0010061943903565
3.7048012018203735e-06
0.000763357616961
0.0014316216111183
0.0021644970402121
0.0030924919992685
0.0043044756166636
0.0058404034934937
0.0076921172440052
0.0098092183470726
0.0121093466877937
0.0144930807873606
0.0168597437441349
0.0191189646720886
0.0211976449936628
0.0230439491569995
0.024628335610032
0.0259427577257156
0.0269984565675258
0.0278194565325975
0.0284275524318218
0.0288168136030435
0.0289259534329175
0.0286265090107917
0.027737557888031
0.0260622352361679
0.0234364178031682
0.0197803303599357
0.0151382749900221
0.0096902810037136
0.0037330039776861
-0.0023597329854965
-0.0081877056509256
-0.0133800841867923
-0.017643678933382
-0.0207909345626831
-0.0227463785558938
-0.0235384050756692
-0.0232831798493862
-0.0221641231328248
-0.0204079747200012
-0.0182590838521718
-0.0159545503556728
-0.013702142983675
-0.0116623910143971
-0.0099367192015051
-0.0085634207352995
-0.007521835155785
-0.0067439372651278
-0.0061302897520363
-0.0055659157223999
-0.0049349209293723
-0.004135072696954
-0.0030914200469851
-0.0017660874873399
-0.0001612328051123
0.0016867746599018
0.0037187044508755
0.0058624297380447
0.0080395983532071
0.01017208956182
0.0121894543990492
0.0140351774170994
0.0156697314232587
0.01707074791193
0.0182318091392517
0.0191613044589757
0.019880985841155
0.0204218998551368
0.0208159778267145
0.0210797041654586
0.0211869403719902
0.0210404954850673
0.0204622354358434
0.0192150622606277
0.0170530937612056
0.0137843964621424
0.0093283373862504
0.0037517892196774
-0.0027241632342338
-0.0097465086728334
-0.0168769378215074
-0.0236542355269193
-0.0296593382954597
-0.034567829221487
-0.0381783246994018
-0.0404157675802707
-0.0413180664181709
-0.0410154536366462
-0.0397066995501518
-0.037631943821907
-0.0350431576371192
-0.0321776084601879
-0.0292390100657939
-0.0263856723904609
-0.0237231291830539
-0.021301107481122
-0.0191164389252662
-0.0171232558786869
-0.0152485491707921
-0.0134079409763216
-0.0115187615156173
-0.0095111085101962
-0.0073378877714276
-0.0049830833449959
-0.0024651647545397
0.0001678850967437
0.002850058954209
0.005508164409548
0.0080689219757914
0.0104644540697336
0.0126374643296003
0.0145464297384023
0.0161696188151836
0.0175054315477609
0.0185694359242916
0.0193910766392946
0.0200113765895366
0.0204798355698585
0.0208485405892133
0.0211630444973707
0.0214478895068168
0.021683657541871
0.0217815563082695
0.021572571247816
0.0208230279386043
0.01927593909204
0.0167109556496143
0.0130080692470073
0.0081943375989794
0.0024583092890679
-0.00387077126652
-0.0103700533509254
-0.016582865267992
-0.0220791604369878
-0.0265066493302583
-0.0296254865825176
-0.0313238874077796
-0.0316163673996925
-0.030628278851509
-0.0285710394382476
-0.0257131066173315
-0.0223493091762065
-0.0187703259289264
-0.0152358552441
-0.0119527010247111
-0.0090582203119993
-0.0066126980818808
-0.0046031614765524
-0.0029575368389487
-0.0015659239143133
-0.0003034053370356
0.0009506978094577
0.0022979527711868
0.0038100341334939
0.0055233109742403
0.0074383253231644
0.0095224920660257
0.011716385371983
0.0139441546052694
0.0161263421177864
0.0181904137134552
0.0200759470462799
0.021737590432167
0.0231483001261949
0.0243004597723484
0.0252036713063716
0.0258805602788925
0.0263616889715194
0.026680938899517
0.0268719717860221
0.0269635878503322
0.0269683338701725
0.0268590282648801
0.0265401937067508
0.0258354507386684
0.024506576359272
0.0223021153360605
0.0190217662602663
0.0145773561671376
0.0090312529355287
0.002601979766041
-0.0043619507923722
-0.011430712416768
-0.0181514043360948
-0.0241051502525806
-0.0289552491158247
-0.0324790813028812
-0.0345798581838607
-0.0352817922830581
-0.0347147919237613
-0.0330906622111797
-0.0306729618459939
-0.0277451258152723
-0.0245799757540226
-0.0214139074087142
-0.0184292532503604
-0.0157431792467832
-0.0134021732956171
-0.0113865323364734
-0.009626068174839
-0.0080210119485855
-0.0064617884345352
-0.0048456490039825
-0.0030901152640581
-0.0011427998542785
0.0010128524154424
0.0033566653728485
0.0058368816971778
0.0083812549710273
0.0109104393050074
0.0133484797552227
0.0156282521784305
0.0176942367106676
0.0195058640092611
0.0210405029356479
0.0222937893122434
0.0232788063585758
0.0240247081965208
0.0245718918740749
0.0249644704163074
0.0252449139952659
0.0254509299993515
0.0256079453974962
0.0257112234830856
0.0257011204957962
0.025445083156228
0.0247415527701377
0.0233530271798372
0.0210622213780879
0.0177338235080242
0.013360820710659
0.0080806352198123
0.0021588364616036
-0.0040511819534003
-0.0101602813228964
-0.0157967209815979
-0.0206519141793251
-0.0245114602148532
-0.0272673889994621
-0.0289145894348621
-0.0295388363301754
-0.0293002873659133
-0.0284103415906429
-0.0271012149751186
-0.0255952961742877
-0.0240824371576309
-0.0227052327245473
-0.0215490106493234
-0.020637547597289
-0.0199367403984069
-0.0193657837808132
-0.018814044073224
-0.018162315711379
-0.0173060446977615
-0.0161742307245731
-0.0147379916161298
-0.0130090937018394
-0.0110322199761867
-0.0088741593062877
-0.0066122380085289
-0.004323236644268
-0.0020740656182169
8.426932618021965e-05
0.0021186037920415
0.0040123127400875
0.0057631283998489
0.0073807453736662
0.0088831726461648
0.0102908220142126
0.0116162337362766
0.0128457825630903
0.0139128537848591
0.0146753340959548
0.0149187315255403
0.0143918842077255
0.0128637142479419
0.0101851588115096
0.0063398443162441
0.0014701569452881
-0.0041268779896199
-0.0100337918847799
-0.0157706830650568
-0.0208625234663486
-0.0248981062322855
-0.0275719538331031
-0.0287091061472892
-0.0282717179507017
-0.0263489093631505
-0.0231359377503395
-0.0189067795872688
-0.0139815304428339
-0.0086913835257291
-0.0033456031233072
0.0017941072583198
0.0065280161798
0.0107242576777935
0.0143214678391814
0.017326820641756
0.019804909825325
0.0218580830842256
0.0236039534211158
0.0251554641872644
0.026605699211359
0.0280184373259544
0.0294247083365917
0.0308236181735992
0.0321861281991004
0.0334629341959953
0.0345973558723926
0.0355390831828117
0.0362527817487716
0.0367212854325771
0.0369465574622154
0.0369487330317497
0.0367621630430221
0.0364279299974441
0.0359810031950473
0.0354275405406951
0.0347136966884136
0.0337029099464416
0.0321811437606811
0.0298942178487777
0.0266069546341896
0.0221668742597103
0.0165552943944931
0.0099133681505918
0.002534738741815
-0.0051752966828644
-0.012762302532792
-0.0197875387966632
-0.0258791297674179
-0.0307652652263641
-0.0342918783426284
-0.0364259742200374
-0.037245288491249
-0.0369177311658859
-0.0356742180883884
-0.0337771549820899
-0.0314888581633567
-0.0290452912449836
-0.0266378596425056
-0.0244025029242038
-0.0224133022129535
-0.0206812992691993
-0.0191615335643291
-0.0177673287689685
-0.016390137374401
-0.0149217583239078
-0.0132717005908489
-0.0113777080550789
-0.0092110950499773
-0.0067759626545012
-0.0041053006425499
-0.0012586680240929
0.0016824323683977
0.0046254815533757
0.0074785649776458
0.0101584773510694
0.0125965774059295
0.0147419972345232
0.0165627375245094
0.0180463716387748
0.0191994495689868
0.0200430899858474
0.0206018015742301
0.0208834279328584
0.0208510085940361
0.0203949064016342
0.0193248149007558
0.017397716641426
0.0143767036497592
0.0100998990237712
0.0045383255928754
-0.0021722763776779
-0.0097327316179871
-0.017712615430355
-0.0256062895059585
-0.0329028032720088
-0.0391532778739929
-0.0440192185342311
-0.0472974777221679
-0.0489266961812973
-0.0489773042500019
-0.0476261638104915
-0.0451227165758609
-0.0417559966444969
-0.0378262959420681
-0.0336191356182098
-0.029381014406681
-0.0253010001033544
-0.0215011779218912
-0.0180367473512887
-0.0149044934660196
-0.0120562659576535
-0.009414717555046
-0.0068902606144547
-0.0043979147449135
-0.0018709307769313
0.000730297062546
0.0034130236599594
0.0061521297320723
0.0088970782235264
0.0115832556039094
0.014142358675599
0.0165087655186653
0.0186254307627677
0.0204525720328092
0.0219738204032182
0.0231944918632507
0.0241352133452892
0.0248274561017751
0.0253124926239252
0.0256385952234268
0.0258528888225555
0.0259890425950288
0.026047371327877
0.0259651634842157
0.0255925506353378
0.0246977321803569
0.023008806630969
0.0202785339206457
0.0163519196212291
0.0112186586484313
0.0050382204353809
-0.0018678734777495
-0.0090567087754607
-0.016028132289648
-0.022294707596302
-0.0274443682283163
-0.0311868283897638
-0.0333743430674076
-0.0339975617825984
-0.033167153596878
-0.0310888458043336
-0.0280343387275934
-0.0243099592626094
-0.0202248841524124
-0.0160605385899543
-0.0120446402579545
-0.0083346376195549
-0.0050130914896726
-0.002093025483191
0.0004712333902716
0.0027692196890711
0.0049139675684273
0.0070191752165555
0.0091814305633306
0.0114690456539392
0.0139140291139483
0.0165077857673168
0.019203420728445
0.0219244565814733
0.0245773121714591
0.027064386755228
0.0292951706796884
0.0311942622065544
0.0327066183090209
0.0338011234998703
0.0344730764627456
0.0347435846924781
0.0346528068184852
0.0342493280768394
0.03358144313097
0.0326889306306839
0.0315860956907272
0.0302351415157318
0.0285247731953859
0.0262720715254545
0.0232548229396343
0.0192674119025468
0.0141838323324918
0.0080101527273654
0.0009117377921938
-0.0067941900342702
-0.0146786719560623
-0.0222605317831039
-0.0290717929601669
-0.0347187295556068
-0.0389251261949539
-0.0415488854050636
-0.042577601969242
-0.0421133562922477
-0.0403520129621028
-0.0375586599111557
-0.0340377502143383
-0.0300983320921659
-0.0260222759097814
-0.0220433957874774
-0.0183360818773508
-0.0150091098621487
-0.0121047291904687
-0.0096049271523952
-0.0074451197870075
-0.0055330088362097
-0.0037678079679608
-0.0020561972633004
-0.0003249158035032
0.0014704511268064
0.0033428617753088
0.0052771316841244
0.0072361351922154
0.0091681666672229
0.0110144447535276
0.0127160716801881
0.0142224980518221
0.0155007792636752
0.0165399797260761
0.0173493139445781
0.0179532319307327
0.0183860622346401
0.0186877064406871
0.0188993513584136
0.0190568380057811
0.0191795192658901
0.0192515458911657
0.0191969443112611
0.0188614185899496
0.0180178992450237
0.0164014603942632
0.0137667879462242
0.0099541097879409
0.0049439379945397
-0.0011168140918016
-0.0079237427562475
-0.015055201947689
-0.0220339931547641
-0.0283956751227378
-0.0337476693093776
-0.0378090441226959
-0.0404280796647071
-0.0415805839002132
-0.0413555577397346
-0.0399335883557796
-0.0375607423484325
-0.0345194041728973
-0.0310971233993768
-0.0275561176240444
-0.0241084545850753
-0.020901396870613
-0.0180136021226644
-0.0154600720852613
-0.0132033377885818
-0.0111672403290867
-0.0092503353953361
-0.0073418645188212
-0.0053423009812831
-0.0031812256202101
-0.0008251052349805
0.0017233407124876
0.004430410452187
0.0072389505803585
0.0100753400474786
0.0128575349226593
0.0155069045722484
0.0179596282541751
0.020172081887722
0.0221209209412336
0.0238004848361015
0.0252170320600271
0.0263777766376733
0.0272718742489814
0.027844026684761
0.0279730632901191
0.0274741649627685
0.0261334460228681
0.0237665623426437
0.0202818121761083
0.0157254599034786
0.0102942120283842
0.0043142833746969
-0.0018020132556557
-0.0076104286126792
-0.0126921031624078
-0.0167052503675222
-0.0194193162024021
-0.0207275040447711
-0.0206445418298244
-0.0192945580929517
-0.0168891884386539
-0.0136985993012785
-0.0100199664011597
-0.0061470298096537
-0.00234289560467
0.001183089800179
0.0042911176569759
0.0069149620831012
0.0090563660487532
0.0107747092843055
0.0121728219091892
0.0133785381913185
0.0145235136151313
0.0157223530113697
0.0170568972826004
0.0185695737600326
0.0202639997005462
0.0221082549542188
0.0240404568612575
0.0259788893163204
0.0278356596827507
0.0295298360288143
0.0309956111013889
0.0321849025785923
0.0330677218735218
0.033627912402153
0.0338453128933906
0.0336645320057868
0.0329692922532558
0.0315835587680339
0.0293029882013797
0.0259461365640163
0.021410871297121
0.0157205779105424
0.0090475613251328
0.0017054509371519
-0.005889453459531
-0.0132766952738165
-0.0200137663632631
-0.0257284212857484
-0.0301546454429626
-0.0331513956189155
-0.034704253077507
-0.0349122434854507
-0.033964816480875
-0.0321130082011222
-0.0296390987932682
-0.0268279425799846
-0.0239395014941692
-0.0211829878389835
-0.0186984855681657
-0.0165524333715438
-0.0147454421967267
-0.013226949609816
-0.0119130974635481
-0.0107040833681821
-0.0094990581274032
-0.0082093430683016
-0.0067695523612201
-0.0051459083333611
-0.0033414815552532
-0.0013948450796306
0.0006307521834969
0.0026624640449881
0.0046298382803797
0.0064714299514889
0.0081378435716032
0.0095951445400714
0.010829065926373
0.0118456427007913
0.0126658463850617
0.0133162243291735
0.013816081918776
0.0141564356163144
0.014270607382059
0.014012292958796
0.0131626380607485
0.0114709455519914
0.0087155438959598
0.004767769947648
-0.0003578383475542
-0.0064823543652892
-0.0132764466106891
-0.0203047003597021
-0.0270877219736576
-0.0331671945750713
-0.0381620079278945
-0.0418067499995231
-0.0439675226807594
-0.0446372777223587
-0.0439195334911346
-0.0420067384839057
-0.0391524992883205
-0.0356396473944187
-0.0317497588694095
-0.0277371108531951
-0.0238093566149473
-0.0201149582862854
-0.0167354196310043
-0.0136857284232974
-0.0109270345419645
-0.0083857271820306
-0.0059703742153942
-0.0035861982032656
-0.0011505209840834
0.001392830396071
0.0040661008097231
0.0068586361594498
0.0097316578030586
0.0126236611977219
0.015458557754755
0.0181574299931526
0.0206504464149475
0.022883828729391
