bvp
-0.0037902947515249
-0.0005997442640364
0.0025858480948954
0.0057076909579336
0.008707414381206
0.0115323076024651
0.0141403889283537
0.0165040623396635
0.0186108630150556
0.0204614978283643
0.0220663025975227
0.0234420839697122
0.0246106553822755
0.0255963243544101
0.0264216307550668
0.0271048359572887
0.0276593808084726
0.028093684464693
0.0284099262207746
0.0285979863256216
0.0286206007003784
0.0283916741609573
0.0277596525847911
0.026511849835515
0.0244076289236545
0.0212338473647832
0.0168642215430736
0.0113035337999463
0.0047067459672689
-0.0026300773024559
-0.0103065865114331
-0.0178749077022075
-0.0249022096395492
-0.031025368720293
-0.0359856858849525
-0.0396381355822086
-0.0419437587261199
-0.0429564639925956
-0.0428056754171848
-0.0416741892695426
-0.039774339646101
-0.0373261086642742
-0.0345376282930374
-0.0315879173576831
-0.0286146532744169
-0.025708632543683
-0.0229147281497716
-0.0202377513051033
-0.0176506321877241
-0.0151050668209791
-0.0125450892373919
-0.0099200699478387
-0.0071927453391253
-0.0043421131558716
-0.0013642609119415
0.0017268001101911
0.0048994068056344
0.0081079956144094
0.0112987272441387
0.0144140236079692
0.0173971466720104
0.020196970552206
0.0227700024843215
0.025080356746912
0.0271006617695093
0.028813237324357
0.0302099902182817
0.031291589140892
0.0320661887526512
0.0325478427112102
0.0327553860843181
0.0327088274061679
0.0324151441454887
0.0318432301282882
0.030902475118637
0.029441574588418
0.0272734221071004
0.0242190472781658
0.020155981183052
0.0150586580857634
0.0090235378593206
0.0022726636379957
-0.0048673655837774
-0.0120067112147808
-0.0187444258481264
-0.0247200857847929
-0.0296538807451725
-0.0333678685128688
-0.0357880666851997
-0.0369333252310752
-0.036898486316204
-0.035834927111864
-0.0339274480938911
-0.0313695594668388
-0.0283422358334064
-0.0249976385384798
-0.0214464720338583
-0.0177520290017128
-0.0139359198510646
-0.0099948793649673
-0.0059226723387837
-0.0017294352874159
0.0025485586374998
0.006850317120552
0.0110969766974449
0.0151980929076671
0.0190576612949371
0.0225826390087604
0.0256932768970727
0.0283317659050226
0.0304675363004207
0.0320983156561851
0.0332460179924964
0.0339506715536117
0.0342666804790496
0.0342598818242549
0.0340005606412887
0.0335522070527076
0.0329596325755119
0.0322366319596767
0.0313518978655338
0.030219567939639
0.0287054609507322
0.0266536846756935
0.023927342146635
0.0204498786479234
0.0162346325814723
0.0113955317065119
0.0061365943402051
0.0007237466052174
-0.0045531163923442
-0.009419996291399
-0.0136534487828612
-0.0171036496758461
-0.0197031423449516
-0.0214626919478178
-0.0224575642496347
-0.0228092111647129
-0.0226660817861557
-0.0221840217709541
-0.0215074382722377
-0.0207547694444656
-0.0200112145394086
-0.0193264540284872
-0.0187138076871633
-0.0181526001542806
-0.0175960715860128
-0.016983350738883
-0.0162511374801397
-0.0153421061113476
-0.0142124881967902
-0.0128398705273866
-0.011227112263441
-0.0094005558639764
-0.007404685486108
-0.0052960044704377
-0.0031374949030578
-0.0009935349225997
0.0010748272761702
0.0030152713879942
0.004789694212377
0.0063759936019778
0.007765956223011
0.0089616738259792
0.0099681196734309
0.0107771251350641
0.0113440975546836
0.0115702282637357
0.0113060399889945
0.0103793367743492
0.0086370538920164
0.0059888530522584
0.0024416446685791
-0.0018858462572097
-0.0067727006971836
-0.0119250072166323
-0.0170170962810516
-0.0217355489730834
-0.0258158463984727
-0.0290648750960826
-0.0313678868114948
-0.0326844230294227
-0.0330391749739646
-0.0325105302035808
-0.031217586249113
-0.0293063893914222
-0.026937298476696
-0.0242731757462024
-0.0214658994227647
-0.018643295392394
-0.0159000325947999
-0.0132928993552923
-0.010841223411262
-0.0085324104875326
-0.0063308989629149
-0.0041891396977007
-0.0020590675994753
9.833602234721184e-05
0.0023074850905686
0.004575808532536
0.0068937945179641
0.00923777744174
0.0115732960402965
0.0138587988913059
0.0160507448017597
0.0181071888655424
0.0199899524450302
0.0216684937477111
0.0231236182153224
0.0243471097201108
0.0253354422748088
0.0260776169598102
0.0265384092926979
0.0266422070562839
0.026268720626831
0.0252689011394977
0.0234992578625679
0.0208648890256881
0.0173558760434389
0.0130644720047712
0.0081821046769618
0.0029792911373078
-0.0022300612181425
-0.0071321977302432
-0.0114519344642758
-0.0149787422269582
-0.0175799429416656
-0.0192023869603872
-0.0198651943355798
-0.0196468047797679
-0.0186695493757724
-0.0170846860855817
-0.0150582231581211
-0.0127570312470197
-0.0103359930217266
-0.0079260170459747
-0.0056239664554595
-0.0034877685829997
-0.0015373537316918
0.0002396181225776
0.0018780855461955
0.0034245094284415
0.004927069414407
0.0064277169294655
0.0079556880518794
0.0095230657607316
0.0111238975077867
0.0127368979156017
0.0143298469483852
0.0158641040325164
0.0172987971454858
0.0185952484607696
0.0197220873087644
0.0206592231988906
0.0213989540934562
0.0219448506832122
0.0223090108484029
0.0225079283118248
0.0225568525493145
0.0224591270089149
0.0221882238984107
0.0216697119176387
0.0207774173468351
0.0193517450243234
0.0172348450869321
0.0143119376152753
0.0105482134968042
0.0060119796544313
0.0008794125169515
-0.0045822439715266
-0.0100533198565244
-0.01521104760468
-0.019772769883275
-0.0235235504806041
-0.0263277478516101
-0.0281286444514989
-0.0289410706609487
-0.0288404300808906
-0.0279502142220735
-0.0264283344149589
-0.0244513824582099
-0.0221973434090614
-0.0198284890502691
-0.0174766480922698
-0.0152338370680809
-0.0131506351754069
-0.0112411454319953
-0.009490268304944
-0.0078606642782688
-0.0063009466975927
-0.0047571463510394
-0.0031842743046581
-0.0015527531504631
0.0001497054472565
0.0019178504589945
0.0037306135054677
0.0055548893287777
0.0073499549180269
0.0090719927102327
0.0106790084391832
0.0121359303593635
0.0134174488484859
0.0145076643675565
0.0154001582413911
0.0160994138568639
0.0166206900030374
0.0169869232922792
0.0172205977141857
0.017328817397356
0.017284270375967
0.017009062692523
0.0163711998611688
0.0152012696489691
0.013328249566257
0.0106248017400503
0.0070492192171514
0.0026720555033534
-0.0023213478270918
-0.0076533118262887
-0.0129927061498165
-0.0179995838552713
-0.0223680976778268
-0.0258604977279901
-0.0283261276781559
-0.0297054555267095
-0.0300238076597452
-0.0293785873800516
-0.027921749278903
-0.0258403643965721
-0.0233371965587139
-0.020610261708498
-0.0178328957408666
-0.0151392240077257
-0.0126184541732072
-0.0103161446750164
-0.0082375649362802
-0.0063534271903336
-0.0046105156652629
-0.0029449937865138
-0.0012947497889399
0.0003910819068551
0.0021456135436892
0.0039802826941013
0.005884101614356
0.007826741784811
0.0097640417516231
0.0116450283676385
0.0134208891540765
0.0150528717786073
0.0165148843079805
0.0177917666733264
0.0188773013651371
0.019772857427597
0.0204820670187473
0.0209963656961917
0.0212741717696189
0.0212253555655479
0.020713172852993
0.019578481093049
0.0176802165806293
0.0149383414536714
0.0113656697794795
0.0070817689411342
0.0023076874203979
-0.0026585704181343
-0.0074822315946221
-0.0118383402004837
-0.0154535621404647
-0.0181336980313062
-0.0197744090110063
-0.020360954105854
-0.0199616402387619
-0.0187141969799995
-0.0168051943182945
-0.0144456773996353
-0.0118461120873689
-0.0091948602348566
-0.0066434778273105
-0.0042976280674338
-0.0022119982168078
-0.0003905678167939
0.0012054834514856
0.0026429835706949
0.0039998972788453
0.0053504109382629
0.0067540584132075
0.0082495175302028
0.0098510021343827
0.011547208763659
0.0133054666221141
0.0150794284418225
0.0168164409697055
0.0184639655053615
0.0199751183390617
0.0213128961622715
0.0224537104368209
0.0233889855444431
0.0241205263882875
0.0246485546231269
0.0249557383358478
0.0249911025166511
0.0246588997542858
0.0238200258463621
0.022312194108963
0.0199875738471746
0.016756746917963
0.012624149210751
0.0077047026716172
0.0022182874381542
-0.0035363687202334
-0.0092218220233917
-0.0145054450258612
-0.0190975740551948
-0.0227799229323864
-0.0254215598106384
-0.0269813351333141
-0.027500120922923
-0.0270878970623016
-0.0259074177592992
-0.02415382117033
-0.0220307242125272
-0.0197267234325408
-0.0173973310738801
-0.015154886059463
-0.0130662722513079
-0.0111569771543145
-0.0094188703224062
-0.0078179342672228
-0.0063008740544319
-0.0048046801239252
-0.0032707001082599
-0.0016577024944126
5.137774860486388e-05
0.0018499825382605
0.0037129614502191
0.0056016989983618
0.0074683213606476
0.0092609617859125
0.0109307542443275
0.0124386325478553
0.0137590700760483
0.0148796029388904
0.0157984588295221
0.0165236834436655
0.0170732196420431
0.0174718294292688
0.0177421998232603
0.0178895331919193
0.0178809724748134
0.0176282040774822
0.0169851519167423
0.0157669074833393
0.0137875927612185
0.0109074786305427
0.0070757027715444
0.0023572919890284
-0.0030623963102698
-0.0088983280584216
-0.0148050058633089
-0.0204208493232727
-0.025410147383809
-0.029500326141715
-0.0325087159872055
-0.0343532934784889
-0.0350483506917953
-0.034690748900175
-0.0334413424134254
-0.0315022878348827
-0.0290920510888099
-0.0264221709221601
-0.0236770696938037
-0.0209989622235298
-0.0184815004467964
-0.016170373186469
-0.0140665704384446
-0.0121315913274884
-0.0102970199659466
-0.0084812482818961
-0.0066106007434427
-0.0046357475221157
-0.0025369618088006
-0.0003202655352652
0.0019889716058969
0.0043515004217624
0.0067197205498814
0.0090435883030295
0.0112748714163899
0.01336938329041
0.0152896018698811
0.0170082412660121
0.0185102764517068
0.0197925120592117
0.0208620354533195
0.0217334609478712
0.0224253050982952
0.0229578986763954
0.0233511254191398
0.0236160643398761
0.0237382929772138
0.0236576702445745
0.0232561323791742
0.0223646406084299
0.0207915566861629
0.0183665789663791
0.0149879986420273
0.0106589645147323
0.0055039837025105
-0.0002374080941081
-0.0062386388890445
-0.0121298190206289
-0.017548132687807
-0.0221837982535362
-0.0258113369345664
-0.0283034387975931
-0.029630672186613
-0.029850136488676
-0.0290877092629671
-0.0275186002254486
-0.0253476165235042
-0.0227895472198724
-0.0200502518564462
-0.0173091236501932
-0.0147046409547328
-0.0123241702094674
-0.0101990234106779
-0.0083085149526596
-0.0065942211076617
-0.0049786674790084
-0.0033828346058726
-0.0017407648265361
-8.556991815567017e-06
0.0018336693756282
0.0037827596534043
0.0058138356544077
0.007884101010859
0.009940325282514
0.0119278952479362
0.0137974610552191
0.0155078154057264
0.017028734087944
0.0183450542390346
0.0194570031017065
0.0203747414052486
0.0211117528378963
0.0216820109635591
0.0221008360385894
0.022385973483324
0.0225575994700193
0.0226353276520967
0.0226273816078901
0.0225114151835441
0.022215012460947
0.021608093753457
0.0205146726220846
0.0187428183853626
0.0161276571452617
0.0125784557312726
0.0081137437373399
0.0028724730946123
-0.0028971272986382
-0.0088663846254348
-0.0146692804992198
-0.0199509635567665
-0.0244102459400892
-0.0278283525258302
-0.030083067715168
-0.0311512164771556
-0.0311006810516119
-0.0300743859261274
-0.0282702762633562
-0.0259181465953588
-0.0232534799724817
-0.0204916708171367
-0.0178075432777404
-0.0153232179582118
-0.0131040327250957
-0.0111608272418379
-0.0094578498974442
-0.0079258335754275
-0.0064782444387674
-0.0050269695930182
-0.0034956037998199
-0.0018302551470696
-5.374196916818619e-06
0.001976654632017
0.004089608322829
0.0062889950349926
0.008518979884684
0.0107199838384985
0.0128336576744914
0.0148052610456943
0.016587845981121
0.0181480087339878
0.0194695089012384
0.0205536689609289
0.0214162897318601
0.0220814049243927
0.0225753020495176
0.0229235533624887
0.0231476835906505
0.0232559014111757
0.0232258979231119
0.0229842253029346
0.0223960392177104
0.0212790314108133
0.0194405782967805
0.0167259201407432
0.0130638536065816
0.008497348986566
0.0031914515420794
-0.002582062035799
-0.00847989320755
-0.0141348894685506
-0.0192050449550151
-0.023414384573698
-0.0265794172883033
-0.028617825359106
-0.0295418966561555
-0.0294429548084735
-0.0284719616174697
-0.0268195457756519
-0.0246970597654581
-0.0223181974142789
-0.0198793597519397
-0.0175406616181135
-0.0154126593843102
-0.0135505134239792
-0.0119568174704909
-0.0105930157005786
-0.00939417257905
-0.008282558992505
-0.007179609965533
-0.0060172360390424
-0.004747032187879
-0.0033453458454459
-0.0018142953049391
-0.0001784560736268
0.0015208015684038
0.0032308548688888
0.0048950174823403
0.0064602466300129
0.007881723344326
0.0091260652989149
0.0101757254451513
0.0110319703817367
0.0117114838212728
0.0122347362339496
0.0126077476888895
0.0128001682460308
0.0127277197316288
0.0122520057484507
0.0112041933462023
0.0094256186857819
0.0068116569891572
0.0033481605350971
-0.000868315808475
-0.0056331665255129
-0.0106557318940758
-0.0155949471518397
-0.0201059412211179
-0.0238854065537452
-0.0267019718885421
-0.0284123141318559
-0.0289686154574155
-0.0284156743437051
-0.0268767178058624
-0.0245347656309604
-0.0216132886707782
-0.0183524340391159
-0.0149814607575535
-0.0116954687982797
-0.0086401030421257
-0.0059023890644311
-0.003508822992444
-0.0014313496649265
0.0004016924649477
0.0020893812179565
0.0037373732775449
0.0054401410743594
0.0072707599028944
0.009273731149733
0.0114596392959356
0.0138055244460701
0.0162612441927194
0.0187601409852504
0.0212296396493911
0.0235979221761226
0.0258000940084457
0.0277843233197927
0.0295140109956264
0.0309666134417057
0.0321260243654251
0.0329633355140686
0.0334123782813549
0.0333547815680503
0.0326277129352092
0.0310570299625396
0.0285055600106716
0.0249205976724624
0.0203655138611793
0.0150267826393246
0.0091960662975907
0.003232411108911
-0.0024855607189238
-0.0076065463945269
-0.0118457581847906
-0.0150111727416515
-0.0170132592320442
-0.0178603380918502
-0.0176450163125991
-0.0165261179208755
-0.0147092314437031
-0.0124267125502228
-0.0099151469767093
-0.0073901116847991
-0.0050228554755449
-0.002924689091742
-0.0011432636529207
0.0003299927338957
0.0015476695261895
0.0025926418602466
0.0035618934780359
0.0045508639886975
0.0056404373608529
0.0068855946883559
0.008308439515531
0.0098979221656918
0.0116147873923182
0.0134001113474369
0.0151852834969758
0.0169012453407049
0.0184862837195396
0.0198910031467676
0.0210803113877773
0.022033492103219
0.0227379389107227
0.0231711808592081
0.0232763960957527
0.0229448862373828
0.0220157895237207
0.020298158749938
0.0176157243549823
0.0138622429221868
0.009046334773302
0.003310527652502
-0.0030786786228418
-0.0097632845863699
-0.0163394138216972
-0.0224091336131095
-0.0276304893195629
-0.0317544378340244
-0.0346415489912033
-0.0362597964704036
-0.0366697907447814
-0.036004688590765
-0.0344488322734832
-0.0322168841958045
-0.0295343659818172
-0.0266188438981771
-0.0236623343080282
-0.0208165496587753
-0.0181821696460247
-0.015804523602128
-0.0136763267219066
-0.0117456428706645
-0.0099296001717448
-0.0081327371299266
-0.0062641385011374
-0.004250637255609
-0.0020462195388972
0.0003627758705988
0.0029562064446508
0.0056833061389625
0.0084714693948626
0.0112368864938616
0.0138930119574069
0.016358571127057
0.0185674782842397
0.0204771682620048
0.0220712814480066
0.0233583208173513
0.0243670102208852
0.0251362416893243
0.0256992802023887
0.0260610673576593
0.0261712744832038
0.0259065069258213
0.0250758975744247
0.0234538577497005
0.0208323020488023
0.0170783381909132
0.0121814375743269
0.0062750205397605
-0.0003726528957486
-0.0073917028494179
-0.0143597023561596
-0.020857248455286
-0.0265180505812168
-0.0310650654137134
-0.0343297347426414
-0.0362557768821716
-0.0368918105959892
-0.0363760255277156
-0.0349146276712417
-0.0327556952834129
-0.0301599036902189
-0.027370698750019
-0.0245886612683534
-0.0219550617039203
-0.0195463933050632
-0.017378406599164
-0.01541693136096
-0.0135928988456726
-0.011819964274764
-0.0100120762363076
-0.0080973450094461
-0.0060272915288805
-0.0037825305480509
-0.0013743722811341
0.0011585594620555
0.0037572169676423
0.0063498057425022
0.0088597387075424
0.0112149333581328
0.0133573347702622
0.0152495466172695
0.0168765634298324
0.0182437486946582
0.0193733535706996
0.0202986504882574
0.0210551060736179
0.0216730460524559
0.0221741646528244
0.022568130865693
0.0228437446057796
0.0229516699910163
0.0227861180901527
0.0221809558570384
0.0209281370043754
0.0188161320984363
0.0156816039234399
0.0114606022834777
0.0062227947637438
0.0001787012442946
-0.0063419165089726
-0.0129355136305093
-0.0191830731928348
-0.0247065685689449
-0.0292107984423637
-0.0325051546096801
-0.0345074348151683
-0.035236656665802
-0.0347999632358551
-0.0333737358450889
-0.0311802458018064
-0.028463277965784
-0.0254640597850084
-0.022397831082344
-0.0194337647408247
-0.0166828334331512
-0.0141962226480245
-0.0119719691574573
-0.0099653992801904
-0.0081021850928664
-0.0062942043878138
-0.0044547650031745
-0.0025103632360696
-0.0004101637750864
0.0018663229420781
0.0043062716722488
0.00686776638031
0.009489007294178
0.0120991952717304
0.0146306622773408
0.0170296225696802
0.0192608200013637
0.0213064067065715
0.0231623761355876
0.0248331446200609
0.026324899867177
0.0276408847421407
0.0287810284644365
0.0297442711889743
0.0305291786789894
0.0311284177005291
0.0315142311155796
0.0316180996596813
0.0313153006136417
0.0304267536848783
0.0287448838353157
0.0260796807706356
0.0223127026110887
0.0174431093037128
0.0116097293794155
0.005080949049443
-0.0017818445339798
-0.0085741411894559
-0.0149003788828849
-0.0204201266169548
-0.0248808898031711
-0.0281328298151493
-0.0301284771412611
-0.0309141110628843
-0.0306147634983062
-0.0294138677418231
-0.0275317821651697
-0.0252042450010776
-0.0226592645049095
-0.0200945381075143
-0.0176599975675344
-0.0154486577957868
-0.0134958568960428
-0.0117853842675685
-0.0102612879127264
-0.0088432589545845
-0.0074428245425224
-0.0059783235192298
-0.0043867202475667
-0.0026307988446205
-0.0007024791557341
0.0013770179357379
0.003560560522601
0.0057822288945317
0.0079683866351842
0.0100501412525773
0.0119720436632633
0.0136949736624956
0.0151954237371683
0.016464302316308
0.017506193369627
0.0183374024927616
0.0189794581383466
0.0194450970739126
0.019717164337635
0.0197268947958946
0.019344937056303
0.0183972027152776
0.0167040880769491
0.0141304144635796
0.0106329834088683
0.0062918788753449
0.0013122074306011
-0.0040039764717221
-0.0093023823574185
-0.0142260454595088
-0.0184611696749925
-0.0217686686664819
-0.0239981822669506
-0.0250909626483917
-0.0250763893127441
-0.024063054472208
-0.0222233887761831
-0.0197717733681201
-0.01693981513381
-0.0139514468610286
-0.0110000371932983
-0.0082321856170892
-0.0057401596568524
-0.0035622585564851
-0.0016900599002838
-7.911119610071182e-05
0.0013394507113844
0.0026459116488695
0.0039186947979032
0.0052238693460822
0.0066089164465665
0.0081006903201341
0.0097064673900604
0.0114149320870637
0.013196874409914
0.0150095503777265
0.0168047007173299
0.0185356754809618
0.0201607123017311
0.0216434933245182
0.0229539964348077
0.0240683685988187
0.024962194263935
0.0255948174744844
0.0258893985301256
0.0257210712879896
0.0249265488237142
0.0233367979526519
0.0208206698298454
0.0173248015344142
0.0128999948501586
0.0077079003676772
0.0020077088847756
-0.0038723410107195
-0.0095758819952607
-0.0147662023082375
-0.0191677100956439
-0.0225906111299991
-0.024939002469182
-0.0262077525258064
-0.026471035555005
-0.0258642677217721
-0.0245638824999332
-0.0227673128247261
-0.0206728186458349
-0.0184611082077026
-0.01628078520298
-0.014237742871046
-0.0123888636007905
-0.010741607286036
-0.0092615410685539
-0.007886460982263
-0.0065424423664808
-0.0051575233228504
-0.0036715969908982
-0.0020448213908821
-0.0002636288991197
0.001658909022808
0.0036858851090073
0.0057604913599789
0.0078131882473826
0.0097712883725762
0.0115678012371063
0.0131488675251603
0.0144802862778306
0.0155509421601891
0.0163685120642185
0.0169445481151342
0.0172706302255392
0.0172936152666807
0.0169035401195287
0.0159446150064468
0.0142488861456513
0.0116826789453625
0.0081921471282839
0.0038338229060173
-0.0012185806408524
-0.0066904677078127
-0.0122412620112299
-0.0175113230943679
-0.0221692286431789
-0.0259486846625804
-0.0286703146994113
-0.0302491150796413
-0.0306921750307083
-0.0300888270139694
-0.0285927206277847
-0.0263991020619869
-0.0237218607217073
-0.0207718443125486
-0.0177378188818693
-0.0147722791880369
-0.0119818281382322
-0.0094213560223579
-0.0070950090885162
-0.0049660801887512
-0.0029721595346927
-0.0010413043200969
0.0008926724549382
0.0028787371702492
0.0049439743161201
0.0070942007005214
0.0093158530071377
0.0115772560238838
0.0138305518776178
0.0160169564187526
0.0180753618478775
0.0199510380625724
0.0216013193130493
0.0229981318116188
0.0241289287805557
0.0249956808984279
0.0256115142256021
0.0259978417307138
0.0261833071708679
0.02620080858469
0.0260779354721307
0.0258184634149074
0.0253783669322729
0.0246491525322198
0.0234620198607444
0.021615907549858
0.0189235750585794
0.0152644896879792
0.0106281321495771
0.0051337638869881
-0.0009769592434167
-0.0073706218972802
-0.0136688770726323
-0.0195001177489757
-0.0245438776910305
-0.0285623837262392
-0.0314178466796875
-0.0330746695399284
-0.0335888862609863
-0.0330896563827991
-0.0317568369209766
-0.0297971405088901
-0.027421161532402
-0.0248246695846319
-0.0221753530204296
-0.0196029860526323
-0.0171931479126214
-0.0149862207472324
-0.0129808848723769
-0.0111404284834861
-0.0094032613560557
-0.0076987324282526
-0.005963351111859
-0.0041519477963447
-0.0022433968260884
-0.0002415090566501
0.0018292811000719
0.0039304690435528
0.0060143722221255
0.00802908744663
0.0099255628883838
0.0116638196632266
0.0132160242646932
0.0145674180239439
0.0157160405069589
0.0166712813079357
0.0174509678035974
0.0180778093636035
0.0185770615935325
0.0189741253852844
0.0192872453480958
0.0195108819752931
0.0195927079766988
0.0194179564714431
0.0188140217214822
0.0175787191838026
0.0155271859839558
0.0125445686280727
0.0086268354207277
0.0038967267610132
-0.0014067310839891
-0.0069595044478774
-0.0123979030176997
-0.0173697229474782
-0.0215797871351242
-0.024819292128086
-0.0269763804972171
-0.0280331093817949
-0.0280546229332685
-0.0271726679056882
-0.0255647264420986
-0.0234323572367429
-0.0209815166890621
-0.018405120819807
-0.0158669576048851
-0.0134873110800981
-0.0113335419446229
-0.0094167925417423
-0.0076944967731833
-0.006082113366574
-0.0044737141579389
-0.0027633639983832
-0.0008621835149824
0.0012881765142083
0.0037061630282551
0.0063669229857623
0.0092049250379204
0.01212262455374
0.0150045156478881
0.0177334081381559
0.0202048867940902
0.0223366916179656
0.0240726694464683
0.0253841131925582
0.0262699127197265
0.0267549958080053
0.0268868189305067
0.0267289150506258
0.0263493806123733
0.025801446288824
0.0250976383686065
0.0241885930299758
0.0229590758681297
0.0212449636310338
0.0188686214387416
0.0156856849789619
0.011629169806838
0.0067385034635663
0.0011687884107232
-0.0048219077289104
-0.0109066739678382
-0.0167371556162834
-0.0219909232109785
-0.0264086741954088
-0.0298165753483772
-0.0321335792541503
-0.0333679057657718
-0.0336055569350719
-0.032992735505104
-0.0317161679267883
-0.0299824476242065
-0.0279956068843603
-0.025935273617506
-0.0239396765828132
-0.0220954604446887
-0.0204336941242218
-0.0189343560487031
-0.0175407472997903
-0.0161771457642316
-0.0147644709795713
-0.0132331764325499
-0.0115312682464718
-0.0096289319917559
-0.0075223417952656
-0.0052340673282742
-0.0028086407110095
-0.0003052949905395
0.0022103218361735
0.0046740677207708
0.0070295287296175
0.0092313364148139
0.0112459147348999
0.0130516150966286
0.0146380588412284
0.0160011406987905
0.0171299241483211
0.0179864894598722
0.0184879433363676
0.0185039844363927
0.0178775619715452
0.0164638608694076
0.0141746047884225
0.0110146012157201
0.0070998379960656
0.0026511587202548
-0.0020328368991613
-0.0066150752827525
-0.0107641499489545
-0.0141943786293268
-0.0166944973170757
-0.0181439965963363
-0.0185177773237228
-0.0178796388208866
-0.0163667611777782
-0.0141678024083375
-0.0114977918565273
-0.0085739865899086
-0.0055949799716472
-0.0027233269065618
-7.37905502319336e-05
0.0022914009168744
0.0043615698814392
0.0061710961163043
0.0077874613925814
0.0092961285263299
0.0107838101685047
0.0123224202543497
0.0139584699645638
0.0157092548906803
0.017564145848155
0.0194904692471027
0.0214415956288576
0.0233638267964124
0.0252018943428993
0.0269042253494262
0.0284275896847248
0.029739711433649
0.03081876039505
0.0316481292247772
0.0322037413716316
0.0324325747787952
0.0322323441505432
0.0314512476325035
0.029915202409029
0.0274718534201383
0.0240368247032165
0.0196307133883237
0.0143954204395413
0.0085845738649368
0.002533382968977
-0.0033847247250378
-0.0088087972253561
-0.0134366527199745
-0.0170534048229455
-0.0195410326123237
-0.0208769999444484
-0.0211263708770275
-0.020427769050002
-0.0189741421490907
-0.0169896315783262
-0.0147045794874429
-0.0123318638652563
-0.0100463405251502
-0.0079694716259837
-0.0061636976897716
-0.0046374485827982
-0.0033551505766808
-0.0022481279447674
-0.0012285138946026
-0.0002075770462397
0.0008879581582732
0.0021078658755868
0.0034756094682961
0.00498673832044
0.0066096875816583
0.0082908235490322
0.0099644120782613
0.0115649178624153
0.0130358142778277
0.0143337342888116
0.0154311368241906
0.016314398497343
0.0169691052287817
0.0173536129295825
0.01737523637712
0.0168850310146808
0.0156979262828826
0.0136343818157911
0.0105717275291681
0.006488611921668
0.0014884220436215
-0.0042035095393657
-0.0102658234536647
-0.0163228381425142
-0.0219935793429613
-0.0269395969808101
-0.0309022329747676
-0.0337221287190914
-0.0353411138057708
-0.0357925668358802
-0.0351862013339996
-0.0336899831891059
-0.0315094403922557
-0.0288639590144157
-0.0259636156260967
-0.022993117570877
-0.0201017726212739
-0.0173938665539026
-0.0149218877777457
-0.0126887150108814
-0.0106582585722208
-0.0087694628164172
-0.0069498559460043
-0.0051273088902235
-0.0032401515636593
-0.0012463224120438
0.0008699491154402
0.003096729516983
0.0053977090865373
0.0077186366543173
0.0099954409524798
0.0121613126248121
0.0141531806439161
0.0159196257591247
0.0174283850938081
0.0186705850064754
0.0196599401533603
0.0204268116503953
0.0210111886262893
0.0214553996920585
0.0217880103737115
0.0219945013523101
0.0219888985157012
0.021607656031847
0.0206342171877622
0.0188477542251348
0.0160802341997623
0.0122644174844026
0.0074621457606554
0.0018679704517126
-0.0042134877294301
-0.0104114618152379
-0.0163419693708419
-0.0216548964381217
-0.0260671228170394
-0.0293822716921567
-0.0314986780285835
-0.032407134771347
-0.0321822501718997
-0.0309698414057493
-0.0289692897349596
-0.0264102518558502
-0.0235275570303201
-0.0205378327518701
-0.0176188070327043
-0.0148937096819281
-0.0124238803982734
-0.0102113978937268
-0.0082114916294813
-0.0063508227467536
-0.0045461496338248
-0.0027204062789678
-0.0008158549899235
0.0011968261096626
0.0033159051090478
0.0055132550187408
0.0077434838749468
0.0099526494741439
0.0120834540575742
0.0140782967209815
0.0158852431923151
0.0174669995903968
0.0188055802136659
0.0199001654982566
0.0207629166543483
0.0214150492101907
0.021882988512516
0.022195903584361
0.0223844572901725
0.022477576509118
0.0224925726652145
0.0224160999059677
0.022182535380125
0.0216634906828403
0.0206769425421953
0.0190158300101757
0.0164928380399942
0.0129928551614284
0.0085155069828033
0.0031911395490169
-0.0027315625920891
-0.0089180683717131
-0.0149930696934461
-0.0205900128930807
-0.0253957249224185
-0.0291825197637081
-0.0318238399922847
-0.0332956276834011
-0.0336672440171241
-0.0330822244286537
-0.0317320376634597
-0.029829628765583
-0.0275861136615276
-0.0251916870474815
-0.0228010714054107
-0.0205233693122863
-0.0184180531650781
-0.0164991673082113
-0.0147454803809523
-0.01311063952744
-0.011531532742083
-0.0099380100145936
-0.008264965377748
-0.0064645735546946
-0.0045142262242734
-0.0024169627577066
-0.000197576591745
0.0021014839876443
0.004424761980772
0.0067100990563631
0.0088960751891136
0.0109288971871137
0.0127675700932741
0.0143871270120143
0.0157793350517749
0.0169508196413517
0.0179195143282413
0.0187095887959003
0.0193429253995418
0.0198248624801635
0.0201264880597591
0.0201706960797309
0.0198289882391691
0.0189345050603151
0.0173147860914468
0.0148384943604469
0.0114596476778388
0.0072444565594196
0.0023752299603074
-0.0028692081104964
-0.0081523843109607
-0.013127445243299
-0.0174814257770776
-0.0209682937711477
-0.0234272759407758
-0.0247894283384084
-0.0250752195715904
-0.0243831127882003
-0.0228723119944334
-0.0207436457276344
-0.0182187408208847
-0.0155175104737281
-0.0128359477967023
-0.0103271333500742
-0.008088051341474
-0.0061538256704807
-0.0045011742040514
-0.0030616354197263
-0.0017415098845958
-0.0004425337538123
0.0009213415905833
0.0024118684232234
0.0040594730526208
0.00586251122877
0.0077908644452691
0.0097913201898336
0.0117963263764977
0.0137361101806163
0.0155501151457428
0.0171947535127401
0.0186466351151466
0.0199017338454723
0.0209705010056495
0.021867498755455
0.022593792527914
0.0231135301291942
0.0233350396156311
0.023111306130886
0.022265076637268
0.0206310246139764
0.018102791160345
0.0146726612001657
0.0104518234729766
0.0056639085523784
0.0006154095754027
-0.0043466109782457
-0.0088801495730876
-0.012689659371972
-0.0155562385916709
-0.0173527467995882
-0.0180459432303905
-0.0176898874342441
-0.0164121612906456
-0.0143944919109344
-0.0118507780134677
-0.0090036848559975
-0.0060612754896283
-0.0031983582302927
-0.0005451925098896
0.0018184660002589
0.0038646049797534
0.0056120874360203
0.0071158572100102
0.0084522124379873
0.0097033148631453
0.0109432078897953
0.0122260767966508
0.0135783497244119
0.0149976881220936
0.0164590571075677
0.0179229639470577
0.0193419530987739
0.0206657424569129
0.0218461826443672
0.0228426922112703
0.0236275158822536
0.0241881422698497
0.0245245713740587
0.0246398653835058
0.0245220120996236
0.0241207815706729
0.0233328081667423
0.0220073591917753
0.0199747141450643
0.0170900449156761
0.0132814459502696
0.0085877291858196
0.0031715501099824
-0.0026973243802785
-0.0086802961304783
-0.0144165279343724
-0.0195690020918846
-0.0238643214106559
-0.0271194539964199
-0.0292506068944931
-0.0302673988044261
-0.0302596949040889
-0.0293796975165605
-0.0278191305696964
-0.0257852356880903
-0.0234798844903707
-0.0210821125656366
-0.0187337808310985
-0.0165305417031049
-0.0145207773894071
-0.012712063267827
-0.0110804680734872
-0.0095788687467575
-0.0081454720348119
-0.0067151025868952
-0.0052315671928226
-0.0036563286557793
-0.0019720243290066
-0.0001832470297813
0.0016849609091877
0.0035921870730817
0.0054902750998735
0.0073313862085342
0.0090755354613065
0.0106956232339143
0.0121761886402964
0.0135069554671645
0.0146778523921966
0.0156798493117094
0.0165083445608615
0.0171592570841312
0.0176114067435264
0.0178014189004898
0.0176069252192974
0.0168521180748939
0.0153379663825035
0.0128885395824909
0.0094005418941378
0.0048822574317455
-0.0005284789949655
-0.0065707671456038
-0.0128902215510606
-0.01908615604043
-0.0247666537761688
-0.0295990221202373
-0.0333439335227012
-0.0358699969947338
-0.03715331107378
-0.0372657068073749
-0.0363539047539234
-0.034613724797964
-0.0322640910744667
-0.0295232478529214
-0.0265883207321167
-0.0236201360821723
-0.0207348316907882
-0.0180016215890645
-0.0154451867565512
-0.0130523154512047
-0.0107829626649618
-0.0085844183340668
-0.0064052296802401
-0.0042055868543684
-0.0019632102921605
0.0003249386791139
0.0026441521476954
0.0049645197577774
0.0072447611019015
0.0094390148296952
0.0115037383511662
0.0134014226496219
0.0151037499308586
0.0165961720049381
0.0178790539503097
0.0189627185463905
0.0198621079325675
0.0205957144498825
0.0211867876350879
0.0216635130345821
0.0220575332641601
0.0224006287753582
0.0227154456079006
0.0229952149093151
0.0231769438832998
0.023123862221837
0.0226316358894109
0.0214605890214443
0.0193860847502946
0.0162551533430814
0.0120334215462207
0.0068278810940682
0.0008819457143545
-0.0054543437436223
-0.0117740277200937
-0.0176711920648813
-0.0227925144135952
-0.0268734972923994
-0.0297568831592798
-0.0313949808478355
-0.0318399108946323
-0.031225761398673
-0.0297461431473493
-0.0276294462382793
-0.0251131132245063
-0.0224190335720777
-0.0197334457188844
-0.0171948745846748
-0.0148882009088993
-0.0128415543586015
-0.011029165238142
-0.0093819182366132
-0.0078024715185165
-0.0061835832893848
-0.0044284183531999
-0.0024683466181159
-0.0002739448100328
0.002141810953617
0.0047274432145059
0.0074028861708939
0.0100735099986195
0.0126444967463612
0.0150309586897492
0.0171634666621685
0.0189915932714939
0.0204859599471092
0.0216392390429973
0.0224658381193876
0.022997923195362
0.023279320448637
0.0233612582087516
0.02329882979393
0.0231448300182819
0.0229398589581251
0.0226973723620176
0.0223839674144983
0.0219020601361989
0.021086486056447
0.0197237394750118
0.0175946559756994
0.0145302675664424
0.010464203543961
0.0054673431441187
-0.000245314091444
-0.0063390601426362
-0.0124088954180479
-0.0180403459817171
-0.0228660441935062
-0.0266067739576101
-0.0290939304977655
-0.0302761327475309
-0.0302130132913589
-0.0290574245154857
-0.0270293783396482
-0.0243881344795227
-0.0214056018739938
-0.0183392949402332
-0.0154055748134851
-0.0127588575705885
-0.01048219576478
-0.008590736426413
-0.0070439158007502
-0.0057602720335125
-0.0046329647302627
-0.0035455804318189
-0.0023870449513196
-0.0010662842541933
0.0004752865061163
0.0022584684193134
0.0042684720829129
0.0064612538553774
0.0087720863521099
0.0111254006624221
0.0134449433535337
0.0156627036631107
0.0177245587110519
0.0195918604731559
0.0212403237819671
0.022657373920083
0.0238356664776802
0.0247584693133831
0.0253770090639591
0.0255909189581871
0.0252481698989868
0.0241693370044231
0.0221882238984107
0.019198440015316
0.0151951033622026
0.0102993659675121
0.0047563728876411
-0.0010930127464234
-0.0068578757345676
-0.0121498722583055
-0.0166321489959955
-0.0200545620173215
-0.0222713761031627
-0.0232450980693101
-0.0230398755520582
-0.0218049753457307
-0.0197511296719312
-0.0171229764819145
-0.014170141890645
-0.0111228534951806
-0.008175516501069
-0.0054745497182011
-0.0031083030626177
-0.0011031497269868
0.0005718227475881
0.0019936324097216
0.0032690218649804
0.0045146867632865
0.0058383857831358
0.0073238611221313
0.0090208575129508
0.0109407771378755
0.01305737439543
0.0153117086738348
0.0176219567656517
0.0198968946933746
0.0220471117645502
0.0239918641746044
0.0256654527038335
0.0270225834101438
0.0280377734452486
0.0286946333944797
0.0289634130895137
0.0287747457623481
0.0280062966048717
0.026493826881051
0.0240664388984441
0.0205960813909769
0.0160447247326374
0.0104951169341802
0.004159087780863
-0.0026394743472337
-0.009505258873105
-0.0160247273743152
-0.0218185037374496
-0.0265836492180824
-0.0301194936037063
-0.0323362872004509
-0.0332510098814964
-0.0329738110303878
-0.0316869765520095
-0.0296196490526199
-0.0270218960940837
-0.0241394750773906
-0.0211918111890554
-0.0183559767901897
-0.0157547891139984
-0.013448636047542
-0.011436078697443
-0.0096654612571001
-0.008053065277636
-0.0065025137737393
-0.0049232291057705
-0.0032454901374876
-0.0014279396273195
0.0005423530237749
0.0026524632703512
0.0048670778051018
0.0071344189345836
0.0093938335776329
0.011582339182496
0.013639566488564
0.0155129125341773
0.0171623937785625
0.0185621362179517
0.0196989346295595
0.0205697305500507
0.0211733542382717
0.0214905403554439
0.021457951515913
0.0209525227546691
0.0197990871965885
0.0178028978407382
0.0147991413250565
0.0107064098119735
0.0055677276104688
-0.0004344666376709
-0.0069924150593578
-0.0137109318748116
-0.0201621707528829
-0.0259452480822801
-0.0307338684797287
-0.0343034565448761
-0.0365405194461345
-0.0374400429427623
-0.037094622850418
-0.0356760546565055
-0.0334114022552967
-0.0305571928620338
-0.0273732542991638
-0.024097179993987
-0.0209219213575124
-0.0179808717221021
-0.0153423827141523
-0.013011222705245
-0.0109371384605765
-0.0090327747166156
-0.0071964496746659
-0.0053321244195103
-0.0033642950002104
-0.0012489079963415
0.0010214522480964
0.0034203520044684
0.0058957440778613
0.0083804028108716
0.0108038242906332
0.0131032085046172
0.0152295026928186
0.0171483941376209
0.0188397988677024
0.0202973503619432
0.0215274523943662
0.0225477572530508
0.0233843456953763
0.0240669269114732
0.0246206410229206
0.0250497758388519
0.0253124274313449
0.0252968575805425
0.0248170495033264
0.0236385036259889
0.02152955904603
0.0183219462633132
0.0139630027115345
0.0085452981293201
0.0023074708878993
-0.0043917801231145
-0.0111225210130214
-0.0174456927925348
-0.0229714252054691
-0.0274009183049201
-0.0305479578673839
-0.0323419049382209
-0.0328191220760345
-0.0321081802248954
-0.030409175902605
-0.027967669069767
-0.0250460002571344
-0.0218958351761102
-0.0187355056405067
-0.0157332457602024
-0.0129961818456649
-0.0105669684708118
-0.0084305368363857
-0.0065292324870824
-0.004779805894941
-0.0030873883515596
-0.001359180547297
0.0004798523150384
0.0024750411976128
0.0046376516111195
0.0069461925886571
0.0093526914715766
0.0117927156388759
0.014195566996932
0.0164926201105117
0.0186238419264554
0.0205426942557096
0.02221873216331
0.0236378852277994
0.0248011127114295
0.0257212202996015
