bvp
0.0383525863289833
0.0375710763037204
0.0359539352357387
0.0332903154194355
0.0294271856546401
0.0243230946362018
0.018084967508912
0.0109753692522645
0.0033881715498864
-0.0042007490992546
-0.0112976115196943
-0.0174554735422134
-0.0223253928124904
-0.0256863683462142
-0.0274542588740587
-0.0276751015335321
-0.0265082605183124
-0.0242005530744791
-0.0210526548326015
-0.0173839181661605
-0.0135014271363615
-0.0096757980063557
-0.0061240773648023
-0.0029971338808536
-0.0003702249377965
0.0017582671716809
0.003456337377429
0.0048398016951978
0.0060504698194563
0.0072338245809078
0.0085190963000059
0.0100046042352914
0.0117495525628328
0.0137700056657195
0.0160372965037822
0.0184823330491781
0.0210078973323106
0.023504089564085
0.0258614905178546
0.0279814042150974
0.0297842361032962
0.0312145873904228
0.0322412885725498
0.0328550860285759
0.0330667644739151
0.0329023264348506
0.032387439161539
0.0315171405673027
0.0302215442061424
0.0283495131880044
0.0256841965019702
0.0219880528748035
0.0170657150447368
0.0108292018994688
0.0033476082608103
-0.0051357112824916
-0.0142245693132281
-0.0234195962548255
-0.032181903719902
-0.0400013253092765
-0.0464580655097961
-0.0512638017535209
-0.054276093840599
-0.0554935112595558
-0.0550407841801643
-0.0531449615955352
-0.0501030683517456
-0.0462465584278106
-0.0419076308608055
-0.0373892299830913
-0.0329407453536987
-0.0287429727613925
-0.0249012969434261
-0.0214455854147672
-0.0183406267315149
-0.0155066670849919
-0.0128420433029532
-0.0102420449256896
-0.0076140146702528
-0.004890589043498
-0.0020397817716002
0.0009317901567555
0.0039840037934482
0.0070540169253945
0.0100674256682395
0.0129460925236344
0.0156149342656135
0.0180118009448051
0.0200974959880113
0.0218591727316379
0.0233072508126497
0.0244703646749258
0.0253879893571138
0.0260966625064611
0.0266078617423772
0.026880944147706
0.0268009528517723
0.0261746626347303
0.0247551165521144
0.0222936868667602
0.0186063945293426
0.0136366467922925
0.0074959062039852
0.0004674233496189
-0.0070278481580317
-0.0144911706447601
-0.021416675299406
-0.0273582674562931
-0.0319802016019821
-0.0350837931036949
-0.0366104468703269
-0.0366271436214447
-0.0353015884757041
-0.0328735820949077
-0.0296267066150903
-0.0258598383516073
-0.0218578279018402
-0.0178656298667192
-0.0140701094642281
-0.0105895875021815
-0.0074718021787703
-0.0047009466215968
-0.002211675979197
9.190337732434271e-05
0.0023163815494626
0.0045634764246642
0.006917948834598
0.0094370720908045
0.0121432337909936
0.0150203416123986
0.0180149637162685
0.0210447665303945
0.0240124184638261
0.0268188659101724
0.0293728075921535
0.0315975435078144
0.0334373041987419
0.0348618663847446
0.0358661487698555
0.0364644266664981
0.0366782993078231
0.0365146920084953
0.0359356254339218
0.0348339937627315
0.0330340191721916
0.0303221866488456
0.0264994017779827
0.0214421804994344
0.0151581019163131
0.0078169088810682
-0.0002544047310948
-0.0086108287796378
-0.0167513042688369
-0.0241874270141124
-0.0305040776729583
-0.0354011766612529
-0.0387111045420169
-0.0403951033949852
-0.0405289158225059
-0.0392851196229457
-0.0369115099310874
-0.0337020978331565
-0.029962595552206
-0.0259789954870939
-0.0219954326748847
-0.0181996226310729
-0.0147141143679618
-0.0115941176190972
-0.008831606246531
-0.0063670696690678
-0.0041085490956902
-0.0019527613185346
0.0001955348998308
0.0024083037860691
0.0047258017584681
0.0071547525003552
0.0096712727099657
0.0122267734259366
0.0147550078108906
0.0171807464212179
0.0194300599396228
0.0214387588202953
0.0231570303440094
0.0245520342141389
0.0256101600825786
0.0263372045010328
0.0267547667026519
0.0268955305218696
0.0267999581992626
0.026512986049056
0.026076590642333
0.0255129262804985
0.0247967820614576
0.0238283760845661
0.0224257390946149
0.0203477311879396
0.0173445176333189
0.0132229607552289
0.0079079791903495
0.0014806110411882
-0.0058173909783363
-0.0136105120182037
-0.0214398130774498
-0.028826754540205
-0.0353367626667022
-0.0406282469630241
-0.0444803535938262
-0.0468009114265441
-0.0476182997226715
-0.0470611006021499
-0.0453321635723114
-0.0426835231482982
-0.0393918827176094
-0.0357309058308601
-0.0319425538182258
-0.0282145142555236
-0.0246680006384849
-0.021356463432312
-0.0182749312371015
-0.015377702191472
-0.0125985499471426
-0.0098677612841129
-0.0071258107200264
-0.004335593432188
-0.0014906292781233
0.0013843877241015
0.0042407209984958
0.0070176813751459
0.0096536083146929
0.012090353295207
0.0142750833183527
0.0161658190190792
0.0177375711500644
0.0189835019409656
0.0199118424206972
0.0205414593219757
0.0208983607590198
0.0210152491927146
0.0209335908293724
0.020704248920083
0.0203836411237716
0.0200264081358909
0.0196790136396884
0.0193764213472604
0.0191351454704999
0.0189348049461841
0.0186928398907184
0.0182491466403007
0.0173775851726531
0.0158267952501773
0.0133765814825892
0.0098940944299101
0.0053773857653141
-2.603605389595032e-05
-0.0060327975079417
-0.0122652286663651
-0.0183077417314052
-0.0237648040056228
-0.0283110402524471
-0.0317245498299598
-0.0338993147015571
-0.0348412655293941
-0.0346537046134471
-0.033514130860567
-0.0316456705331802
-0.0292887017130851
-0.0266762152314186
-0.0240142941474914
-0.0214682798832654
-0.0191527865827083
-0.0171241462230682
-0.0153782442212104
-0.0138571178540587
-0.0124644245952367
-0.0110873244702816
-0.0096181705594062
-0.0079688131809234
-0.0060774353332817
-0.0039123268797993
-0.0014736745506525
0.0012088195653632
0.0040821162983775
0.0070765675045549
0.0101130399852991
0.0131117599084973
0.0160005651414394
0.0187192410230636
0.0212198458611965
0.0234658923000097
0.0254319179803133
0.0271023623645305
0.0284701753407716
0.0295362416654825
0.0303080435842275
0.0307971164584159
0.0310176294296979
0.0309855807572603
0.0307144839316606
0.0302056968212127
0.0294334832578897
0.0283263232558965
0.0267554707825183
0.0245461501181125
0.0215140283107757
0.0175159499049186
0.0124995568767189
0.0065370239317417
-0.000167311169207
-0.0072965691797435
-0.014460907317698
-0.0212472435086965
-0.0272709727287292
-0.0322212688624858
-0.0358904339373111
-0.0381833091378212
-0.0391114726662635
-0.0387782603502273
-0.0373579412698745
-0.0350715890526771
-0.0321622043848037
-0.028871651738882
-0.0254210997372865
-0.0219952724874019
-0.0187310148030519
-0.015711884945631
-0.0129696186631917
-0.0104906763881444
-0.0082266563549637
-0.0061090970411896
-0.0040665650740265
-0.0020392329897731
1.1244788765907288e-05
0.0020965621806681
0.0042021190747618
0.0062937829643487
0.0083280056715011
0.0102591998875141
0.0120430458337068
0.0136404680088162
0.0150253316387534
0.0161913651973009
0.0171514209359884
0.0179307591170072
0.0185615271329879
0.0190791226923465
0.0195179916918277
0.0199089273810386
0.0202787350863218
0.0206484794616699
0.0210300721228122
0.0214254781603813
0.0218286421149969
0.0222268775105476
0.0226008165627717
0.0229198392480611
0.0231257919222116
0.0231088194996118
0.0226956773549318
0.0216662045568227
0.0197945740073919
0.0169019065797328
0.0129054188728332
0.0078496215865015
0.0019113589078187
-0.0046193599700927
-0.0113752773031592
-0.0179577227681875
-0.0239863358438015
-0.0291442554444074
-0.0332090184092521
-0.0360642336308956
-0.0376956537365913
-0.0381777137517929
-0.0376533642411232
-0.0363099016249179
-0.0343543104827404
-0.0319912135601043
-0.0294060707092285
-0.0267536137253046
-0.0241496711969375
-0.0216661393642425
-0.0193299259990453
-0.0171273350715637
-0.0150146409869194
-0.0129317473620176
-0.010815929621458
-0.0086151761934161
-0.0062988921999931
-0.0038624610751867
-0.0013249926269054
0.0012770919129252
0.0038967579603195
0.0064811529591679
0.0089757703244686
0.0113290678709745
0.0134970005601644
0.0154464216902852
0.0171557925641536
0.0186135470867156
0.0198172070086002
0.0207748580724
0.0215062350034713
0.022040082141757
0.0224091429263353
0.022646615281701
0.0227858833968639
0.0228609256446361
0.0229033958166837
0.0229397099465131
0.0229913182556629
0.023071376606822
0.0231745671480894
0.0232632607221603
0.0232509821653366
0.0229907538741827
0.0222824271768331
0.0209028646349906
0.0186502784490585
0.0153916040435433
0.0111015187576413
0.0058826371096074
-3.771798219531775e-05
-0.0063334619626402
-0.0126241091638803
-0.0185278300195932
-0.023710748180747
-0.0279232915490865
-0.0310191269963979
-0.0329565703868866
-0.033786341547966
-0.0336313918232917
-0.032663956284523
-0.0310839358717203
-0.029100202023983
-0.0269119814038276
-0.0246891528367996
-0.0225571002811193
-0.0205906871706247
-0.0188149996101856
-0.0172093324363231
-0.0157145150005817
-0.0142456572502851
-0.012709567323327
-0.0110221039503812
-0.0091205090284347
-0.0069691725075244
-0.0045616524294018
-0.0019208760932087
0.0009042145684361
0.0038464544340968
0.00683035235852
0.0097801983356475
0.0126249156892299
0.0153022743761539
0.0177633911371231
0.0199742503464221
0.0219130646437406
0.0235665589570999
0.0249288901686668
0.0260030720382928
0.0268003437668085
0.0273371618241071
0.0276352129876613
0.0277238376438617
0.0276391245424747
0.0274177342653274
0.0270852595567703
0.0266380403190851
0.0260215885937213
0.0251154266297817
0.023736722767353
0.0216699354350566
0.0187168251723051
0.0147505328059196
0.0097575224936008
0.0038577327504754
-0.0026996727101504
-0.0095636760815978
-0.0163278728723526
-0.0225864071398973
-0.0279865376651287
-0.0322659015655517
-0.0352685935795307
-0.0369452908635139
-0.0373446904122829
-0.0365970954298973
-0.0348908863961696
-0.0324470773339271
-0.0294968578964471
-0.0262631699442863
-0.0229439437389373
-0.0196958519518375
-0.0166227407753467
-0.0137730035930871
-0.0111448243260383
-0.0086955362930893
-0.0063541028648614
-0.0040381764993071
-0.0016736611723899
0.0007902719080448
0.003375094383955
0.0060734609141945
0.0088523281738162
0.0116573814302682
0.0144198294728994
0.0170641988515853
0.0195149891078472
0.021704277023673
0.0235801115632057
0.0251111723482608
0.0262863188982009
0.0271117128431797
0.0276088304817676
0.0278134811669588
0.0277729742228984
0.0275409910827875
0.0271720476448535
0.0267164316028356
0.0262158643454313
0.0257009770721197
0.0251907873898744
0.0246899463236331
0.024175364524126
0.023570442572236
0.0227237232029438
0.0214138515293598
0.0193841904401779
0.0163962747901678
0.0122891683131456
0.0070302220992743
0.0007432983256876
-0.006294447928667
-0.0136867146939039
-0.0209729745984077
-0.027691513299942
-0.0334389619529247
-0.0379156097769737
-0.0409507453441619
-0.0425080098211765
-0.0426727533340454
-0.041626501828432
-0.0396160334348678
-0.0369218215346336
-0.0338271893560886
-0.0305911265313625
-0.02742918767035
-0.0245018266141414
-0.0219061262905597
-0.019672118127346
-0.0177673175930976
-0.016109675168991
-0.014586872421205
-0.0130766909569501
-0.0114646535366773
-0.0096595576032996
-0.007604332640767
-0.0052803307771682
-0.0027074133977293
6.091967225074768e-05
0.0029485626146197
0.0058703017421066
0.0087424451485276
0.0114879859611392
0.014038591645658
0.0163379348814487
0.0183471553027629
0.0200489312410354
0.0214478597044944
0.0225678719580173
0.023446712642908
0.0241273399442434
0.0246487855911254
0.0250358488410711
0.0252801738679409
0.0253123100847005
0.0249827988445758
0.0240726433694362
0.0223348680883646
0.019553355872631
0.0156022291630506
0.0104913590475916
0.0043881055898964
-0.0023899690713733
-0.0094122719019651
-0.0161956083029508
-0.0222729817032814
-0.0272536892443895
-0.030862808227539
-0.032957836985588
-0.0335275419056415
-0.0326779298484325
-0.0306089557707309
-0.0275852438062429
-0.0239037405699491
-0.0198628604412078
-0.0157365631312131
-0.0117533188313245
-0.0080804480239748
-0.0048147980123758
-0.0019804313778877
0.0004642596468329
0.0026093628257513
0.0045708557590842
0.0064685586839914
0.0084075294435024
0.0104642249643802
0.01267921179533
0.0150567423552274
0.0175690483301877
0.0201627798378467
0.0227674171328544
0.0253065638244152
0.0277089606970548
0.0299149490892887
0.0318794548511505
0.0335743874311447
0.0349902510643005
0.036134161055088
0.0370232202112674
0.0376752130687236
0.0380940102040767
0.0382457561790943
0.0380345173180103
0.0372943580150604
0.0358077846467494
0.0333483219146728
0.0297372080385684
0.0248995143920183
0.0189036726951599
0.0119728790596127
0.0044645313173532
-0.0031780805438756
-0.0104893520474433
-0.0170442275702953
-0.0225077979266643
-0.0266642645001411
-0.0294229984283447
-0.0308062322437763
-0.0309279169887304
-0.029971707612276
-0.0281703658401966
-0.0257840510457754
-0.0230749957263469
-0.0202813446521759
-0.017597148194909
-0.0151613429188728
-0.0130523759871721
-0.0112873399630188
-0.0098286205902695
-0.0085984906181693
-0.0074981902725994
-0.0064261108636856
-0.0052916705608367
-0.004026741720736
-0.0025952542200684
-0.0009961323812603
0.0007426077499985
0.002573256380856
0.0044358232989907
0.0062636155635118
0.0079898359254002
0.0095565300434827
0.0109226312488317
0.0120663400739431
0.0129824914038181
0.0136785022914409
0.0141699463129043
0.0144770760089159
0.014623487368226
0.0146341137588024
0.01452855207026
0.0143051836639642
0.013913307338953
0.0132246017456054
0.0120271630585193
0.0100552476942539
0.007048001512885
0.002818027511239
-0.0026909187436103
-0.009370720013976
-0.016946816816926
-0.025009611621499
-0.033071894198656
-0.0406354442238807
-0.0472525879740715
-0.0525744259357452
-0.05637913569808
-0.0585776828229427
-0.059200994670391
-0.0583784878253936
-0.05631610378623
-0.0532725788652896
-0.0495312288403511
-0.0453711971640586
-0.0410426706075668
-0.0367481335997581
-0.0326307415962219
-0.0287699215114116
-0.025184441357851
-0.0218424201011657
-0.0186766795814037
-0.0156026352196931
-0.0125353010371327
-0.0094038126990199
-0.0061629707925021
-0.0027992927934974
0.0006706709973514
0.0042072050273418
0.0077550965361297
0.0112512670457363
0.0146321579813957
0.017839353531599
0.0208241082727909
0.0235507916659116
0.0259973872452974
0.0281535759568214
0.0300181489437818
0.0315974652767181
0.032906349748373
0.0339684784412384
0.0348114371299743
0.0354569107294082
0.0359071306884288
0.0361245907843112
0.0360080748796463
0.0353804305195808
0.0340043455362319
0.0316289141774177
0.0280545093119144
0.0231945943087339
0.0171156581491231
0.0100476713851094
0.002363980282098
-0.0054675173014402
-0.0129509400576353
-0.0196290798485279
-0.0251361802220344
-0.0292299576103687
-0.0318021774291992
-0.0328713990747928
-0.0325632393360137
-0.0310836341232061
-0.0286888517439365
-0.025655223056674
-0.0222515612840652
-0.0187159553170204
-0.0152393449097871
-0.011958509683609
-0.008955180644989
-0.0062561286613345
-0.0038362527266144
-0.0016297828406095
0.0004514763131737
0.0024989233352243
0.0045916000381112
0.0067855333909392
0.0091072367504239
0.0115516120567917
0.0140854604542255
0.0166553482413291
0.0191960446536541
0.0216379929333925
0.023915447294712
0.0259741879999637
0.0277751088142395
0.0292941480875015
0.0305218994617462
0.0314634069800376
0.032136496156454
0.0325679890811443
0.0327887125313282
0.0328291952610015
0.0327179245650768
0.0324811860918998
0.0321387834846973
0.0316892713308334
0.0310851018875837
0.0302087012678384
0.0288665555417537
0.0268122851848602
0.0237963907420635
0.0196303911507129
0.0142464051023125
0.0077327154576778
0.0003362651914358
-0.0075659262947738
-0.0155186727643013
-0.0230515412986278
-0.0297390408813953
-0.0352480560541152
-0.0393665619194507
-0.0420107170939445
-0.0432136915624141
-0.043105237185955
-0.0418887995183467
-0.0398167669773101
-0.0371631421148777
-0.0341953225433826
-0.0311486106365919
-0.0282075274735689
-0.0254955776035785
-0.0230722613632679
-0.0209367368370294
-0.0190378800034523
-0.0172897204756736
-0.0155911901965737
-0.0138466674834489
-0.0119811045005917
-0.0099470019340515
-0.007726652547717
-0.0053323227912187
-0.0028029116801917
-0.0001969512086361
0.0024153697304427
0.0049603367224335
0.0073705427348613
0.0095947328954935
0.0116024194285273
0.0133816786110401
0.014933954924345
0.0162704810500144
0.0174102559685707
0.0183763802051544
0.0191923975944519
0.0198810175061225
0.0204594079405069
0.0209236312657594
0.021224083378911
0.0212446097284555
0.0208002794533967
0.019660921767354
0.0175977908074855
0.0144431758671998
0.0101458933204412
0.0048042358830571
-0.0013336068950593
-0.007900052703917
-0.0144606670364737
-0.0205751694738864
-0.0258521772921085
-0.0299892276525497
-0.0327963531017303
-0.0342044010758399
-0.0342592187225818
-0.0331030189990997
-0.0309486929327249
-0.0280532147735357
-0.0246898923069238
-0.021118875592947
-0.0175610966980457
-0.0141817592084407
-0.0110837947577238
-0.0083073917776346
-0.0058337682858109
-0.0035951556637883
-0.0014914888888597
0.0005891118198633
0.002750240266323
0.0050710663199424
0.0075952252373099
0.0103251151740551
0.013223267160356
0.016221011057496
0.0192317180335521
0.0221635960042476
0.0249283630400896
0.0274478625506162
0.0296612698584795
0.0315302312374115
0.0330394357442855
0.0341927371919155
0.0350039787590503
0.0354808084666729
0.0356008969247341
0.0352880135178566
0.03440398350358
0.0327670089900493
0.0301939565688371
0.0265545956790447
0.021819744259119
0.0160895176231861
0.0095974951982498
0.002690564841032
-0.0042132912203669
-0.0106810349971055
-0.0163212623447179
-0.0208286587148904
-0.024009259417653
-0.0257868375629186
-0.026194978505373
-0.0253598485141992
-0.0234784819185733
-0.0207961220294237
-0.017582431435585
-0.014105575159192
-0.0106068318709731
-0.0072798607870936
-0.0042579537257552
-0.0016118739731609
0.0006439694552682
0.0025431718677282
0.004157749004662
0.005583441350609
0.0069211334921419
0.0082601606845855
0.0096654957160353
0.0111685749143362
0.0127640729770064
0.0144138028845191
0.0160559434443712
0.0176177006214857
0.0190277155488729
0.0202247090637683
0.0211636237800121
0.0218200571835041
0.0221906192600727
0.0222895070910453
0.0221436284482479
0.0217861887067556
0.0212467778474092
0.0205336641520261
0.0196064133197069
0.0183513779193162
0.0165811516344547
0.0140672456473112
0.010596863925457
0.0060358960181474
0.0003797654062509
-0.0062241265550255
-0.0134885935112833
-0.0210251864045858
-0.0283962097018957
-0.0351708345115184
-0.040977343916893
-0.0455423220992088
-0.0487103834748268
-0.0504443794488906
-0.0508111789822578
-0.0499611645936965
-0.0481057465076446
-0.0454925447702407
-0.0423793047666549
-0.0390093252062797
-0.0355906225740909
-0.0322807058691978
-0.0291784778237342
-0.0263237133622169
-0.0237030237913131
-0.0212608277797698
-0.0189146939665079
-0.0165736842900514
-0.0141551420092582
-0.0115955285727977
-0.0088566001504659
-0.0059293787926435
-0.0028351782821118
0.000377429270884
0.0036402381956577
0.0068759466521441
0.0100079141557216
0.0129671730101108
0.0156965740025043
0.0181534960865974
0.0203128699213266
0.0221689473837614
0.0237328466027975
0.0250271577388048
0.026082219555974
0.0269330162554979
0.0276082921773195
0.0281076878309249
0.0283745117485523
0.0282764509320259
0.0276060495525598
0.0261102840304374
0.0235468912869691
0.0197508111596107
0.0146898757666349
0.0084938984364271
0.0014500925317406
-0.0060329581610858
-0.0134822893887758
-0.0204237885773181
-0.0264393389225006
-0.0312101356685161
-0.0345419496297836
-0.0363712981343269
-0.0367550291121006
-0.0358481220901012
-0.0338750481605529
-0.0310991890728473
-0.0277939215302467
-0.0242180116474628
-0.0205954574048519
-0.0170989893376827
-0.0138391349464654
-0.0108629502356052
-0.0081630907952785
-0.0056909024715423
-0.0033688275143504
-0.0011056344956159
0.0011843834072351
0.0035659382119774
0.0060759610496461
0.0087218657135963
0.0114823561161756
0.0143127245828509
0.0171534419059753
0.019937414675951
0.0225950982421636
0.0250611677765846
0.0272833872586488
0.0292293056845664
0.0308879651129245
0.03226750344038
0.0333903655409812
0.0342874974012374
0.0349919684231281
0.035533208400011
0.0359342955052852
0.0362113043665885
0.0363703668117523
0.0363978073000907
0.0362403616309165
0.0357811786234378
0.0348291918635368
0.0331373289227485
0.0304492525756359
0.0265605598688125
0.0213763248175382
0.0149501115083694
0.0074951834976673
-0.0006357105448842
-0.0089974766597151
-0.0171134788542985
-0.0245352163910865
-0.03089165315032
-0.0359223671257495
-0.0394911244511604
-0.0415816195309162
-0.0422811545431613
-0.0417590327560901
-0.0402433052659034
-0.0379944369196891
-0.0352757424116134
-0.0323261320590972
-0.0293396189808845
-0.0264533385634422
-0.0237444452941417
-0.0212331935763359
-0.0188918001949787
-0.016660401597619
-0.0144654493778944
-0.0122354142367839
-0.0099129350855946
-0.0074625900015234
-0.0048750694841146
-0.0021693543531
0.0006093084812164
0.0033971578814089
0.0061226515099406
0.0087163941934704
0.0111178420484066
0.0132786035537719
0.0151634886860847
0.0167504660785198
0.0180309154093265
0.0190103705972433
0.0197075996547937
0.0201516095548868
0.0203789845108985
0.020432349294424
0.0203567761927843
0.0201869327574968
0.0199213679879903
0.0194942262023687
0.0187636893242597
0.0175280515104532
0.0155653562396764
0.0126861473545432
0.0087878704071044
0.0038959188386797
-0.0018215409945696
-0.0080674905329942
-0.0144542623311281
-0.0205581746995449
-0.0259776152670383
-0.0303811058402061
-0.0335384756326675
-0.0353340581059455
-0.0357646755874156
-0.0349280647933483
-0.0330061614513397
-0.0302437786012887
-0.0269210916012525
-0.023320410400629
-0.0196939073503017
-0.0162409730255603
-0.0130963921546936
-0.0103252362459898
-0.0079255737364292
-0.0058416798710823
-0.0039831893518567
-0.0022433325648307
-0.0005148462951183
0.0012947171926498
0.0032497597858309
0.0053798593580722
0.0076807243749499
0.0101194707676768
0.0126406550407409
0.0151733132079243
0.0176408011466264
0.0199717339128255
0.0221086125820875
0.0240130089223384
0.0256669837981462
0.0270703472197055
0.0282357260584831
0.0291845276951789
0.0299402344971895
0.0305100046098232
0.0308549255132675
0.0308655481785535
0.0303625147789716
0.029127849265933
0.0269570816308259
0.0237166471779346
0.0193908773362636
0.014104887843132
0.0081176748499274
0.0017903472762554
-0.0044619962573051
-0.010226166807115
-0.0151437725871801
-0.0189497601240873
-0.021490154787898
-0.0227228160947561
-0.0227092988789081
-0.0215996131300926
-0.0196099486202001
-0.0169951487332582
-0.0140181826427578
-0.0109225669875741
-0.0079124784097075
-0.0051391124725341
-0.0026928535662591
-0.0006036538397893
0.0011508134193718
0.0026320912875235
0.0039256531745195
0.0051250392571091
0.0063164853490889
0.0075672725215554
0.0089201014488935
0.010390824638307
0.0119674494490027
0.0136130973696708
0.0152741093188524
0.016889439895749
0.0183989144861698
0.0197498314082622
0.0209007132798433
0.0218238774687051
0.0225078128278255
0.0229566376656293
0.0231853872537612
0.0232083573937416
0.023015059530735
0.0225397162139415
0.0216448679566383
0.0201349481940269
0.0177969187498092
0.0144535843282938
0.0100154820829629
0.0045197531580924
-0.0018549971282482
-0.0088039673864841
-0.0159370116889476
-0.0228336974978446
-0.0290993861854076
-0.0344098359346389
-0.0385376997292041
-0.0413619503378868
-0.0428654327988624
-0.0431252233684062
-0.0422966927289962
-0.0405904352664947
-0.0382453240454196
-0.0355036593973636
-0.0325888395309448
-0.029685016721487
-0.0269231423735618
-0.0243762955069541
-0.0220624804496765
-0.0199531428515911
-0.0179869271814823
-0.0160847529768943
-0.0141617748886346
-0.0121382586658
-0.0099516883492469
-0.0075669409707188
-0.0049809883348643
-0.0022214516066014
0.0006587987300008
0.0035885479301214
0.0064867828041315
0.0092726349830627
0.0118742892518639
0.0142347030341625
0.0163140762597322
0.0180904641747474
0.0195581428706645
0.0207235850393772
0.0216023158282041
0.0222179107367992
0.0226004607975482
0.0227835439145565
0.0228008534759283
0.0226820614188909
0.0224454086273908
0.0220811497420072
0.0215237755328416
0.0206290446221828
0.0191799402236938
0.0169262811541557
0.0136424992233514
0.0091879740357398
0.0035576215013861
-0.0030918223783373
-0.010449981316924
-0.0180935822427272
-0.0255464985966682
-0.0323422364890575
-0.0380795672535896
-0.0424672700464725
-0.0453477650880813
-0.0466932207345962
-0.0465850718319416
-0.0451906882226467
-0.0427398793399333
-0.0394999161362648
-0.0357496179640293
-0.0317544601857662
-0.0277443025261163
-0.0238948613405227
-0.0203160010278224
-0.0170497652143239
-0.0140780769288539
-0.0113379564136266
-0.0087394993752241
-0.0061828875914216
-0.0035748668015003
-0.000844276510179
0.0020461389794945
0.0050956616178154
0.0082705337554216
0.0115125076845288
0.0147463353350758
0.0178880020976066
0.0208554491400718
0.0235785394906997
0.026005495339632
0.0281071849167346
0.0298785343766212
0.031334888190031
0.0325066819787025
0.033435758203268
0.0341702401638031
0.0347559414803981
0.0352283492684364
0.0356096923351287
0.0359105244278907
0.0361308716237545
0.0362571515142917
0.0362529121339321
0.0360400825738906
0.035476267337799
0.0343477688729763
0.0323936305940151
0.0293564796447753
0.025044435635209
0.0193880107253789
0.0124771343544125
0.0045678783208131
-0.0039422321133315
-0.0125644728541374
-0.0207847207784652
-0.0281303487718105
-0.0342233665287494
-0.0388122014701366
-0.0417833812534809
-0.0431568510830402
-0.0430668294429779
-0.0417325794696807
-0.0394262932240963
-0.0364420972764492
-0.0330670252442359
-0.0295548513531684
-0.0261042639613151
-0.0228439476341009
-0.0198287516832351
-0.0170490052551031
-0.0144475987181067
-0.0119372298941016
-0.0094186151400208
-0.0068014739081263
-0.0040221232920885
-0.0010530110448598
0.0020945994183421
0.0053736167028546
0.0087090767920017
0.0120100658386945
0.0151831824332475
0.0181432142853736
0.0208201892673969
0.0231635719537735
0.0251425728201866
0.0267452411353588
0.0279798805713653
0.0288751907646656
0.0294740833342075
0.0298233814537525
0.0299658253788948
0.0299369171261787
0.0297649633139371
0.0294728055596351
0.0290799234062433
0.028601674363017
0.0280410088598728
0.0273689962923526
0.0264985058456659
0.0252665225416421
0.0234418921172618
0.0207629669457674
0.0169956237077713
0.0119977463036775
0.0057744365185499
-0.0014949147589504
-0.0094676604494452
-0.0176811814308166
-0.0256166514009237
-0.0327708460390567
-0.0387211591005325
-0.043170291930437
-0.0459654293954372
-0.0470961965620517
-0.0466792695224285
-0.0449346825480461
-0.0421547293663024
-0.0386666730046272
-0.0347950719296932
-0.0308303963392972
-0.0270067229866981
-0.0234881397336721
-0.0203624330461025
-0.0176432114094495
-0.0152824688702821
-0.013190085068345
-0.0112535338848829
-0.0093552013859152
-0.0073890900239348
-0.0052763279527425
-0.0029753698036074
-0.0004842244088649
0.0021644458174705
0.0049122963100671
0.0076852962374687
0.010403093881905
0.0129876788705587
0.0153706232085824
0.017498105764389
0.0193351805210113
0.0208691973239183
0.0221100188791751
0.023086454719305
0.02384003251791
0.024418219923973
0.0248701516538858
0.0252443980425596
0.0255838092416524
0.0259153600782156
0.0262377895414829
0.0265069585293531
0.026616808027029
0.0263848602771759
0.0255600307136774
0.0238606929779052
0.0210343673825263
0.0169225316494703
0.0115121454000473
0.0049581886269152
-0.0024274727329611
-0.0102158784866333
-0.0179199650883674
-0.0250587314367294
-0.0312132705003023
-0.036067958921194
-0.0394350029528141
-0.0412605218589305
-0.0416123867034912
-0.0406578481197357
-0.0386380106210708
-0.035837784409523
-0.0325529240071773
-0.0290605835616588
-0.0255951788276433
-0.0223297048360109
-0.0193639621138572
-0.0167222395539283
-0.0143633764237165
-0.0121999057009816
-0.0101184099912643
-0.0079980818554759
-0.0057295793667435
-0.003233672119677
-0.0004739062860608
0.00254079233855
0.0057608261704444
0.0091036949306726
0.0124646462500095
0.015731057152152
0.0187973417341709
0.0215755999088287
0.024000734090805
0.0260326415300369
0.0276578664779663
0.0288895461708307
0.0297628790140151
0.030326209962368
0.0306299217045307
0.0307113621383905
0.0305701438337564
0.0301381684839725
0.0292644463479518
0.0277314241975545
0.0253004226833581
0.0217721555382013
0.0170480050146579
0.0111775482073426
0.0043767979368567
-0.0029907084535807
-0.0104638915508985
-0.0175491273403167
-0.0237834304571151
-0.0287858638912439
-0.0322926491498947
-0.0341738276183605
-0.0344339571893215
-0.0332010276615619
-0.0307047441601753
-0.0272449664771556
-0.0231548938900232
-0.0187653675675392
-0.0143737848848104
-0.0102176452055573
-0.0064556272700428
-0.003161596134305
-0.000331868417561
0.0020991070196032
0.004238904453814
0.0062155043706297
0.0081561896950006
0.0101693263277411
0.0123311728239059
0.0146794458851218
0.0172124654054641
0.0198914371430873
0.0226474739611148
0.0253948234021663
0.0280464403331279
0.0305253956466913
0.0327688530087471
0.0347281955182552
0.0363703817129135
0.0376806333661079
0.0386619232594966
0.039325974881649
0.0396738499402999
0.0396687239408493
0.0392096601426601
0.0381212159991264
0.0361713543534278
0.0331186428666114
0.0287765748798847
0.0230763331055641
0.0161101557314395
0.0081425057724118
-0.0004146331921219
-0.0090566119179129
-0.0172572676092386
-0.0245383437722921
-0.0305241383612155
-0.0349750518798828
-0.0377986952662467
-0.0390416085720062
-0.0388657376170158
-0.0375162772834301
-0.0352883636951446
-0.0324956364929676
-0.0294407736510038
-0.0263891629874706
-0.0235487688332796
-0.0210589841008186
-0.0189868230372667
-0.0173279792070388
-0.0160155240446329
-0.014938835054636
-0.013966835103929
-0.0129683203995227
-0.0118290390819311
-0.0104652792215347
-0.0088310791179537
-0.0069198459386825
-0.0047635710798203
-0.0024284166283905
-3.375113010406494e-06
0.0024151494726538
0.004736129194498
0.0068823127076029
0.0087960241362452
0.0104438923299312
0.0118213100358843
0.0129524236544966
0.0138801727443933
0.0146512510254979
0.0153052909299731
0.015865858644247
0.0163223706185817
0.0166021715849638
0.016548067331314
0.0159210432320833
0.014437137171626
0.0118309091776609
0.0079273767769336
0.0027018263936042
-0.0036906516179442
-0.0109256235882639
-0.0185544751584529
-0.0260685533285141
-0.0329675711691379
-0.0388214774429798
-0.0433164313435554
-0.04627675563097
-0.0476619601249694
-0.0475489906966686
-0.0461098290979862
-0.0435854792594909
-0.0402562618255615
-0.0364116057753562
-0.0323219038546085
-0.028215579688549
-0.0242652278393507
-0.020582728087902
-0.0172194186598062
-0.014169530943036
-0.0113794039934873
-0.0087650250643491
-0.0062338542193174
-0.0037016728892922
-0.0011009364388883
0.0016146092675626
0.0044650910422205
0.0074403067119419
0.0104997036978602
0.0135794440284371
0.0166044328361749
0.0194993037730455
0.0221953466534614
0.0246356800198555
0.026780892163515
0.0286123976111412
0.0301314946264028
0.0313570722937583
0.03232267126441
0.0330709144473075
0.0336473025381565
0.0340954288840293
0.0344517156481742
0.0347377359867095
0.0349459275603294
0.0350157991051673
0.0348108261823654
0.034113485366106
0.0326497592031955
0.0301424488425254
0.026380430907011
0.0212836228311061
0.0149429310113191
0.0076231509447097
-0.0002701645717024
-0.0082496143877506
-0.0158147551119327
-0.0225158371031284
-0.0280028022825717
-0.0320538617670536
-0.0345819815993309
-0.0356234945356845
-0.0353173203766346
-0.0338803716003894
-0.0315792299807071
-0.0286988895386457
-0.0255121123045682
-0.0222534015774726
-0.0191015917807817
-0.0161716528236866
-0.0135135725140571
-0.0111180199310183
-0.0089295031502842
-0.0068652154877781
-0.0048351446166634
-0.0027592878323048
-0.0005801944062113
0.0017297945450991
0.0041674524545669
0.0067029558122158
0.0092863887548446
0.0118545601144433
0.0143392663449049
0.0166767742484807
0.018815154209733
0.0207166299223899
0.0223568528890609
0.0237247105687856
0.0248218216001987
0.0256607215851545
0.0262631010264158
0.0266569014638662
0.0268723666667938
0.02693922072649
0.0268839132040739
0.0267264526337385
0.0264790095388889
0.0261461939662694
0.0257231704890728
0.0251843594014644
0.0244594737887382
0.0234096534550189
0.0218258425593376
0.0194581188261508
0.0160670280456542
0.0114839412271976
0.0056656580418348
-0.0012736450880765
-0.0090622156858444
-0.017299810424447
-0.0255092773586511
-0.0332005023956298
-0.0399322472512722
-0.0453606247901916
-0.0492681004106998
-0.0515705794095993
-0.052307266741991
-0.0516213104128837
-0.0497350469231605
-0.0469199866056442
-0.0434644185006618
-0.0396444126963615
-0.0357017293572425
-0.0318287499248981
-0.0281587317585945
-0.0247607976198196
-0.0216428227722644
-0.0187626685947179
-0.016044121235609
-0.0133960228413343
-0.0107317632064223
-0.0079831657931208
-0.005108181387186
-0.0020961561240255
0.0010301056317985
0.0042174817062914
0.0073906844481825
0.0104654617607593
0.0133626256138086
0.0160168744623661
0.0183805916458368
0.020425409078598
0.0221417769789695
0.0235365498811006
0.0246297009289264
0.0254512820392847
0.0260386541485786
0.0264334566891193
0.0266790930181741
0.0268184263259172
0.0268900394439697
0.0269237048923969
0.026936687529087
0.0269305557012558
0.0268821455538272
0.0267225727438926
0.0263149607926607
0.0254521202296018
0.023882657289505
0.0213593523949384
0.0176996700465679
0.012842665426433
0.0068835671991109
7.646623998880386e-05
-0.0071949027478694
-0.0144714247435331
-0.0212836600840091
-0.0272127501666545
-0.0319366231560707
-0.0352569743990898
-0.0371084064245224
-0.0375500321388244
-0.0367413610219955
-0.0349106602370739
-0.0323230102658271
-0.0292513184249401
-0.0259521249681711
-0.0226464141160249
-0.0195041336119174
-0.0166333336383104
-0.014078521169722
-0.0118284309282898
-0.0098279267549514
-0.0079924035817384
-0.0062257014214992
-0.0044389590620994
-0.0025657736696302
-0.000570357311517
0.0015523040201514
0.0037820846773684
0.0060807620175182
0.0083981482312083
0.0106774885207414
0.0128603810444474
0.0148922279477119
0.0167277660220861
0.0183344762772321
0.0196942016482353
0.0208038985729217
0.0216744132339954
0.0223271250724792
0.0227894857525825
0.0230905693024396
0.023258151486516
0.0233172308653593
0.0232896488159894
0.0231952629983425
0.0230520833283662
0.0228708330541849
0.0226423069834709
0.0223192013800144
0.0217963829636573
0.0208996832370758
0.0193980354815721
0.0170458033680915
0.0136448992416262
0.0091047333553433
0.0034798868000507
-0.0030223978683352
-0.0100633455440402
-0.0172169264405965
-0.0240266527980566
-0.0300638489425182
-0.0349797569215297
-0.0385428294539451
-0.0406521894037723
-0.0413282737135887
-0.0406931824982166
-0.0389497056603431
-0.0363565385341644
-0.033197920769453
-0.0297527369111776
-0.0262675862759351
-0.0229362342506647
-0.019888125360012
-0.0171852521598339
-0.0148255983367562
-0.0127536104992032
-0.0108768204227089
-0.0090859495103359
-0.0072756982408463
-0.0053620999678969
-0.003292029723525
-0.0010455548763275
0.0013650869950652
0.0039005163125693
0.006503767799586
0.0091093946248292
0.0116501431912183
0.0140632083639502
0.0162954404950141
0.0183071177452802
0.0200745463371276
0.021589832380414
0.022858127951622
0.0238957628607749
0.0247296430170536
0.0253926217555999
0.0259111113846302
0.0262858048081398
0.0264684632420539
0.0263443198055028
0.025734256953001
0.0244238190352916
0.0222139060497283
0.0189764630049467
0.0146965477615594
0.0094933211803436
0.0036196690052747
-0.0025629687588661
-0.0086350599303841
-0.0141816800460219
-0.0188480224460363
-0.0223759319633245
-0.0246200393885374
-0.0255486741662025
-0.025234380736947
-0.0238350722938776
-0.021569475531578
-0.0186928268522024
-0.0154717257246375
-0.012156993150711
-0.0089600626379251
-0.00603539776057
-0.0034697027876973
-0.0012813312932848
0.0005703861825168
0.0021689641289412
0.0036211321130394
0.0050376704894006
0.0065160519443452
0.0081269172951579
0.0099077010527253
0.0118618048727512
0.0139605989679694
0.016149815171957
0.0183602049946784
0.0205178745090961
0.0225507207214832
0.0243920609354972
0.0259860102087259
0.0272950753569602
0.0283040292561054
0.0290176142007112
0.0294549409300088
0.0296421982347965
0.029601939022541
0.0293337255716323
0.0287869665771722
0.0278419833630323
0.0263156574219465
0.0239941757172346
0.0206860676407814
0.0162806138396263
0.0107929427176713
0.0043831821531057
-0.0026554008945822
-0.0099349347874522
-0.0170264225453138
-0.023516621440649
-0.029058925807476
-0.0334096327424049
-0.0364427603781223
-0.0381440930068492
-0.0385949648916721
-0.0379539057612419
-0.0364346653223037
-0.0342789031565189
-0.0317286774516105
-0.0290055945515632
-0.0262967273592948
-0.0237430911511182
-0.0214317366480827
-0.0193943567574024
-0.0176113229244947
-0.0160206500440835
-0.0145325511693954
-0.0130475247278809
-0.0114731974899768
-0.0097358636558055
-0.0077873934060335
-0.0056104259565472
-0.0032206322066485
-0.0006618265761062
0.0020048129372298
0.0047103469260036
0.0073832594789564
0.0099536022171378
0.0123596666380763
0.0145559981465339
0.0165178477764129
0.0182396415621042
0.0197295285761356
0.0210032910108566
0.0220804959535598
0.022982208058238
0.0237261299043893
0.0243166852742433
0.0247276909649372
0.0248784907162189
0.0246164053678512
0.0237215235829353
0.0219381339848041
0.019027192145586
0.014828604646027
0.0093161277472972
0.0026276623830199
-0.0049383691512048
-0.0129588171839714
-0.0209434814751148
-0.0284012705087661
-0.0349016189575195
-0.0401209630072116
-0.0438678637146949
-0.0460852980613708
-0.0468355230987072
-0.046276144683361
-0.044633649289608
-0.0421753041446208
-0.0391789823770523
-0.0359037667512893
-0.0325663723051548
-0.0293255783617496
-0.0262748189270496
