bvp
0.023539999499917
0.0234185364097356
0.0232317689806222
0.0229748021811246
0.022637790068984
0.0221996586769819
0.0216181259602308
0.0208226274698972
0.0197156574577093
0.0181844159960746
0.0161216165870428
0.0134511543437838
0.0101528018712997
0.0062781451269984
0.0019507622346282
-0.0026480676606297
-0.0073014828376472
-0.0117836184799671
-0.0158890970051288
-0.0194589644670486
-0.0223931670188903
-0.0246471054852008
-0.0262210853397846
-0.0271513815969228
-0.0275023523718118
-0.0273561477661132
-0.0268019959330558
-0.0259288288652896
-0.0248215030878782
-0.0235581770539283
-0.0222065411508083
-0.0208196491003036
-0.0194330010563135
-0.018062150105834
-0.0167021304368972
-0.0153325432911515
-0.0139273982495069
-0.0124645726755261
-0.010931184515357
-0.009324787184596
-0.007652903907001
-0.0059314961545169
-0.0041813771240413
-0.0024244184605777
-0.0006821672432124
0.0010242075659334
0.0026751281693577
0.0042548803612589
0.0057528326287865
0.0071619069203734
0.0084746032953262
0.0096801137551665
0.0107658095657825
0.0117214797064661
0.0125427637249231
0.0132306003943085
0.0137835117056965
0.0141810784116387
0.0143628036603331
0.0142163801938295
0.0135869644582271
0.0123040908947587
0.0102152125909924
0.0072145406156778
0.0032611144706606
-0.0016108956187963
-0.0072875693440437
-0.0135778347030282
-0.0202218368649482
-0.0269072130322456
-0.0333016216754913
-0.039099384099245
-0.0440637581050396
-0.0480487346649169
-0.0510020107030868
-0.0529626533389091
-0.0540578737854957
-0.0544888861477375
-0.054499115794897
-0.0543287135660648
-0.054164458066225
-0.0540980286896228
-0.054102074354887
-0.0540235042572021
-0.0535943284630775
-0.05246477201581
-0.0502539463341236
-0.0466076396405696
-0.0412556454539299
-0.0340603068470954
-0.0250454023480415
-0.0143931582570075
-0.0024036318063735
0.0105686783790588
0.0241787023842334
0.038141556084156
0.0522577986121177
0.0664043053984642
0.0804961398243904
0.0944308340549469
0.1080234199762344
0.1209552139043808
0.1327720731496811
0.1429391205310821
0.1509236544370651
0.156277522444725
0.1587038338184356
0.158101424574852
0.154587835073471
0.1485001444816589
0.1403672844171524
0.1308553516864776
0.1207033172249794
0.1106663718819618
0.1014721244573593
0.0937879309058189
0.0881829187273979
0.0850657522678375
0.0846117213368415
0.0867161303758621
0.0909965634346008
0.0968408435583114
0.1034849137067794
0.1101029217243194
0.1158889681100845
0.120112195611
0.122148796916008
0.1215146034955978
0.1179099380970001
0.1112609282135963
0.1017354726791381
0.0897247195243835
0.0757927075028419
0.0606002360582351
0.0448101088404655
0.0289866179227828
0.0135118663311004
-0.0014547631144523
-0.0159594565629959
-0.0301879048347473
-0.0443751662969589
-0.0587164685130119
-0.073299154639244
-0.0880686938762664
-0.1028307378292083
-0.1172862648963928
-0.1310986280441284
-0.1439791768789291
-0.155755802989006
-0.1663932353258133
-0.1759664118289947
-0.1846087723970413
-0.1924438029527664
-0.1995064914226532
-0.2056864202022552
-0.2107191234827041
-0.2142156660556793
-0.2157166898250579
-0.2147859632968902
-0.2111420184373855
-0.2047707438468933
-0.1959633976221084
-0.185283213853836
-0.1734947860240936
-0.1614775657653808
-0.1501311063766479
-0.1402829587459564
-0.1326128393411636
-0.1276009082794189
-0.12549689412117
-0.1262976974248886
-0.1297317147254943
-0.1352669894695282
-0.1421570926904678
-0.1495210528373718
-0.1564427763223648
-0.162071481347084
-0.1657060831785202
-0.1668551415205001
-0.1652690172195434
-0.1609388589859008
-0.1540618389844894
-0.1449865251779556
-0.1341532766819
-0.1220343634486198
-0.1090776473283767
-0.0956625416874885
-0.0820737034082412
-0.0684906169772148
-0.0549927875399589
-0.0415802747011184
-0.0282039269804954
-0.0147994831204414
-0.0013215243816375
0.0122293829917907
0.0257939174771308
0.0392590314149856
0.0524766966700553
0.0652883276343345
0.0775485783815383
0.089144267141819
0.1000052317976951
0.1101044565439224
0.1194497346878051
0.1280728578567505
0.1360204219818115
0.1433467119932174
0.150106742978096
0.1563486456871032
0.1621072143316269
0.1673983782529831
0.1722142845392227
0.1765206456184387
0.1802562326192855
0.183333471417427
0.1856425404548645
0.1870630979537964
0.1874837577342987
0.1868244856595993
0.1850553154945373
0.1822069436311721
0.1783721596002578
0.1736969202756881
0.1683637946844101
0.1625740379095077
0.1565301269292831
0.1504177302122116
0.1443902999162674
0.1385605037212371
0.1329992115497589
0.1277399808168411
0.1227857172489166
0.1181140094995498
0.1136817187070846
0.1094311773777008
0.105298675596714
0.1012243404984474
0.0971616804599762
0.093084879219532
0.0889927297830581
0.0849087387323379
0.0808765888214111
0.0769505873322486
0.0731836333870887
0.0696176141500473
0.0662769749760627
0.0631637275218963
0.0602552257478237
0.0575054101645946
0.0548499152064323
0.0522148832678794
0.0495251156389713
0.0467103347182273
0.0437110364437103
0.0404789075255394
0.0369684137403965
0.0331274345517158
0.0288957823067903
0.0242120139300823
0.0190255939960479
0.0133118480443954
0.0070858020335435
0.0004116334021091
-0.0065943952649831
-0.0137708522379398
-0.0209289193153381
-0.0278756842017173
-0.0344354920089244
-0.0404650531709194
-0.0458625517785549
-0.0505719408392906
-0.054581020027399
-0.057914163917303
-0.0606253333389759
-0.0627948939800262
-0.0645264312624931
-0.0659370422363281
-0.0671418085694313
-0.0682386383414268
-0.0692973509430885
-0.0703553855419159
-0.0714213997125625
-0.0724833160638809
-0.0735175833106041
-0.0744978412985801
-0.0753996893763542
-0.0762000456452369
-0.0768732652068138
-0.0773854106664657
-0.0776877775788307
-0.0777145698666572
-0.0773880779743194
-0.0766282230615615
-0.0753620415925979
-0.0735320970416069
-0.0711063519120216
-0.0680920779705047
-0.0645495280623436
-0.0605988875031471
-0.0564175844192504
-0.0522239468991756
-0.0482456907629966
-0.0446818657219409
-0.0416764467954635
-0.0393156148493289
-0.0376371815800666
-0.0366290360689163
-0.0362104214727878
-0.0362121611833572
-0.0363790914416313
-0.0364061705768108
-0.0359939746558666
-0.0348959974944591
-0.0329432226717472
-0.0300525911152362
-0.0262325517833232
-0.0215870626270771
-0.0163080543279647
-0.0106506645679473
-0.0048954933881759
0.0006942078471183
0.0059133023023605
0.0106450170278549
0.0148725509643554
0.0186628177762031
0.0221174955368042
0.0253093764185905
0.0282374545931816
0.0308200940489768
0.0329246222972869
0.0344185307621955
0.0352184176445007
0.0353173017501831
0.0347914546728134
0.0337960720062255
0.0325473397970199
0.0312858074903488
0.030225820839405
0.0295001491904258
0.02911027520895
0.0288969427347183
0.0285468846559524
0.0276405289769172
0.02572912722826
0.0224224850535392
0.0174675583839416
0.0107996985316276
0.0025568008422851
-0.0069429129362106
-0.0172520130872726
-0.0278606563806533
-0.038263089954853
-0.0480130538344383
-0.0567630603909492
-0.0642865151166915
-0.0704846903681755
-0.0753772407770156
-0.0790744200348854
-0.0817410722374916
-0.0835701450705528
-0.0847722515463829
-0.0855715870857238
-0.0861940532922744
-0.0868422016501426
-0.0876647606492042
-0.0887330919504165
-0.0900313109159469
-0.0914596617221832
-0.0928495377302169
-0.0939876735210418
-0.0946438089013099
-0.094596654176712
-0.0936563462018966
-0.0916818752884864
-0.0885941609740257
-0.084386795759201
-0.0791294127702713
-0.07295823097229
-0.0660577192902565
-0.058639470487833
-0.0509215146303176
-0.0431137830018997
-0.0354138985276222
-0.0280087944120168
-0.021074004471302
-0.014767775312066
-0.009223349392414
-0.0045414743945002
-0.0007807863876223
0.0020534787327051
0.0040172804147005
0.0052269585430622
0.0058488342911005
0.0060826521366834
0.0061420649290084
0.0062344372272491
0.0065425783395767
0.0072086527943611
0.008322212845087
0.0099168717861175
0.0119754485785961
0.0144387185573577
0.0172143019735813
0.0201878435909748
0.0232399515807628
0.0262646935880184
0.0291826296597719
0.0319467298686504
0.0345416665077209
0.0369763150811195
0.0392733961343765
0.041462168097496
0.043573822826147
0.0456363856792449
0.0476707033812999
0.049690656363964
0.051704928278923
0.0537159442901611
0.0557171776890754
0.0576919168233871
0.0596155598759651
0.0614605545997619
0.0631984397768974
0.0647961869835853
0.066210389137268
0.0673835426568985
0.0682453587651252
0.0687208622694015
0.0687432289123535
0.0682675391435623
0.0672824159264564
0.0658152773976326
0.0639297664165496
0.061719112098217
0.0592959932982921
0.056776974350214
0.0542662441730499
0.0518450997769832
0.0495677925646305
0.0474622882902622
0.0455347225069999
0.0437749363481998
0.0421599559485912
0.0406570620834827
0.0392289198935031
0.0378388017416
0.0364558026194572
0.0350623130798339
0.0336604416370391
0.0322718732059001
0.0309309102594852
0.0296748168766498
0.0285360664129257
0.0275384597480297
0.026696540415287
0.026016391813755
0.0254945326596498
0.0251145660877227
0.0248462818562984
0.0246500894427299
0.0244832672178745
0.0243035946041345
0.0240705832839012
0.0237476136535406
0.0233055744320154
0.0227245409041643
0.0219908878207206
0.0210909619927406
0.0200037695467472
0.0186953619122505
0.0171191077679395
0.0152233000844717
0.012963137589395
0.0103144040331244
0.0072854282334446
0.0039223581552505
0.0003056623099837
-0.0034594405442476
-0.0072551239281892
-0.010963013395667
-0.0144730079919099
-0.0176893528550863
-0.0205362364649772
-0.0229614302515983
-0.0249373652040958
-0.0264608450233936
-0.0275514163076877
-0.0282480120658874
-0.0286035165190696
-0.0286783501505851
-0.0285344459116458
-0.0282285511493682
-0.02780606970191
-0.0272989310324192
-0.0267272554337978
-0.0261020138859748
-0.0254272315651178
-0.0247017331421375
-0.0239217206835746
-0.0230852458626031
-0.0221965741366148
-0.0212669670581817
-0.0203125104308128
-0.0193528849631547
-0.0184113997966051
-0.01751359552145
-0.0166837964206933
-0.0159416105598211
-0.0152999926358461
-0.0147647699341177
-0.014335498213768
-0.0140071408823132
-0.0137706631794571
-0.0136120487004518
-0.0135119808837771
-0.0134489871561527
-0.0134047223255038
-0.0133667215704917
-0.0133284647017717
-0.0132888928055763
-0.0132505996152758
-0.0132161946967244
-0.0131835825741291
-0.0131422784179449
-0.0130734369158744
-0.0129536194726824
-0.0127602647989988
-0.0124760549515485
-0.01209057867527
-0.01160161010921
-0.0110194217413663
-0.0103732449933886
-0.0097158830612897
-0.0091235674917697
-0.0086894296109676
-0.0085103455930948
-0.0086698494851589
-0.009221663698554
-0.010178261436522
-0.0115077728405594
-0.0131391156464815
-0.0149716259911656
-0.016886331140995
-0.0187588594853878
-0.0204726383090019
-0.021928334608674
-0.0230501182377338
-0.0237926710397005
-0.0241451673209667
-0.024126935750246
-0.0237793549895286
-0.0231589470058679
-0.022330168634653
-0.0213582590222358
-0.0203034002333879
-0.0192142222076654
-0.0181219577789306
-0.0170387160032987
-0.0159589722752571
-0.0148630356416106
-0.0137228909879922
-0.0125081939622759
-0.0111910747364163
-0.0097508849576115
-0.0081783728674054
-0.0064784064888954
-0.0046704020351171
-0.0027838004752993
-0.0008498653769493
0.0011039720848202
0.003055078908801
0.0049847727641463
0.0068774223327636
0.0087190270423889
0.010494421236217
0.0121851228177547
0.0137718189507722
0.0152403181418776
0.0165840722620487
0.0178008489310741
0.0188889894634485
0.0198454335331916
0.0206637885421514
0.0213346965610981
0.021849401295185
0.0222023855894804
0.0223920810967683
0.0224221646785736
0.0223026406019926
0.0220490135252475
0.0216812174767255
0.021222710609436
0.0206974428147077
0.0201242882758378
0.0195101425051689
0.0188435520976781
0.0180919039994478
0.0172033123672008
0.016113594174385
0.014758382923901
0.0130879785865545
0.0110818883404135
0.008759387768805
0.0061832396313548
0.0034560998901724
0.000709218904376
-0.0019157193601131
-0.004287033341825
-0.0062988745048642
-0.0078778648748993
-0.0089828036725521
-0.0096039157360792
-0.0097631588578224
-0.0095121189951896
-0.0089265257120132
-0.0080980509519577
-0.0071232449263334
-0.0060919187963008
-0.0050789453089237
-0.0041400771588087
-0.0033092312514781
-0.0025968626141548
-0.0019916389137506
-0.0014657583087682
-0.0009820610284805
-0.0005009919404983
1.3414770364761353e-05
0.0005873795598745
0.0012317206710577
0.0019413065165281
0.0027004294097423
0.003488496877253
0.0042834365740418
0.0050656087696552
0.0058206114917993
0.0065377233549952
0.0072082802653312
0.0078273611143231
0.0083951437845826
0.008916025981307
0.0093981130048632
0.0098539069294929
0.010299514979124
0.0107511561363935
0.0112207625061273
0.0117120565846562
0.0122179137542843
0.0127188228070735
0.0131793497130274
0.0135423419997096
0.0137274339795112
0.0136394491419196
0.0131853930652141
0.0122949592769145
0.0109388465061783
0.0091400286182761
0.006976013071835
0.0045720217749476
0.0020848759450018
-0.0003206105902791
-0.0024959295988082
-0.0043263332918286
-0.0057395324110984
-0.0067067891359329
-0.0072374921292066
-0.0073712756857275
-0.0071712508797645
-0.0067161498591303
-0.0060896044597029
-0.0053703002631664
-0.004626047797501
-0.0039105047471821
-0.003261141013354
-0.0026976685039699
-0.002221061848104
-0.0018152501434087
-0.0014516850933432
-0.0010947943665087
-0.0007070461288094
-0.0002528773620724
0.0002979296259582
0.0009657796472311
0.0017559081315994
0.0026563671417534
0.0036423048004508
0.0046821758151054
0.0057409442961215
0.0067813452333211
0.0077670002356171
0.0086681367829442
0.0094655305147171
0.0101483799517154
0.0107083655893802
0.0111362738534808
0.0114214131608605
0.0115473521873354
0.011483147740364
0.0111769931390881
0.0105584757402539
0.0095504755154252
0.008086409419775
0.0061276680789887
0.0036777993664145
0.0007907217368483
-0.0024289060384035
-0.0058349748142063
-0.0092590954154729
-0.0125335939228534
-0.0155097525566816
-0.0180689543485641
-0.0201287791132926
-0.0216447748243808
-0.0226088669151067
-0.0230460055172443
-0.0230091214179992
-0.0225718170404434
-0.0218192040920257
-0.020838851109147
-0.01971285790205
-0.0185111016035079
-0.0172858964651823
-0.0160674583166837
-0.0148627636954188
-0.0136610493063926
-0.0124425236135721
-0.0111857261508703
-0.0098728947341442
-0.0084924707189202
-0.0070391413755714
-0.0055139870382845
-0.0039251516573131
-0.0022882509510964
-0.000626339809969
0.0010301963193342
0.0026443458627909
0.0041770543903112
0.0055951988324522
0.0068775564432144
0.0080164922401309
0.0090160928666591
0.0098880724981427
0.0106477243825793
0.01131122559309
0.0118931718170642
0.0124013982713222
0.0128269419074058
0.0131320292130112
0.013244348578155
0.0130637660622596
0.0124798268079757
0.0113944169133901
0.0097440527752041
0.0075173149816691
0.0047651515342295
0.0016015711007639
-0.0018078724388033
-0.0052681742236018
-0.0085819046944379
-0.0115736043080687
-0.014105387032032
-0.0160839650779962
-0.017462970688939
-0.0182418692857027
-0.0184598732739686
-0.018185457214713
-0.0175061821937561
-0.0165205709636211
-0.0153291122987866
-0.0140235526487231
-0.0126772373914718
-0.0113397501409053
-0.0100368708372116
-0.008774034678936
-0.007540653925389
-0.0063135772943496
-0.0050609493628144
-0.003749222960323
-0.0023514563217759
-0.000852114520967
0.000752056017518
0.0024522934108972
0.0042284517548978
0.0060506174340844
0.0078820530325174
0.0096841137856245
0.0114220511168241
0.0130674932152032
0.0145957833155989
0.0159827712923288
0.01720667257905
0.0182538405060768
0.0191224217414855
0.0198212079703807
0.0203647129237651
0.0207659676671028
0.0210281405597925
0.0211349967867136
0.0210430212318897
0.0206806566566228
0.0199560858309268
0.018772255629301
0.0170487761497497
0.0147455865517258
0.011879296042025
0.0085288891568779
0.0048313452862203
0.0009670728468336
-0.0028623659163713
-0.0064592603594064
-0.0096517894417047
-0.0123087679967284
-0.0143471416085958
-0.015733391046524
-0.0164794325828552
-0.0166367217898368
-0.0162898991256952
-0.0155458860099315
-0.0145192164927721
-0.0133197987452149
-0.0120440833270549
-0.0107665378600358
-0.0095332404598593
-0.0083614028990268
-0.0072441329248249
-0.0061574163846671
-0.0050670336931943
-0.0039356765337288
-0.0027312871534377
-0.0014344651717692
-4.2005209252238274e-05
0.0014337117318063
0.0029673790559172
0.0045236153528094
0.0060613136738538
0.0075390143319964
0.0089180972427129
0.0101637905463576
0.0112460283562541
0.0121420240029692
0.0128403566777706
0.0133432690054178
0.0136649571359157
0.0138274375349283
0.0138569958508014
0.0137811265885829
0.0136223724111914
0.0133883822709321
0.0130621427670121
0.0125960083678364
0.0119126569479703
0.0109157599508762
0.0095088817179203
0.0076183313503861
0.0052155330777168
0.0023322324268519
-0.0009368294849991
-0.0044427597895264
-0.0079993605613708
-0.0114053701981902
-0.0144699653610587
-0.0170365180820226
-0.0189973823726177
-0.0202991925179958
-0.0209421422332525
-0.0209737680852413
-0.0204788446426391
-0.0195675268769264
-0.0183621402829885
-0.0169831588864326
-0.0155353136360645
-0.014097174629569
-0.0127174714580178
-0.0114166531711816
-0.0101914871484041
-0.0090221147984266
-0.00787946395576
-0.006731241941452
-0.0055470382794737
-0.0043028998188674
-0.0029845722019672
-0.0015888358466327
-0.0001232150243595
0.0013956848997622
0.0029443486128002
0.0044939243234694
0.0060122669674456
0.0074675832875072
0.0088317357003688
0.0100818257778882
0.0112016452476382
0.0121825002133846
0.0130204809829592
0.0137085672467947
0.0142246112227439
0.0145221045240759
0.0145316263660788
0.0141730206087231
0.0133733954280614
0.0120866512879729
0.0103101227432489
0.0080928048118948
0.005532850511372
0.0027678213082253
-3.999518230557442e-05
-0.0027236321475356
-0.0051321438513696
-0.0071445303037762
-0.0086765186861157
-0.0096842870116233
-0.0101656820625066
-0.0101576270535588
-0.0097295846790075
-0.0089728459715843
-0.007987530902028
-0.0068724155426025
-0.0057184668257832
-0.0046020569279789
-0.0035779299214482
-0.0026756199076771
-0.0018998568411916
-0.0012335726059973
-0.0006441175937652
-9.197182953357697e-05
0.0004615099169313
0.0010489970445632
0.0016940589994192
0.0024080816656351
0.0031870589591562
0.0040127020329236
0.0048593613319098
0.0057010510936379
0.0065139262005686
0.0072750924155116
0.0079618962481617
0.0085553433746099
0.0090466421097517
0.0094417016953229
0.0097586829215288
0.0100174769759178
0.0102247660979628
0.010360712185502
0.0103730084374547
0.0101818051189184
0.0096949897706508
0.0088298888877034
0.0075349705293774
0.0058043599128723
0.0036830157041549
0.0012639947235584
-0.0013229819014668
-0.0039299498312175
-0.0064106937497854
-0.0086376927793025
-0.0105125717818737
-0.0119707426056265
-0.012983551248908
-0.013558373786509
-0.013735519722104
-0.0135812452062964
-0.0131773008033633
-0.0126088326796889
-0.0119527466595172
-0.0112694110721349
-0.0105995871126651
-0.0099653489887714
-0.009372528642416
-0.0088124945759773
-0.0082636196166276
-0.0076956516131758
-0.0070778373628854
-0.0063869906589388
-0.0056110927835106
-0.0047480817884206
-0.0038029842544347
-0.002785210032016
-0.0017063389532268
-0.0005796388722956
0.0005793026648461
0.0017532524652779
0.0029245726764202
0.0040752058848738
0.0051860148087143
0.0062374793924391
0.0072127091698348
0.0080992188304662
0.0088868858292698
0.00956616923213
0.0101292859762907
0.0105723533779382
0.0108973253518342
0.0111132813617587
0.0112353954464197
0.0112809929996728
0.0112637663260102
0.0111855268478393
0.0110253831371665
0.0107315387576818
0.0102218426764011
0.0093950033187866
0.0081508103758096
0.0064143538475036
0.0041577406227588
0.0014145774766802
-0.0017171977087855
-0.0050868690013885
-0.0085132354870438
-0.0118092820048332
-0.0148038789629936
-0.0173591151833534
-0.0193808395415544
-0.0208211801946163
-0.0216764062643051
-0.0219825729727745
-0.021807849407196
-0.0212412811815738
-0.0203807428479194
-0.0193226933479309
-0.0181537810713052
-0.0169443301856517
-0.0157447792589664
-0.0145850591361522
-0.0134756313636899
-0.0124089792370796
-0.01136264950037
-0.0103058526292443
-0.0092076491564512
-0.0080435862764716
-0.0068008434027433
-0.0054816291667521
-0.0041022421792149
-0.0026871981099247
-0.0012620944762602
0.0001506292901467
0.0015315492637455
0.0028620299417525
0.0041243992745876
0.0053046094253659
0.0063936505466699
0.007387304212898
0.0082859294489026
0.0090948669239878
0.0098247490823268
0.0104890270158648
0.0110981678590178
0.011655319482088
0.0121578825637698
0.0126029551029205
0.0129913482815027
0.0133274178951978
0.0136152897030115
0.0138549339026212
0.0140405697748065
0.0141585255041718
0.0141811650246381
0.0140599617734551
0.01372432988137
0.0130889974534511
0.0120680788531899
0.0105923451483249
0.008626339957118
0.0061823716387152
0.0033282754011452
0.0001858936157077
-0.0030823473352938
-0.0062966160476207
-0.0092835575342178
-0.0118939895182847
-0.0140145728364586
-0.0155750019475817
-0.0165508724749088
-0.0169621221721172
-0.0168673694133758
-0.016353877261281
-0.0155235882848501
-0.0144797628745436
-0.0133179649710655
-0.0121194934472441
-0.0109454672783613
-0.0098338695243
-0.0088010523468256
-0.0078447759151458
-0.0069465045817196
-0.0060748155228793
-0.0051914495415985
-0.0042587560601532
-0.0032466482371091
-0.0021379692479968
-0.0009314552880823
0.0003586434759199
0.0017059142701327
0.0030763186514377
0.0044321957975625
0.0057357000187039
0.0069536538794636
0.008062451146543
0.0090486202389001
0.0099068041890859
0.0106394262984395
0.0112566435709595
0.0117745008319616
0.0122117213904857
0.0125865396112203
0.0129160340875387
0.0132181234657764
0.0135123431682586
0.0138164069503545
0.0141409635543823
0.0144865894690155
0.014843382872641
0.0151920299977064
0.0155063103884458
0.0157563388347625
0.0159095618873834
0.0159266423434019
0.0157554801553487
0.0153293889015913
0.01457055285573
0.0133993532508611
0.0117494035512208
0.0095833083614707
0.0069066570140421
0.0037792972289025
0.0003170988638885
-0.0033208306413143
-0.0069545549340546
-0.0104062492027878
-0.013518956489861
-0.016170272603631
-0.0182799473404884
-0.0198123548179864
-0.0207759644836187
-0.0212183929979801
-0.0212160144001245
-0.0208616685122251
-0.0202532168477773
-0.0194829422980546
-0.0186284594237804
-0.0177461188286542
-0.0168671905994415
-0.015997851267457
-0.0151236020028591
-0.0142169008031487
-0.0132457194849848
-0.0121809635311365
-0.0110003165900707
-0.009688377380371
-0.0082380315288901
-0.0066543780267238
-0.0049565145745873
-0.0031756097450852
-0.0013504987582564
0.0004784576594829
0.0022746641188859
0.0040070465765893
0.0056495699100196
0.0071805785410106
0.0085823349654674
0.0098415669053792
0.0109506528824567
0.0119077945128083
0.0127168390899896
0.0133881317451596
0.0139387985691428
0.0143891461193561
0.0147533547133207
0.0150271691381931
0.0151789803057909
0.0151482932269573
0.0148511193692684
0.0141916554421186
0.0130803063511848
0.0114546678960323
0.0092986663803458
0.0066565927118062
0.0036369240842759
0.0004018479958176
-0.0028544133529067
-0.0059314388781785
-0.0086466949433088
-0.0108544658869504
-0.0124585852026939
-0.0134181762114167
-0.0137458648532629
-0.0135002499446272
-0.0127756530418992
-0.0116898892447352
-0.0103692589327692
-0.0089335246011614
-0.0074845869094133
-0.0060987006872892
-0.0048211077228188
-0.0036646574735641
-0.0026140566915273
-0.0016331169754266
-0.0006727222353219
0.0003198580816388
0.0013923067599534
0.0025815358385443
0.0039092572405934
0.0053780898451805
0.0069712060503661
0.0086560612544417
0.0103882206603884
0.0121147781610488
0.013780640438199
0.0153371058404445
0.0167490057647228
0.0179975815117359
0.01907729357481
0.0199869498610496
0.0207183565944433
0.0212450139224529
0.0215134732425212
0.0214427448809146
0.0209345743060112
0.0198919903486967
0.018242634832859
0.0159621778875589
0.0130894556641578
0.0097271986305713
0.0060298182070255
0.0021839700639247
-0.0016134784091264
-0.0051764165982604
-0.008345034904778
-0.0109950955957174
-0.0130444141104817
-0.0144571177661418
-0.0152426557615399
-0.0154491504654288
-0.0151541093364357
-0.0144549962133169
-0.0134592596441507
-0.0122725805267691
-0.0109883463010191
-0.0096824197098612
-0.0084111597388982
-0.0072090844623744
-0.0060863541439175
-0.0050285467877984
-0.0040017268620431
-0.0029623813461512
-0.0018684237729758
-0.0006888001225888
0.0005899397656321
0.001961269415915
0.0034005115740001
0.0048704855144023
0.0063288849778473
0.0077350568026304
0.0090539334341883
0.0102556068450212
0.0113142663612961
0.0122107127681374
0.0129362847656011
0.0134933711960911
0.0138918505981564
0.0141444206237792
0.0142596140503883
0.0142282880842685
0.014008198864758
0.0135194053873419
0.012655634433031
0.0113049810752272
0.0093736704438924
0.0068111368454992
0.0036311778239905
-8.074892684817314e-05
-0.0041767582297325
-0.0084649184718728
-0.0127317681908607
-0.0167676582932472
-0.0203897878527641
-0.0234574154019355
-0.0258782766759395
-0.0276078656315803
-0.028644336387515
-0.0290220417082309
-0.0288048330694437
-0.028078369796276
-0.026940444484353
-0.0254898443818092
-0.0238173343241214
-0.022000690922141
-0.0201020799577236
-0.018166571855545
-0.016220785677433
-0.0142721813172101
-0.0123119056224823
-0.0103223081678152
-0.0082870116457343
-0.0061989054083824
-0.0040625864639878
-0.0018932102248072
0.0002854682970792
0.0024440365377813
0.0045507857576012
0.0065741809085011
0.0084849037230014
0.0102577051147818
0.0118728196248412
0.0133175589144229
0.0145883029326796
0.0156914927065372
0.0166418496519327
0.0174578838050365
0.0181574653834104
0.0187561381608247
0.0192655939608812
0.0196863170713186
0.0199933182448148
0.0201214961707592
0.0199617389589548
0.0193743482232093
0.0182154383510351
0.0163679495453834
0.0137712331488728
0.0104426518082618
0.0064847646281123
0.0020763212814927
-0.0025506624951958
-0.0071427510119974
-0.0114564578980207
-0.01528125628829
-0.0184543654322624
-0.0208696443587541
-0.0224805139005184
-0.0232966244220733
-0.0233755186200141
-0.0228115692734718
-0.0217234808951616
-0.0202411618083715
-0.0184936132282018
-0.0165982898324728
-0.0146516170352697
-0.0127232521772384
-0.0108550041913986
-0.0090618841350078
-0.0073363101109862
-0.0056569869630038
-0.0039987456984817
-0.0023397840559482
-0.0006659179925918
0.001027725636959
0.0027367062866687
0.0044477926567196
0.0061394260264933
0.0077829589135944
0.0093469126150012
0.0108034089207649
0.0121323214843869
0.0133215636014938
0.0143650099635124
0.0152600649744272
0.0160072464495897
0.0166120342910289
0.01708709821105
0.0174530837684869
0.0177368707954883
0.0179676953703165
0.0181734785437583
0.0183783043175935
0.0185973793268203
0.0188256297260522
0.0190226752310991
0.0191022828221321
0.018933130428195
0.0183537043631076
0.0172009244561195
0.0153459701687097
0.0127258254215121
0.0093620233237743
0.0053642797283828
0.000919203273952
-0.0037342635914683
-0.0083367563784122
-0.0126403532922267
-0.0164345353841781
-0.0195617116987705
-0.0219241827726364
-0.0234875157475471
-0.024279149249196
-0.0243798270821571
-0.0239092521369457
-0.02300775796175
-0.0218170434236526
-0.0204644910991191
-0.0190522521734237
-0.017648909240961
-0.0162848588079214
-0.0149558782577514
-0.0136333974078297
-0.0122741656377911
-0.0108279064297676
-0.0092474296689033
-0.0074996869079768
-0.0055722030811011
-0.003474497469142
-0.0012376331724226
0.0010871517006307
0.0034339616540819
0.0057333381846547
0.0079236812889575
0.0099585438147187
0.0118098855018615
0.0134679153561592
0.0149382594972848
0.0162377264350652
0.0173897519707679
0.0184211079031229
0.0193597376346588
0.0202299524098634
0.0210436601191759
0.0217904243618249
0.0224280282855033
0.022875603288412
0.023014061152935
0.0226976629346609
0.021778330206871
0.0201387256383895
0.0177236814051866
0.0145600503310561
0.0107598789036273
0.0065070372074842
0.0020332150161266
-0.002410948742181
-0.0065866946242749
-0.0102934446185827
-0.0133839808404445
-0.0157689452171325
-0.0174145214259624
-0.0183368176221847
-0.0185949318110942
-0.0182813815772533
-0.0175092071294784
-0.0163988322019577
-0.0150661561638116
-0.0136111779138445
-0.012109300121665
-0.0106080835685133
-0.0091291535645723
-0.0076723238453269
-0.0062205479480326
-0.0047477958723902
-0.0032292483374476
-0.0016487138345837
-7.408671081066132e-07
0.0017096921801567
0.0034670629538595
0.0052459542639553
0.0070136892609298
0.0087335789576172
0.0103680696338415
0.0118815535679459
0.0132417827844619
0.0144206518307328
0.0153964012861251
0.0161565095186233
0.0166983157396316
0.0170271061360836
0.0171546246856451
0.0170989073812961
0.016882924363017
0.0165313687175512
0.0160678792744874
0.0155133940279483
0.014883792027831
0.0141827147454023
0.0133883338421583
0.0124417021870613
0.0112461522221565
0.0096799749881029
0.0076200570911169
0.0049723014235496
0.0017008502036333
-0.0021538790315389
-0.0064739175140857
-0.01107735093683
-0.0157421827316284
-0.0202352739870548
-0.0243395399302244
-0.0278752148151397
-0.030713777989149
-0.032782457768917
-0.0340618751943111
-0.0345819406211376
-0.0344142690300941
-0.0336583741009235
-0.0324262529611587
-0.0308311991393566
-0.0289820488542318
-0.0269799884408712
-0.0249145198613405
-0.0228577423840761
-0.0208592507988214
-0.0189442876726388
-0.0171157047152519
-0.0153595469892025
-0.013652715831995
-0.0119696017354726
-0.0102872876450419
-0.0085899326950311
-0.0068705873563885
-0.0051314029842615
-0.0033855852670967
-0.0016584610566496
1.6377773135900497e-05
0.001603087875992
0.0030683944933116
0.0043850154615938
0.0055339927785098
0.0065077524632215
0.0073136864230036
0.007974149659276
0.0085217617452144
0.0089921969920396
0.0094169490039348
0.0098196305334568
0.0102164167910814
0.0106166545301675
0.0110223777592182
0.0114291626960039
0.0118287838995456
0.0122116422280669
0.0125677371397614
0.0128875076770782
0.0131633440032601
0.0133895184844732
0.0135582499206066
0.0136507013812661
0.0136245191097259
0.0134044550359249
0.0128833688795566
0.011936692520976
0.010447459295392
0.0083341058343648
0.0055740224197506
0.0022184373810887
-0.0016067996621131
-0.0057165641337633
-0.0098911141976714
-0.0139024946838617
-0.0175401754677295
-0.0206328313797712
-0.0230613332241773
-0.0247622616589069
-0.0257258042693138
-0.025990106165409
-0.0256323590874671
-0.0247573275119066
-0.0234834197908639
-0.0219280794262886
-0.0201961956918239
-0.0183732770383358
-0.0165223106741905
-0.014682968147099
-0.0128736793994903
-0.0110962549224495
-0.0093403477221727
-0.0075870542787015
-0.0058130896650254
-0.0039962953887879
-0.002121171914041
-0.000181877054274
0.0018170494586229
0.0038599660620093
0.0059200315736234
0.0079613272100687
0.0099434694275259
0.0118279559537768
0.0135832354426383
0.0151867493987083
0.0166257638484239
0.0178976189345121
0.0190087053924798
0.0199730191379785
0.0208102241158485
0.0215421766042709
0.0221899822354316
0.0227725245058536
0.023303598165512
0.0237885154783725
0.0242235511541366
0.0245977006852626
0.0248957015573978
0.0251019410789012
0.0252035092562437
0.0251914095133543
0.0250607430934906
0.0248098522424697
0.0244371891021728
0.0239360015839338
0.0232869423925876
0.022449305281043
0.0213567111641168
0.019922774285078
0.0180564317852258
0.0156838335096836
0.012771762907505
0.0093460828065872
0.0055000521242618
0.0013904450461268
-0.0027785908896476
-0.0067827231250703
-0.0104093700647354
-0.0134852351620793
-0.0158945433795452
-0.0175865273922681
-0.0185726806521415
-0.018916368484497
-0.0187177397310733
-0.0180976912379264
-0.0171837024390697
-0.016098104417324
-0.0149499829858541
-0.0138304317370057
-0.0128083173185586
-0.0119262356311082
-0.0111995786428451
-0.0106209460645914
-0.0101686678826808
-0.0098154889419674
-0.0095352968201041
-0.0093073993921279
-0.009116580709815
-0.0089504746720194
-0.0087984111160039
-0.0086509119719266
-0.0084983706474304
-0.0083315065130591
-0.0081435907632112
-0.0079310908913612
-0.0076915803365409
-0.0074206013232469
-0.0071110441349446
-0.006757128983736
-0.0063588712364435
-0.0059219435788691
-0.0054542114958167
-0.0049631167203187
-0.0044548502191901
-0.003933678381145
-0.0034012850373983
-0.0028569402638822
-0.0022988901473581
-0.0017267996445298
-0.001143371220678
-0.0005537546821869
3.690499579533935e-05
0.0006259371875785
0.0012122791958972
0.0017909811576828
0.0023437370546162
0.0028276033699512
0.0031681179534643
0.0032615391537547
0.0029868700075894
0.0022288374602794
0.0009076257119886
-0.0009964992059394
-0.0034314612857997
-0.0062754722312092
-0.0093520749360322
-0.0124540831893682
-0.0153700960800051
-0.0179094020277261
-0.0199226029217243
-0.0213151313364505
-0.0220515839755535
-0.0221514515578746
-0.0216786004602909
-0.0207273587584495
-0.019408605992794
-0.0178374070674181
-0.0161223635077476
-0.0143574187532067
-0.0126152634620666
-0.010942225344479
-0.0093573713675141
-0.0078564155846834
-0.0064166244119405
-0.0050010085105896
-0.0035659205168485
-0.0020727775990962
-0.000496944412589
0.0011704359203577
0.0029253624379634
0.0047551859170198
0.0066418442875146
0.0085632996633648
0.0104945413768291
0.0124099496752023
0.0142861846834421
0.0161029733717441
0.017842199653387
0.0194881409406662
0.0210290886461734
0.0224578753113746
0.0237694922834634
0.0249576698988676
0.0260145775973796
0.0269315280020236
0.027694184333086
0.0282722488045692
0.0286099091172218
0.0286244265735149
0.0282169841229915
0.0272923652082681
0.0257805958390235
0.0236575342714786
0.0209610778838396
0.0177956894040107
0.0143214203417301
0.0107319504022598
0.0072298375889658
0.0040034372359514
0.0012076115235686
-0.0010477695614099
-0.0027011781930923
-0.003738785162568
-0.0041911248117685
-0.0041261175647377
-0.0036386055871844
-0.0028386153280735
-0.00184076000005
-0.0007538395002484
0.0003292160108685
0.0013384576886892
0.0022312467917799
0.0029939375817775
0.0036389115266501
0.0041978019289672
0.0047134612686932
0.0052316016517579
0.0057924385182559
0.0064234547317028
0.0071361558511853
0.0079271830618381
0.0087802866473793
0.0096689453348517
0.010562059469521
0.0114304888993501
0.0122499046847224
0.0129998996853828
0.013662489131093
0.0142220044508576
0.0146661475300788
0.0149856163188815
0.0151686836034059
0.0151903554797172
0.0150009393692016
0.0145207801833748
0.0136463306844234
0.0122681800276041
0.0102958381175994
0.0076827500015497
0.0044461339712142
0.000675631687045
-0.0034733759239315
-0.0078012375161051
-0.0120930280536413
-0.016144810244441
-0.0197833348065614
-0.0228787567466497
-0.0253478679805994
-0.0271503888070583
-0.028284415602684
-0.028781484812498
-0.0286999978125095
-0.0281193312257528
-0.0271348599344491
-0.0258506499230861
-0.0243695229291915
-0.0227834451943635
-0.0211649406701326
-0.0195602066814899
-0.0179875362664461
-0.0164424944669008
-0.0149073917418718
-0.013361245393753
-0.0117860473692417
-0.0101684192195534
-0.0084995804354548
-0.0067763128317892
-0.0050028660334646
-0.0031912853009998
-0.0013593945186585
0.0004708069609478
0.0022734811063855
0.0040200231596827
0.0056816237047314
0.0072330934926867
0.0086570288985967
0.0099452994763851
0.0110971229150891
0.0121157383546233
0.0130027551203966
0.0137485219165682
0.0143194124102592
0.014646403491497
0.0146239679306745
0.0141240702942013
0.0130205424502491
0.0112178046256303
0.008678812533617
0.00544467382133
0.0016387547366321
-0.0025469737593084
-0.0068790628574788
-0.0111146122217178
-0.0150310676544904
-0.0184487123042345
-0.0212415307760238
-0.0233371797949075
-0.0247116442769765
-0.0253822337836027
-0.0253997109830379
-0.0248407274484634
-0.0238009132444858
-0.022386111319065
-0.0207011271268129
-0.0188390873372554
-0.0168741736561059
-0.0148589424788951
-0.0128247234970331
-0.0107833640649914
-0.008731641806662
-0.0066572469659149
-0.0045443545095622
-0.0023800767958164
-0.0001604482531547
0.0021066348999738
0.0044014090672135
0.0066951364278793
0.0089542148634791
0.0111428909003734
0.0132257658988237
0.0151717858389019
0.0169576480984687
0.0185687374323606
0.0199982225894927
0.0212455466389656
0.0223156102001667
0.0232172235846519
0.0239595584571361
0.0245505888015031
0.0249991677701473
0.0253167580813169
0.0255153905600309
0.0256004463881254
0.0255587678402662
0.0253454372286796
0.0248756557703018
0.0240292325615882
0.0226697660982608
0.0206728037446737
0.0179566070437431
0.0145100085064768
0.0104077858850359
0.0058064777404069
0.0009239402133971
-0.003989212680608
-0.0086809173226356
-0.0129276905208826
-0.0165560096502304
-0.0194504857063293
-0.0215527825057506
-0.0228561870753765
-0.0233988407999277
-0.0232574325054883
-0.0225386712700128
-0.0213663391768932
-0.0198663864284753
-0.0181531384587287
-0.016319440677762
-0.0144332516938447
-0.0125395292416214
-0.0106638129800558
-0.0088155381381511
-0.0069917519576847
-0.0051823961548507
-0.0033763400278985
-0.0015662357909604
0.0002485131844878
0.0020611239597201
0.0038594738580286
0.0056281420402228
0.0073484452441334
0.008999265730381
0.0105598382651805
0.0120118679478764
0.0133399572223424
0.0145317381247878
0.0155789051204919
0.0164784379303455
0.0172327682375907
0.0178483519703149
0.0183331035077571
0.018694432452321
0.0189387444406747
0.0190717633813619
0.019099723547697
0.01902986317873
0.0188687779009342
0.0186223797500133
0.0182989612221717
0.0179098770022392
0.0174661949276924
0.0169744081795215
0.0164303295314311
0.0158089902251958
0.0150530841201543
0.0140679348260164
0.0127303898334503
0.010910915210843
0.0085024759173393
0.0054494105279445
0.0017688572406768
-0.002442080527544
-0.007015717215836
