bvp
-0.0716731995344162
-0.0670808404684066
-0.0598765015602111
-0.0508175641298294
-0.0407500267028808
-0.0305085275322198
-0.0208246745169162
-0.0122567219659686
-0.0051517630927264
0.0003598043695092
0.0043471502140164
0.0070451805368065
0.0088068302720785
0.010047860443592
0.0111872358247637
0.0125867333263158
0.0145039102062582
0.0170664023607969
0.0202586650848388
0.0239121355116367
0.0276976190507411
0.0311290714889764
0.0335984602570533
0.0344527103006839
0.0331029705703258
0.0291426666080951
0.0224457904696464
0.0132208094000816
0.0020079836249351
-0.0103769320994615
-0.0229405462741851
-0.0346367433667182
-0.0444966070353984
-0.0517370328307151
-0.0558362528681755
-0.0565772280097007
-0.0540564358234405
-0.0486545264720916
-0.0409729704260826
-0.0317496284842491
-0.0217682495713233
-0.0117736039683222
-0.0024006394669413
0.0058758463710546
0.0127695361152291
0.0181913487613201
0.0222331695258617
0.0251228343695402
0.0271690711379051
0.0287162214517593
0.0301053300499916
0.0316342934966087
0.0335243009030818
0.0358998924493789
0.0387713760137558
0.0420035943388938
0.0452810451388359
0.0481019169092178
0.0498245656490325
0.0497649237513542
0.047326598316431
0.0421341992914676
0.0341297127306461
0.0236044581979513
0.0111709916964173
-0.0023073556367307
-0.0158155970275402
-0.0283025670796632
-0.0387998484075069
-0.0465289242565631
-0.0509816221892833
-0.0519639290869236
-0.0495987087488174
-0.044291403144598
-0.0366683974862098
-0.0274964310228824
-0.017590707167983
-0.0077211018651723
0.0014665117487311
0.0094981342554092
0.0160912666469812
0.0211566127836704
0.0247834250330925
0.0272063836455345
0.0287581887096166
0.0298156589269638
0.0307464189827442
0.0318640768527984
0.033397652208805
0.0354732237756252
0.0380975753068923
0.0411333963274955
0.0442720502614975
0.0470295995473861
0.0487863458693027
0.0488686114549636
0.0466626621782779
0.0417430885136127
0.0339825861155986
0.0236109290271997
0.0112075014039874
-0.0023673488758504
-0.0160808078944683
-0.0288558360189199
-0.0397015325725078
-0.0478247739374637
-0.0527095422148704
-0.0541593804955482
-0.0522982068359851
-0.0475294739007949
-0.0404677726328372
-0.0318604372441768
-0.022505410015583
-0.013166531920433
-0.0044954633340239
0.0030256009194999
0.0091135567054152
0.0136866960674524
0.0168437398970127
0.0188269037753343
0.0199730191379785
0.0206569861620664
0.0212391391396522
0.0220278706401586
0.0232585314661264
0.0250797476619482
0.0275344457477331
0.030528487637639
0.03379812464118
0.0368982106447219
0.0392272882163524
0.040098451077938
0.0388523712754249
0.0349879525601863
0.0282757021486759
0.0188261643052101
0.0071001658216118
-0.006137796677649
-0.0199125632643699
-0.0331610217690467
-0.0448594763875007
-0.0541332811117172
-0.0603451207280159
-0.0631617456674575
-0.0625829249620437
-0.0589207038283348
-0.0527381673455238
-0.0447650402784347
-0.035804096609354
-0.0266397949308156
-0.0179578084498643
-0.0102817993611097
-0.0039355438202619
0.0009634252637624
0.0044815889559686
0.00682950951159
0.0083174733445048
0.0093118660151958
0.0101856235414743
0.0112634832039475
0.0127800274640321
0.0148639474064111
0.0175410471856594
0.0207376256585121
0.0242726914584636
0.0278416499495506
0.0310079902410507
0.0332269296050071
0.0339120775461196
0.0325335301458835
0.0287252124398946
0.0223763640969991
0.0136851500719785
0.0031638806685805
-0.0084117772057652
-0.0201072059571743
-0.0309559255838394
-0.040074486285448
-0.0467558577656745
-0.0505396872758865
-0.0512491352856159
-0.0489917248487472
-0.0441304184496402
-0.0372261926531791
-0.0289605911821126
-0.0200560186058282
-0.0112010482698678
-0.0029820303898304
0.004170489963144
0.0100106010213494
0.0144736086949706
0.0176435504108667
0.0197137910872697
0.0209556110203266
0.0216840617358684
0.0222142077982425
0.0228205490857362
0.023710086941719
0.0250091478228569
0.0267597977072
0.0289139226078987
0.0313130393624305
0.0336628928780555
0.0355313643813133
0.0363911911845207
0.0357049480080604
0.0330260060727596
0.0280852783471345
0.0208531208336353
0.0115738920867443
0.0007608477026224
-0.0108567923307418
-0.022422507405281
-0.033054880797863
-0.0419482663273811
-0.048461839556694
-0.0521866381168365
-0.0529826134443283
-0.0509840175509452
-0.0465724915266037
-0.0403175465762615
-0.0328947566449642
-0.0250050872564315
-0.017309334129095
-0.0103709381073713
-0.0046040881425142
-0.0002399971708655
0.0026779565960168
0.0042744958773255
0.0048091206699609
0.0046322466805577
0.0041313292458653
0.0036771725863218
0.0035813767462968
0.0040661720559
0.0052421493455767
0.0070910202339291
0.0094512095674872
0.0120045654475688
0.0142770875245332
0.0156793314963579
0.0155948027968406
0.0134958885610103
0.0090548042207956
0.0022232616320252
-0.006732007022947
-0.0172449313104152
-0.0285168811678886
-0.0396180935204029
-0.0496022216975688
-0.0576188191771507
-0.0630093216896057
-0.0653714016079902
-0.0645848289132118
-0.0608082115650177
-0.0544570311903953
-0.0461563877761364
-0.0366627797484397
-0.0267678722739219
-0.0172019749879837
-0.0085532972589135
-0.0012182239443063
0.004615276120603
0.0089585809037089
0.0119919031858444
0.0140186576172709
0.0154144242405891
0.0165730398148298
0.0178535934537649
0.0195422209799289
0.0218287128955125
0.0247793570160865
0.0283026155084371
0.0321236252784729
0.0357858017086982
0.0386934205889701
0.0401949919760227
0.039693146944046
0.0367583781480789
0.0312215108424425
0.0232269763946533
0.013236241415143
0.0019785258919
-0.0096388515084981
-0.0206380635499954
-0.0300811268389225
-0.0371778234839439
-0.0413803234696388
-0.0424418598413467
-0.040425419807434
-0.0356720574200153
-0.0287435129284858
-0.0203439351171255
-0.0112290158867836
-0.0021201968193054
0.0063659437000751
0.0137702152132987
0.019818615168333
0.0244251079857349
0.0276761595159769
0.029800871387124
0.0311307106167078
0.0320487543940544
0.0329273268580436
0.0340716652572155
0.0356888882815837
0.0378749519586563
0.0405998267233371
0.0436822287738323
0.0467649847269058
0.0493193790316581
0.0507021620869636
0.0502608343958854
0.0474588051438331
0.041990116238594
0.0338607057929039
0.0234213955700397
0.0113451266661286
-0.0014552418142557
-0.013954896479845
-0.0251524355262517
-0.0341837108135223
-0.0404086038470268
-0.0434659197926521
-0.043291263282299
-0.0401016920804977
-0.0343547016382217
-0.0266878698021173
-0.0178444795310497
-0.0085920933634042
0.0003566779196262
0.0084132608026266
0.0151663180440664
0.0204140301793813
0.0241648331284523
0.026600444689393
0.028018744662404
0.0287784151732921
0.0292495340108871
0.0297701098024845
0.030612027272582
0.0319557413458824
0.0338664948940277
0.0362631157040596
0.0388826057314872
0.0412666350603103
0.0428010188043117
0.0428104028105735
0.0406833514571189
0.0360018834471702
0.028645584359765
0.0188364498317241
0.0071164183318614
-0.0057217488065361
-0.0187278185039758
-0.0309002455323934
-0.0412989445030689
-0.0491524264216423
-0.0539417490363121
-0.0554497167468071
-0.0537692047655582
-0.0492692478001117
-0.0425309278070926
-0.034270241856575
-0.0252523459494113
-0.0161994732916355
-0.0077136564068496
-0.0002347957342863
0.0059722368605434
0.0108170509338378
0.0143710952252149
0.0168371684849262
0.0185036584734916
0.0196954943239688
0.020732145756483
0.0218941271305084
0.0233931113034486
0.0253409203141927
0.0277179293334484
0.0303453262895345
0.0328709073364734
0.0347847156226635
0.0354746058583259
0.0343203321099281
0.0308164432644844
0.0246962457895278
0.0160166248679161
0.005179121159017
-0.0071119768545031
-0.0199382919818162
-0.0322817079722881
-0.0431466139853
-0.0516771152615547
-0.0572540387511253
-0.0595541074872016
-0.0585667639970779
-0.0545749552547931
-0.0481021255254745
-0.0398364812135696
-0.0305526815354824
-0.0210341606289148
-0.0119911935180425
-0.0039854990318417
0.0026193652302026
0.007673293352127
0.0112266931682825
0.0134962424635887
0.0148128848522901
0.0155617045238614
0.0161267779767513
0.016845604404807
0.0179733075201511
0.0196606777608394
0.0219429638236761
0.0247217305004596
0.0277335308492183
0.0305333212018013
0.0325270108878612
0.0330581963062286
0.031528815627098
0.0275231637060642
0.0209041498601436
0.0118628796190023
0.0009135250002145
-0.0111648822203278
-0.0234245248138904
-0.0348649360239505
-0.0445555038750171
-0.0517454370856285
-0.0559399500489234
-0.0569386519491672
-0.0548449978232383
-0.0500434264540672
-0.0431381240487098
-0.0348649099469184
-0.0259948037564754
-0.0172446705400943
-0.0092072179540991
-0.0023046331480145
0.003233284689486
0.0073650078848004
0.0102110495790839
0.0120131028816103
0.0130855273455381
0.0137678375467658
0.0143851330503821
0.0152145978063344
0.0164539609104394
0.0181974843144416
0.0204234272241592
0.0229838602244853
0.0255925487726926
0.0278241354972124
0.0291438177227973
0.0289778932929039
0.0268188845366239
0.0223402306437492
0.0154851041734218
0.0065048281103372
-0.0040581654757261
-0.0154333934187889
-0.026711968705058
-0.0369527041912078
-0.0453024953603744
-0.0511075817048549
-0.0539846420288085
-0.0538453012704849
-0.0508830919861793
-0.0455305650830268
-0.0383942499756813
-0.0301751531660556
-0.0215824954211711
-0.0132532268762588
-0.0056907371617853
0.0007693953812122
0.0059666400775313
0.0099050309509038
0.0127331335097551
0.0147079611197113
0.0161382295191288
0.0173258148133754
0.0185285247862339
0.0199433304369449
0.0216958038508892
0.0238313563168048
0.0263085961341857
0.0289846006780862
0.0315894931554794
0.0337181836366653
0.0348687320947647
0.0345233455300331
0.032249242067337
0.027798518538475
0.0211852472275495
0.0127138365060091
0.0029465518891811
-0.0073720440268516
-0.0174078680574893
-0.0263344664126634
-0.0334263741970062
-0.0381403379142284
-0.0401742458343505
-0.039492629468441
-0.0363168716430664
-0.0310862697660923
-0.0243955515325069
-0.0169166084378957
-0.0093176523223519
-0.0021913833916187
0.0040011564269661
0.0089630549773573
0.0125646581873297
0.0148272393271327
0.0159003604203462
0.0160322301089763
0.0155324609950184
0.01473328191787
0.0139518845826387
0.0134560521692037
0.0134369386360049
0.0139866415411233
0.0150716863572597
0.0165036767721176
0.0179283805191516
0.018857754766941
0.0187499914318323
0.0171123389154672
0.01359180547297
0.0080429352819919
0.0005731005221605
-0.0084471367299556
-0.0184187814593315
-0.0285870805382728
-0.0381358861923217
-0.0462873503565788
-0.0523922368884086
-0.0560011155903339
-0.0569118894636631
-0.0551863610744476
-0.0511294305324554
-0.0452365018427372
-0.0381200946867466
-0.0304287634789943
-0.0227782428264617
-0.0157014168798923
-0.0096047837287187
-0.0047315242700278
-0.0011468946468085
0.001249341527
0.0026918777730315
0.0035054921172559
0.0040511419065296
0.0046716621145606
0.0056461729109287
0.0071554845198988
0.0092528732493519
0.0118379537016153
0.0146430404856801
0.0172432735562324
0.01909657754004
0.0196180008351802
0.0182862244546413
0.0147588122636079
0.0089596258476376
0.0011159563437104
-0.008257201872766
-0.0184182357043027
-0.0284922532737255
-0.0375820770859718
-0.0448802039027214
-0.0497631877660751
-0.0518553480505943
-0.0510545708239078
-0.0475220158696174
-0.0416500568389892
-0.0340176373720169
-0.0253245215862989
-0.0163017995655536
-0.0076205618679523
0.0001789592206478
0.0067335255444049
0.0118781421333551
0.015640765428543
0.0182125605642795
0.0199001003056764
0.0210709627717733
0.0221014842391014
0.023328011855483
0.0250061973929405
0.0272820629179477
0.0301635283976793
0.0334844626486301
0.036880686879158
0.0398078151047229
0.0416145585477352
0.0416582114994525
0.0394300185143947
0.0346599258482456
0.0273824594914913
0.0179557651281356
0.0070320274680852
-0.0045182555913925
-0.015716191381216
-0.0255974419414997
-0.0333259478211402
-0.0382814183831214
-0.0401182360947132
-0.038797739893198
-0.0345830097794532
-0.0279908515512943
-0.0197132714092731
-0.0105241127312183
-0.0011851117014884
0.0076359659433364
0.0154280960559844
0.0218764152377843
0.0268732160329818
0.0305006857961416
0.0329926088452339
0.034681536257267
0.0359410606324672
0.0371382348239421
0.0385938286781311
0.0405348315834999
0.0430455543100833
0.0460341870784759
0.0492156334221363
0.0521152280271053
0.0541115179657936
0.0545246675610542
0.0527375787496566
0.0483245104551315
0.0411527939140796
0.0314309000968933
0.0196981057524681
0.0067672971636056
-0.0063634943217039
-0.0186233203858137
-0.0290021821856498
-0.0366860330104827
-0.0411560088396072
-0.0422317385673522
-0.0400633066892623
-0.0350854247808456
-0.0279465354979038
-0.0194224826991558
-0.0103229992091655
-0.0013996139168739
0.0067329574376344
0.0136482287198305
0.0191277116537094
0.0231548175215721
0.0258894618600606
0.0276282019913196
0.0287523809820413
0.0296650975942611
0.0307264570146799
0.0322067849338054
0.0342633128166198
0.0369215495884418
0.0400451943278312
0.0433033183217048
0.04616454616189
0.0479469485580921
0.0479238666594028
0.0454571917653083
0.0401271842420101
0.0318359658122062
0.0208624750375747
0.0078512923792004
-0.0062661226838827
-0.0203971415758132
-0.0334274992346763
-0.0443492904305458
-0.0523670725524425
-0.0569759681820869
-0.0580036230385303
-0.0556108653545379
-0.0502530299127101
-0.0426104553043842
-0.0334997214376926
-0.02377550303936
-0.0142325023189187
-0.0055220061913132
0.0019029816612601
0.0078129712492227
0.0121983420103788
0.0152324382215738
0.0172120109200477
0.018497921526432
0.0194677002727985
0.0204770490527153
0.0218230299651622
0.0237077139317989
0.0262057036161422
0.0292339920997619
0.0325227677822113
0.0356019809842109
0.0378302335739135
0.0384789891541004
0.0368630588054657
0.0324884131550788
0.0251706261187791
0.0150887407362461
0.0027763657271862
-0.0109328906983137
-0.0249972604215145
-0.0382876992225647
-0.0497219711542129
-0.0583932101726532
-0.0636741146445274
-0.0652801245450973
-0.0632838681340217
-0.0580846145749092
-0.0503421388566494
-0.0408847145736217
-0.0306007955223321
-0.0203301720321178
-0.0107785165309906
-0.002468841150403
0.0042806444689631
0.0093643637374043
0.0128788566216826
0.0150897344574332
0.0163795985281467
0.0171843618154525
0.0179291944950819
0.0189738050103187
0.0205735955387353
0.0228570140898227
0.0258111525326967
0.0292654298245906
0.0328742265701293
0.0361181646585464
0.0383419692516326
0.0388314463198185
0.0369276329874992
0.0321632809937
0.0243831872940063
0.0138086564838886
0.0010316222906112
-0.0130524318665266
-0.0273536071181297
-0.0407206416130065
-0.0520812571048736
-0.0605684556066989
-0.0656126961112022
-0.066991239786148
-0.0648323595523834
-0.0595749020576477
-0.0518954060971736
-0.0426201224327087
-0.0326291434466838
-0.0227570720016956
-0.013703066855669
-0.0059673711657524
0.0001764949411153
0.0046786107122898
0.0076873023062944
0.0095063503831624
0.0105383619666099
0.0112200789153575
0.0119594763964414
0.013084527105093
0.0148121509701013
0.0172400418668985
0.0203464273363351
0.0239781849086284
0.0278311856091022
0.0314442291855812
0.0342245399951934
0.0355147421360015
0.0346967242658138
0.0313105732202529
0.0251593478024005
0.0163723602890968
0.0054110586643218
-0.0069800503551959
-0.0198612753301858
-0.032205507159233
-0.0430126897990703
-0.0514216795563697
-0.056808553636074
-0.0588568970561027
-0.0575844086706638
-0.0533203072845935
-0.0466425493359565
-0.0382885709404945
-0.0290567465126514
-0.0197166241705417
-0.0109354835003614
-0.0032220035791397
0.0031081326305866
0.0079390928149223
0.0113365910947322
0.0135142523795366
0.0147921293973922
0.0155494734644889
0.0161717217415571
0.0169951729476451
0.0182629115879535
0.0201044660061597
0.0225325468927621
0.0254403129220008
0.0285927932709455
0.031621053814888
0.0340374782681465
0.0352856516838073
0.03482236713171
0.032216340303421
0.0272409170866012
0.0199367888271808
0.0106307379901409
-8.912011981010437e-05
-0.011438874527812
-0.0225400365889072
-0.0325315035879612
-0.0406648032367229
-0.046376846730709
-0.0493419766426086
-0.049497939646244
-0.0470394827425479
-0.0423801243305206
-0.0360912345349788
-0.0288305897265672
-0.0212694518268108
-0.0140244821086525
-0.0075986217707395
-0.0023353677242994
0.0016052313148975
0.0042384564876556
0.0057161543518304
0.0062789488583803
0.006217285990715
0.0058394409716129
0.005442464724183
0.0052867233753204
0.0055706948041915
0.0064034834504127
0.0077772717922925
0.0095420721918344
0.0113898795098066
0.0128666143864393
0.0134279988706111
0.0125347096472978
0.0097622890025377
0.0048934407532215
-0.0020310021936893
-0.0107045909389853
-0.0205816030502319
-0.0309316013008356
-0.0409218445420265
-0.0497202277183532
-0.0565975084900856
-0.0610089153051376
-0.0626485794782638
-0.0614746958017349
-0.0577017366886138
-0.0517599992454052
-0.0442313477396965
-0.0357732214033603
-0.0270401313900947
-0.0186138432472944
-0.0109554408118128
-0.0043803425505757
0.0009522730251774
0.0050359684973955
0.0079952459782361
0.0100506953895092
0.0114812459796667
0.0125892655923962
0.013667868450284
0.0149682881310582
0.0166688878089189
0.018844973295927
0.0214356984943151
0.0242185294628143
0.0268139652907848
0.0287268850952386
0.0294146127998828
0.0283772610127925
0.0252610854804515
0.019946988672018
0.0125975375995039
0.0036540916189551
-0.0062122885137796
-0.0161860324442386
-0.0254116393625736
-0.0330982208251953
-0.0386092774569988
-0.0415295735001564
-0.0417013093829155
-0.039222277700901
-0.0344105772674083
-0.027754683047533
-0.0198606122285127
-0.0113885253667831
-0.0029751602560281
0.0048393979668617
0.0116608329117298
0.0172645822167396
0.0215990655124187
0.0247681848704814
0.0269986204802989
0.0285981148481369
0.0299043226987123
0.0312290638685226
0.0328128822147846
0.034802533686161
0.0372471325099468
0.0400868989527225
0.0431188456714153
0.04596833512187
0.0481079332530498
0.0489313825964927
0.0478608682751655
0.0444592870771884
0.0385264791548252
0.0301653631031513
0.0198015887290239
0.0081438068300485
-0.0039089694619178
-0.0153866503387689
-0.0253658760339021
-0.0330699831247329
-0.037943460047245
-0.039700586348772
-0.0383508503437042
-0.0341936014592647
-0.0277717523276805
-0.0197910107672214
-0.0110243782401084
-0.002218585461378
0.005985889583826
0.0131125655025243
0.0188804753124713
0.0232080742716789
0.0261913836002349
0.0280649103224277
0.0291558746248483
0.029837142676115
0.0304799005389213
0.0314066521823406
0.0328482948243618
0.0349128730595111
0.0375658050179481
0.0406123995780944
0.0436859019100666
0.0462620817124843
0.0477170571684837
0.0474221631884574
0.0448543205857276
0.0397021807730197
0.031947873532772
0.0218998417258262
0.0101664997637271
-0.002414396032691
-0.0148715544492006
-0.0262145642191171
-0.0355579107999801
-0.0422294065356254
-0.0458378791809082
-0.0462935008108615
-0.0437901243567466
-0.0387625396251678
-0.0318251922726631
-0.0236954391002655
-0.015109421685338
-0.0067421980202198
0.0008584093302488
0.0073178764432668
0.0124559309333562
0.0162819735705852
0.0189698822796344
0.0208121817559003
0.0221556182950735
0.0233379621058702
0.0246440563350915
0.0262794159352779
0.0283527895808219
0.0308595858514308
0.0336613059043884
0.0364667326211929
0.0388313718140125
0.0401936434209346
0.0399531722068786
0.0375784561038017
0.0327213257551193
0.0253094621002674
0.0155916539952158
0.0041253180243074
-0.0082903234288096
-0.0207169912755489
-0.0321895070374012
-0.0418229103088378
-0.0489097349345684
-0.0529961511492729
-0.0539243072271347
-0.0518357641994953
-0.047135941684246
-0.0404275618493557
-0.0324288643896579
-0.0238884091377258
-0.0155026074498891
-0.0078429467976093
-0.0013020001351833
0.003929378464818
0.0078482935205101
0.0106041375547647
0.0124579584226012
0.0137377670034766
0.0147889424115419
0.015929028391838
0.0174140613526105
0.0194125231355428
0.0219794865697622
0.0250299964100122
0.028318328782916
0.0314311236143112
0.0338056832551956
0.0347916334867477
0.0337579250335693
0.0302156433463096
0.0239227674901485
0.0149541925638914
0.0037267915904521
-0.009029796347022
-0.022354383021593
-0.0351720377802848
-0.0464287474751472
-0.0552223697304725
-0.0609073042869567
-0.0631571114063263
-0.0619831085205078
-0.0577121376991272
-0.0509289912879467
-0.0423926971852779
-0.0329347401857376
-0.0233573243021965
-0.0143547505140304
-0.0064595341682434
-5.62635250389576e-06
0.0048887031152844
0.0083111003041267
0.0105154160410165
0.011862326413393
0.0127580109983682
0.0135999862104654
0.014730080962181
0.0163964796811342
0.0187284722924232
0.0217184219509363
0.025201927870512
0.0288399141281843
0.0321181118488311
0.0343814454972744
0.0349184609949588
0.0330914892256259
0.0284791979938745
0.0209889486432075
0.0109059233218431
-0.0011307457461953
-0.0142079135403037
-0.0272535420954227
-0.0391704216599464
-0.0489684790372848
-0.0558779910206794
-0.0594298988580703
-0.0594918727874755
-0.0562595427036285
-0.0502146407961845
-0.0420600436627864
-0.0326315052807331
-0.0227905958890914
-0.0133189866319298
-0.0048350822180509
0.0022565843537449
0.0077812811359763
0.0117793027311563
0.0144690461456775
0.0161955673247575
0.0173705499619245
0.0184113010764122
0.0196853186935186
0.0214684922248125
0.0239244513213634
0.0270919669419527
0.0308602266013622
0.0349406152963638
0.0388602018356323
0.0419932790100574
0.0436364896595478
0.0431201197206974
0.0399361029267311
0.0338528417050838
0.0249856226146221
0.0138085484504699
0.001110142096877
-0.0120998956263065
-0.024717167019844
-0.0356766022741794
-0.0440731346607208
-0.0492627806961536
-0.0509361810982227
-0.0491463840007782
-0.0442817732691764
-0.0369947254657745
-0.0281057637184858
-0.0185002330690622
-0.0090308394283056
-0.0004362314939498
0.0067226812243461
0.0121080335229635
0.015623515471816
0.0173992104828357
0.0177464336156845
0.0170973166823387
0.0159431807696819
0.0147729590535163
0.0140110831707715
0.0139657035470008
0.0147976633161306
0.0165036804974079
0.0189021006226539
0.0216253735125064
0.0241364948451519
0.025784071534872
0.025897154584527
0.0239028576761484
0.0194382891058921
0.0124310627579689
0.0031335707753896
-0.0078929429873824
-0.019839409738779
-0.0317463427782058
-0.0426250919699668
-0.0515819862484931
-0.0579235553741455
-0.0612282678484916
-0.061375968158245
-0.0585359446704387
-0.0531248152256011
-0.0457450412213802
-0.037109438329935
-0.027957672253251
-0.0189748369157314
-0.0107230003923177
-0.0035957631189376
0.0021998337469995
0.0066385907121002
0.0098498025909066
0.0120682967826724
0.013582662679255
0.0146960681304335
0.0156953781843185
0.0168219935148954
0.0182403903454542
0.0199979040771722
0.0219798516482114
0.0238846503198146
0.0252450238913297
0.025499178096652
0.0240939166396856
0.0205955412238836
0.0147914197295904
0.006766190752387
-0.0030747146811336
-0.0140508376061916
-0.0253014918416738
-0.0358963683247566
-0.0449463129043579
-0.0517073273658752
-0.0556634664535522
-0.0565756745636463
-0.0544943623244762
-0.0497365109622478
-0.0428318120539188
-0.0344486981630325
-0.0253114476799964
-0.0161180794239044
-0.007467501796782
0.0001966413110494
0.0066174147650599
0.0117263728752732
0.0156195778399705
0.018520126119256
0.0207360368221998
0.0226120986044406
0.0244793035089969
0.0266128741204738
0.0291987396776676
0.032299555838108
0.0358183830976486
0.0394709706306457
0.0427851825952529
0.0451423525810241
0.0458668917417526
0.0443540401756763
0.0401991717517375
0.033288087695837
0.0238371547311544
0.012387778609991
-0.0002444498240947
-0.0130601935088634
-0.0249936580657959
-0.0350411161780357
-0.0423796772956848
-0.046456903219223
-0.0470436513423919
-0.044248454272747
-0.0384909324347972
-0.0304379407316446
-0.0209113620221614
-0.0107800755649805
-0.0008611194789409
0.0081530567258596
0.0157496929168701
0.0216378606855869
0.0257632471621036
0.0282856784760952
0.0295292437076568
0.0299211386591196
0.029929757118225
0.0300084091722965
0.030545350164175
0.0318183302879333
0.033954307436943
0.0368928536772728
0.0403586439788341
0.0438627526164054
0.0467455387115478
0.0482597202062606
0.047688640654087
0.0444831326603889
0.0383838564157485
0.0294945202767848
0.0182884596288204
0.0055535300634801
-0.0077098901383578
-0.0204190351068973
-0.031543530523777
-0.0402237512171268
-0.0458580628037452
-0.0481517426669597
-0.0471253804862499
-0.0430828295648098
-0.0365521013736724
-0.0282187908887863
-0.0188543125987052
-0.0092352014034986
-6.243307143449783e-05
0.0081059308722615
0.0148981548845767
0.0201424583792686
0.0238559339195489
0.0262161046266555
0.027516771107912
0.0281151253730058
0.0283798202872276
0.0286441184580326
0.0291716735810041
0.0301364213228225
0.0315950810909271
0.0334410853683948
0.0353709273040294
0.036900732666254
0.0374370291829109
0.0363818556070327
0.0332503728568553
0.0277784224599599
0.0199946016073226
0.010239384137094
-0.0008689137175679
-0.0125109571963548
-0.0237725339829921
-0.0337604731321334
-0.0417062863707542
-0.0470450520515441
-0.0494692176580429
-0.0489576980471611
-0.0457703024148941
-0.0404003448784351
-0.0334960743784904
-0.0257685352116823
-0.0179005376994609
-0.0104717332869768
-0.0039099063724279
0.0015315348282456
0.0057724537327885
0.0088855782523751
0.0110631976276636
0.0125744361430406
0.0137225519865751
0.0148116210475564
0.0161125306040048
0.0178217552602291
0.0200314540416002
0.0227211471647024
0.0257545746862888
0.0288726389408111
0.0316932834684848
0.0337300822138786
0.0344403982162475
0.0333081781864166
0.0299454294145107
0.024184051901102
0.0161352287977933
0.0062025636434555
-0.0049551408737897
-0.0165032893419265
-0.0275369454175233
-0.0371944978833198
-0.0447613112628459
-0.0497473515570163
-0.0519284531474113
-0.0513495579361915
-0.0482987836003303
-0.0432587563991546
-0.0368369556963443
-0.0296861007809638
-0.0224286876618862
-0.0155953541398048
-0.0095826731994748
-0.0046310257166624
-0.0008201673626899
0.0019213687628507
0.0037892181426286
0.0050523169338703
0.0059945899993181
0.0068751759827136
0.0079082548618316
0.0092490557581186
0.0109841860830783
0.0131279323250055
0.0156183075159788
0.0183057226240634
0.020934984087944
0.0231388080865144
0.0244648978114128
0.0244400706142187
0.0226619187742471
0.0188962016254663
0.013143440708518
0.0056504346430301
-0.0031218063086271
-0.0125492196530103
-0.021909661591053
-0.030464420095086
-0.037545058876276
-0.0426279306411743
-0.0453865192830562
-0.0457178875803947
-0.0437425076961517
-0.0397802516818046
-0.0343043804168701
-0.0278770606964826
-0.0210763998329639
-0.0144263729453086
-0.0083432551473379
-0.003110434859991
0.0011241473257541
0.0043406840413808
0.0066324956715106
0.0081811938434839
0.0092218797653913
0.0100045651197433
0.0107611920684576
0.011680819094181
0.0128936283290386
0.0144639015197753
0.0163838434964418
0.0185608621686697
0.0208055078983306
0.0228335503488779
0.0242858342826366
0.0247646942734718
0.0238917749375104
0.0213846713304519
0.0171300694346427
0.0112283341586589
0.0039984062314033
-0.0040548909455537
-0.0123021081089973
-0.0200691577047109
-0.0267233494669199
-0.0317488759756088
-0.0348008312284946
-0.0357372537255287
-0.0346269570291042
-0.0317269824445247
-0.0274385400116443
-0.0222567617893219
-0.0167140923440456
-0.0113170910626649
-0.0064888764172792
-0.0025281701236963
0.0004097837954759
0.0023104324936866
0.0032806787639856
0.0035191271454095
0.0032804887741804
0.0028375089168548
0.0024452209472656
0.0023142788559198
0.0025956463068723
0.0033723320811986
0.0046492405235767
0.0063326973468065
0.0082077365368604
0.0099372137337923
0.0110974293202161
0.0112454909831285
0.0100019890815019
0.0071273613721132
0.0025747362524271
-0.0034878943115472
-0.0106902224943041
-0.0185036603361368
-0.0263053700327873
-0.0334538742899894
-0.039363220334053
-0.0435608699917793
-0.0457332096993923
-0.0457649156451225
-0.043756179511547
-0.0400016531348228
-0.034938633441925
-0.0290805865079164
-0.0229487866163253
-0.017013618722558
-0.011651043780148
-0.0071134059689939
-0.0035162032581865
-0.0008432243485003
0.0010321399895474
0.002314023906365
0.0032492373138666
0.0040978570468723
0.005100636743009
0.0064404038712382
0.0082165263593196
0.0104391910135746
0.013026189059019
0.0157941170036792
0.018455246463418
0.0206337645649909
0.0219081342220306
0.0218761507421731
0.020229447633028
0.0168203711509704
0.011704514734447
0.0051473001949489
-0.0024029128253459
-0.0103625711053609
-0.0180777907371521
-0.0249071530997753
-0.0303045213222503
-0.0338774845004081
-0.035416156053543
-0.0348985642194747
-0.0324785970151424
-0.0284612495452165
-0.0232651736587286
-0.0173711385577917
-0.0112637262791395
-0.0053788423538208
-6.336160004138947e-05
0.0044524371623992
0.0080691054463386
0.0108176451176404
0.0128391198813915
0.0143427327275276
0.0155600905418396
0.0167136620730161
0.0179947260767221
0.0195434913039207
0.0214361622929573
0.0236784480512142
0.0261933654546737
0.0287990402430295
0.0311923790723085
0.0329615361988544
0.0336379595100879
0.032780148088932
0.0300685428082942
0.0253881141543388
0.0188732929527759
0.0108980126678943
0.002022597938776
-0.007076546549797
-0.0156824178993701
-0.0231152288615703
-0.0288057774305343
-0.0323535576462745
-0.0335617177188396
-0.0324483178555965
-0.0292352847754955
-0.0243135057389736
-0.0181853659451007
-0.0113983303308486
-0.0044842362403869
0.0020940117537975
0.0079833641648292
0.0129599757492542
0.0169314108788967
0.0199305675923824
0.0220991037786006
0.0236557926982641
0.0248542502522468
0.0259441565722227
0.0271464474499225
0.0286352895200252
0.030517354607582
0.0328094698488712
0.0354135707020759
0.0380911640822887
0.0404593050479888
0.0420318432152271
0.0422961227595806
0.0407965667545795
0.0372179560363292
0.0314637646079063
0.0237036887556314
0.0143719352781772
0.0041200667619705
-0.0062629505991935
-0.0159488357603549
-0.0241710878908634
-0.030313741415739
-0.0339742861688137
-0.0349947288632392
-0.0334624350070953
-0.0296809822320938
-0.0241152383387088
-0.017330665141344
-0.0099396109580993
-0.0025443993508815
0.004327543079853
0.0102826990187168
0.0150973107665777
0.0187229830771684
0.0212668254971504
0.022953875362873
0.0240787379443645
0.024956913664937
0.0258856676518917
0.027113365009427
0.0288120619952678
0.0310575831681489
0.0338189080357551
0.0369414761662483
0.040119994431734
0.0428938120603561
0.0446934141218662
0.044925607740879
0.0430764146149158
0.038817998021841
0.0320940352976322
0.0231566540896892
0.0125471157953143
0.0010295175015926
-0.0105052385479211
-0.0211463328450918
-0.0300666745752096
-0.0366130471229553
-0.0403702445328235
-0.0411942154169082
-0.0392187088727951
-0.0348317213356494
-0.0286180824041366
-0.0212770085781812
-0.0135272089391946
-0.0060170218348503
0.0007430892437696
0.0064200451597571
0.0108691612258553
0.0141177289187908
0.0163295473903417
0.0177611652761697
0.0187156107276678
0.0195006262511014
0.0203990824520587
0.0216436590999364
0.0233851168304681
0.0256664473563432
0.0284150503575801
0.0314389839768409
0.0344151258468627
0.0368860363960266
0.0382934734225273
0.0380576215684413
0.0356831811368465
0.0308615863323211
0.0235471203923225
0.0139932446181774
0.0027405573055148
-0.0094397021457552
-0.0216329097747802
-0.0328903757035732
-0.0423498563468456
-0.0493414886295795
-0.0534555502235889
-0.054569024592638
-0.0528383329510688
-0.0486626215279102
-0.0426215156912803
-0.0353949703276157
-0.0276773329824209
-0.0200994107872247
-0.013168079778552
-0.0072288317605853
-0.0024528412614017
0.0011567850597202
0.0037446413189172
0.0055644758976995
0.0069226697087287
0.0081221088767051
0.0094247031956911
0.0110323652625083
0.0130757689476013
0.0156054142862558
0.0185833275318145
0.0218690074980258
0.0251991767436265
0.0281769149005413
0.0302929580211639
0.0309893116354942
0.0297546703368425
0.026232473552227
0.0203148797154426
0.0121912695467472
0.0023367255926132
-0.008546620607376
-0.0196134708821773
-0.0299719031900167
-0.0387838408350944
-0.045358583331108
-0.0492275990545749
-0.0501884035766124
-0.0483148321509361
-0.0439387559890747
-0.037601426243782
-0.0299759730696678
-0.0217784456908702
-0.0136850159615278
-0.0062607480213046
9.058229625225068e-05
0.0051424484699964
0.0088360141962766
0.011261573061347
0.012632368132472
0.0132495202124118
0.0134593453258275
0.0136055145412683
0.0139835551381111
0.0148056112229824
0.016179546713829
0.018096886575222
0.0204167999327182
0.0228486638516187
0.0249569714069366
0.0262076761573553
0.0260475669056177
0.0239920374006032
0.0197094082832336
0.0130990929901599
0.0043457858264446
-0.0060753226280212
-0.0174467340111732
-0.0288945902138948
-0.0394965298473835
-0.0483963042497634
-0.054906740784645
-0.0585876777768135
-0.0592888742685318
-0.0571502447128295
-0.0525635406374931
-0.0461067110300064
-0.0384652204811573
-0.0303566493093967
-0.0224604811519384
-0.0153474239632487
-0.0094189876690506
-0.0048761125653982
-0.0017236731946468
0.0001989416778087
0.0011754985898733
0.0015647839754819
0.0017486531287431
0.0020806696265935
0.002841668203473
0.0042101107537746
0.0062484815716743
0.0088910479098558
0.0119194127619266
0.0149413328617811
0.0174076091498136
0.01868312433362
0.0181586034595966
0.015374805778265
0.0101261958479881
0.002518706023693
-0.0070262923836708
-0.0178170353174209
-0.0289766155183315
-0.0395543426275253
-0.0486420542001724
-0.0554776564240455
-0.0595267713069915
-0.060533307492733
-0.0585343167185783
-0.0538442470133304
-0.0470097549259662
-0.0387320592999458
-0.0297686830163002
-0.0208401307463645
-0.0125572429969906
-0.0053691314533352
0.0004671185743063
0.0048909829929471
0.0080201597884297
0.0101139731705188
0.0115221217274665
0.0126261441037058
0.0137860476970672
0.0153031982481479
0.0173918157815933
0.0201421491801738
0.0234828628599643
0.0271638464182615
0.0307647846639156
0.0337304323911666
0.0354407429695129
0.0353115275502204
0.0329028107225894
0.0280123203992843
0.0207368526607751
0.0114853102713823
0.0009377119131386
-0.0100411307066679
-0.0205129757523536
-0.0295773465186357
-0.0364719219505786
-0.040660161525011
-0.0418894812464714
-0.0402030311524868
-0.0359088107943534
-0.0295224636793136
-0.0216953195631504
-0.0131312683224678
-0.0045026633888483
0.0036174301058053
0.010797107592225
0.0167665742337703
0.0214276481419801
0.0248491298407316
0.0272395573556423
0.0289027355611324
0.0301865339279174
0.0314268544316291
0.0328961573541164
0.0347728803753852
0.0371285788714885
0.0399148985743522
0.0429444164037704
0.0458763167262077
0.0482252016663551
0.0494086146354675
0.0488363727927207
0.046025313436985
0.0407098978757858
0.0329186134040355
0.0229984819889068
0.0115886200219392
-0.0004526507109403
-0.0121612548828125
-0.0225952081382274
-0.0309471935033798
-0.0366304405033588
-0.0393317006528377
-0.0390269085764884
-0.0359619818627834
-0.0306031554937362
-0.0235671568661928
-0.015545517206192
-0.0072307512164115
0.0007509887218475
0.0078948931768536
0.0138591714203357
0.0184913612902164
0.0218266583979129
0.0240522436797618
0.0254528149962425
0.0263549275696277
0.0270783565938472
0.0279023312032222
0.0290459468960762
0.0306495837867259
0.032750453799963
0.0352513492107391
0.037887617945671
0.0402192398905754
0.0416741371154785
0.0416380353271961
0.0395686849951744
0.0351112224161624
0.0281854160130023
0.019019566476345
0.0081330314278602
-0.0037195214536041
-0.0156382694840431
-0.0266900230199098
-0.0360189750790596
-0.0429418198764324
-0.0470177568495273
-0.0480844788253307
-0.0462583303451538
-0.041905116289854
-0.0355876348912715
-0.0279915612190961
-0.0198364071547985
-0.0117870196700096
-0.0043848166242241
0.0019887152593582
0.0071210162714123
0.0109619824215769
0.0136077366769313
0.015274210833013
0.0162589158862829
0.0168955810368061
0.0175099596381187
0.0183805227279663
0.0197064355015754
0.0215833261609077
0.023980975151062
0.0267202779650688
0.0294604711234569
0.0317150950431823
0.0329037941992282
0.0324325188994407
0.0297966301441192
0.0246932189911603
0.0171072203665971
0.0073427967727184
-0.0040019443258643
-0.0161072760820388
-0.0280357673764228
-0.0388455614447593
-0.0476961657404899
-0.0539393424987793
-0.0571858435869216
-0.0573382675647735
-0.0545876175165176
-0.0493752285838127
-0.0423268526792526
-0.0341718420386314
-0.0256583206355571
-0.0174714475870132
-0.0101623861119151
-0.0040981746278703
0.0005582701414823
0.0038388408720493
0.0059395879507064
0.007175394333899
0.0079227471724152
0.0085563398897647
0.0093952259048819
0.0106720821931958
0.0125238392502069
0.0149901397526264
0.0180012248456478
0.021347239613533
0.0246529188007116
0.0273948460817337
0.0289699342101812
0.0287961289286613
0.0264220815151929
0.0216225590556859
0.0144585389643907
0.0052905790507793
-0.00525579508394
-0.0163641404360532
-0.0271274745464324
-0.0366591066122055
-0.0441937074065208
-0.0491657257080078
-0.0512638762593269
-0.0504600778222084
-0.0470042824745178
-0.0413784123957157
-0.0342187993228435
-0.026227680966258
-0.0180891714990139
-0.0103980703279376
-0.0036076749674975
0.0020013842731714
0.006330688484013
0.009449316188693
0.0115583669394254
0.0129449404776096
0.0139351990073919
0.0148533871397376
0.0159854982048273
0.0175434872508049
0.0196389369666576
0.0222740434110164
0.0253378823399543
0.0285948626697063
0.0316733978688716
0.0340804271399974
0.0352607108652591
0.0346904247999191
0.0319786295294761
0.0269554611295461
0.0197281725704669
0.0106897857040166
0.0004806872457265
-0.0100848814472556
-0.0201211087405681
-0.0287903249263763
