bvp
0.0508529804646968
0.0455847382545471
0.040990550071001
0.0374824106693267
0.0353096760809421
0.0345524996519088
0.0351396314799785
0.036874234676361
0.0394540280103683
0.0424957685172557
0.0455780811607837
0.0482984595000743
0.0503277443349361
0.0514467246830463
0.0515590831637382
0.0506795272231102
0.0488999485969543
0.0463492386043071
0.0431689023971557
0.0395064279437065
0.0355105586349964
0.0313226021826267
0.027062889188528
0.0228087529540061
0.0185689628124237
0.0142648518085479
0.0097263865172863
0.0047084353864192
-0.0010758563876152
-0.0079108476638793
-0.0160297863185405
-0.0255752950906753
-0.0365805849432945
-0.0489688888192176
-0.0625600442290306
-0.0770762935280799
-0.0921468362212181
-0.1073158010840416
-0.122060127556324
-0.1358225494623184
-0.1480573564767837
-0.1582738757133484
-0.1660669595003128
-0.1711421608924865
-0.1733411997556686
-0.1726598888635635
-0.1692501455545425
-0.163403108716011
-0.1555155217647552
-0.1460464894771576
-0.1354726552963256
-0.1242480650544166
-0.1127693131566047
-0.1013448908925056
-0.0901719033718109
-0.0793295353651046
-0.0687954723834991
-0.058474127203226
-0.0482210889458656
-0.0378619991242885
-0.0272090807557106
-0.0160766765475273
-0.0043015331029891
0.008228451013565
0.0215404853224754
0.035543043166399
0.0499972701072692
0.0645012632012367
0.0785016492009162
0.091348148882389
0.1023894846439361
0.1110836863517761
0.1170863807201385
0.1202978789806366
0.1208761930465698
0.1192239820957183
0.1159432381391525
0.1117563992738723
0.1074090227484703
0.1035736426711082
0.1007681041955947
0.0992978736758232
0.0992275476455688
0.1003821343183517
0.1023801267147064
0.1046994924545288
0.1067662090063095
0.1080426722764968
0.1080970764160156
0.1066516786813736
0.1036129593849182
0.0990748554468154
0.0932898893952369
0.0866179317235946
0.0794575214385986
0.0721648409962654
0.0649865642189979
0.058033425360918
0.051299087703228
0.044708464294672
0.0381721407175064
0.0316350311040878
0.0251120980829
0.0186924431473016
0.0125003904104232
0.0066310800611972
0.0010912753641605
-0.004233494400978
-0.0095741748809814
-0.0152344778180122
-0.0215242095291614
-0.028691042214632
-0.0368619970977306
-0.0460012406110763
-0.0558926686644554
-0.0661512166261673
-0.076256439089775
-0.0855972692370414
-0.0935265868902206
-0.0994313657283783
-0.1028144061565399
-0.1033659279346466
-0.1010023579001426
-0.0958654880523681
-0.0882884562015533
-0.0787415951490402
-0.0677704438567161
-0.0559304133057594
-0.0437263697385787
-0.0315705835819244
-0.0197614207863807
-0.0084768086671829
0.0022186636924743
0.0123545825481414
0.0220296494662761
0.0313789397478103
0.0405329167842865
0.0495855920016765
0.0585829392075538
0.0675201639533042
0.076337918639183
0.0849190354347229
0.0930889695882797
0.1006193161010742
0.1072288453578949
0.1125796735286712
0.1162754148244857
0.1178735792636871
0.1169276684522628
0.1130631044507026
0.1060661897063255
0.0959516316652298
0.0829862654209137
0.067672774195671
0.0507080890238285
0.0329233184456825
0.0152100995182991
-0.0015610605478286
-0.0166255701333284
-0.0294044371694326
-0.0395636111497879
-0.0470308288931846
-0.0519580394029617
-0.0546453110873699
-0.0554570853710174
-0.0547555610537529
-0.0528661422431468
-0.0500807799398899
-0.0466861389577388
-0.0429862774908542
-0.039305604994297
-0.0359775200486183
-0.0333154052495956
-0.0315663628280162
-0.0308697409927845
-0.0312403608113527
-0.0325758904218673
-0.0346767604351043
-0.0372706428170204
-0.0400438942015171
-0.0426846966147422
-0.0449312329292297
-0.0466117858886718
-0.0476794391870498
-0.0482458099722862
-0.0485914275050163
-0.0491305887699127
-0.0503372997045517
-0.0526482611894607
-0.056359689682722
-0.0615446381270885
-0.0680143535137176
-0.0753296613693237
-0.0828537791967392
-0.0898318290710449
-0.0954822227358818
-0.0990860015153884
-0.1000627726316452
-0.0980278626084327
-0.0928347781300544
-0.0845988020300865
-0.0736817717552185
-0.0606354624032974
-0.0461276844143867
-0.0308728590607643
-0.0155745446681976
-0.0008806660771369
0.0126489400863647
0.0245662480592727
0.0345555171370506
0.0424519218504428
0.0482548214495182
0.0521286614239215
0.0543849244713783
0.0554451569914817
0.0557892993092536
0.0558945722877979
0.0561788603663444
0.0569650679826736
0.0584669150412082
0.0607808753848075
0.0638671815395355
0.0675165653228759
0.0713241919875145
0.0747053250670433
0.0769696459174156
0.0774377733469009
0.0755648016929626
0.0710425525903701
0.0638670399785041
0.0543632917106151
0.0431561470031738
0.0310865566134452
0.0190997011959552
0.0081339851021766
-0.0009795203804969
-0.007604606449604
-0.0113635659217834
-0.0121618509292602
-0.0101694241166114
-0.0057620629668235
0.0005656406283378
0.0082893893122673
0.0169243812561035
0.0260625854134559
0.0353764295578002
0.0446044504642486
0.0535304248332977
0.0619567781686782
0.0696852207183837
0.0765165314078331
0.0822611898183822
0.086756944656372
0.0898981094360351
0.0916641503572464
0.0921259298920631
0.0914239883422851
0.0897281318902969
0.0871848613023758
0.0838550478219986
0.0796612948179245
0.0743793696165084
0.0676924809813499
0.0592915676534175
0.0489797070622444
0.0367477275431156
0.0228096283972263
0.0075946440920233
-0.0082985693588852
-0.0241667404770851
-0.0392696037888526
-0.0528995096683502
-0.0644518882036209
-0.0734828934073448
-0.0797406882047653
-0.0831679329276084
-0.0838842317461967
-0.0821578651666641
-0.0783679112792015
-0.0729617476463317
-0.0664156302809715
-0.0591921545565128
-0.0516900047659873
-0.0441997572779655
-0.0368808731436729
-0.0297624170780181
-0.0227652490139007
-0.0157421100884675
-0.0085254590958356
-0.0009721892420202
0.0070014530792832
0.0154005428776144
0.0241483263671398
0.0330928564071655
0.0420176349580287
0.050648808479309
0.0586488246917724
0.0656044483184814
0.0710386261343956
0.0744682848453521
0.0755025073885917
0.0739441514015197
0.0698487684130668
0.0635210052132606
0.0554591342806816
0.046273436397314
0.036606416106224
0.0270684957504272
0.0181897543370723
0.0103882774710655
0.0039520673453807
-0.0009746737778186
-0.0044006146490573
-0.0064764209091663
-0.0074577592313289
-0.0076568275690078
-0.0073994435369968
-0.0069920048117637
-0.0066944397985935
-0.00669676810503
-0.0071033313870429
-0.0079332739114761
-0.0091374143958091
-0.0106217339634895
-0.0122708082199096
-0.0139690190553665
-0.0156160369515419
-0.0171408429741859
-0.018521063029766
-0.0197947993874549
-0.0210478156805038
-0.0223828926682472
-0.0238946005702018
-0.0256666615605354
-0.0277912095189094
-0.0303938165307045
-0.0336442217230796
-0.0377371534705162
-0.0428416877985
-0.049038115888834
-0.0562657937407493
-0.064292125403881
-0.0727063342928886
-0.08094522356987
-0.0883475318551063
-0.0942174643278122
-0.0978906527161598
-0.0988111346960067
-0.0966141074895858
-0.0911919847130775
-0.0827259346842765
-0.0716782584786415
-0.0587481670081615
-0.0447981506586074
-0.0307606980204582
-0.0175360068678855
-0.0058920979499816
0.0036200657486915
0.0107228457927703
0.0154288932681083
0.0180136039853096
0.0189508348703384
0.0188326314091682
0.0182880833745002
0.0179041251540184
0.0181530863046646
0.0193383023142814
0.0215665027499198
0.0247494801878929
0.0286306738853454
0.0328231379389762
0.0368443578481674
0.0401496142148971
0.0421817600727081
0.0424443781375885
0.0405807197093963
0.0364359095692634
0.030090607702732
0.0218618288636207
0.0122675523161888
0.001959703862667
-0.0083544477820396
-0.0179844126105308
-0.0263201147317886
-0.0328859537839889
-0.0373774245381355
-0.0396770350635051
-0.0398534163832664
-0.0381456315517425
-0.0349283255636692
-0.0306591801345348
-0.025826271623373
-0.0209098905324935
-0.0163514986634254
-0.0125202387571334
-0.0096835568547248
-0.0079903006553649
-0.0074646323919296
-0.0080122798681259
-0.0094442144036293
-0.01150893419981
-0.0139200612902641
-0.0163799449801445
-0.0186041221022605
-0.0203484110534191
-0.0214378051459789
-0.0217928737401962
-0.02145516872406
-0.0206124857068061
-0.0196021720767021
-0.0188679099082946
-0.0188768059015274
-0.0200242772698402
-0.0225521400570869
-0.0264961086213588
-0.0316674709320068
-0.0376694165170192
-0.0439468771219253
-0.0498605370521545
-0.0547711104154586
-0.0581225603818893
-0.0595107562839984
-0.0587248802185058
-0.0557632558047771
-0.0508311875164508
-0.0443144366145134
-0.0367214940488338
-0.0286107584834098
-0.0205234363675117
-0.0129260011017322
-0.0061660464853048
-0.0004537515342235
0.0041295774281024
0.0076084397733211
0.0100858733057975
0.0117162391543388
0.0126828961074352
0.0131830088794231
0.0134145095944404
0.0135581027716398
0.0137551538646221
0.0140936467796564
0.0146084409207105
0.0152862537652254
0.0160659253597259
0.016837878152728
0.0174506288021802
0.0177272260189056
0.0174939911812543
0.0166196767240762
0.0150544550269842
0.012856550514698
0.010198526084423
0.0073526687920093
0.0046581933274865
0.0024707010015845
0.0011012284085154
0.0007630470208823
0.001540333032608
0.0033808355219662
0.0061079408042132
0.0094484835863113
0.0130746811628341
0.0166530925780534
0.0198895372450351
0.0225641820579767
0.0245522838085889
0.0258244145661592
0.0264294072985649
0.0264718066900968
0.0260898172855377
0.0254313144832849
0.0246305149048566
0.0237953569740057
0.0230061598122119
0.0223159193992614
0.0217487420886755
0.0213014744222164
0.0209507141262292
0.020658403635025
0.0203694272786378
0.0200044848024845
0.0194567050784826
0.0185983795672655
0.0173009671270847
0.0154669126495718
0.0130650140345096
0.0101519739255309
0.0068667451851069
0.0034076333977282
8.583621820434928e-06
-0.0030836516525596
-0.0056358985602855
-0.0074581103399395
-0.0084282532334327
-0.00850445125252
-0.007725853472948
-0.0062080179341137
-0.00413254275918
-0.0017252042889595
0.0007780673913657
0.0031663542613387
0.0052762674167752
0.0069963033311069
0.0082579115405678
0.0090253446251153
0.0092925196513533
0.0090844444930553
0.0084569565951824
0.0074904654175043
0.0062787653878331
0.0049167592078447
0.0034882873296737
0.0020575758535414
0.0006648767739534
-0.0006827409379184
-0.0020272838883101
-0.0034677954390645
-0.0051490501500666
-0.0072378320619463
-0.0098952995613217
-0.0132430018857121
-0.0173244699835777
-0.0220761224627494
-0.0273199304938316
-0.0327793136239051
-0.0381105169653892
-0.04294079169631
-0.0469100400805473
-0.0497116446495056
-0.0511263199150562
-0.0510474890470504
-0.0494922250509262
-0.0465874969959259
-0.0425385870039463
-0.0376013368368148
-0.0320666953921318
-0.0262444131076335
-0.02043442055583
-0.0148922801017761
-0.0098012499511241
-0.0052582919597625
-0.0012772977352142
0.0021942071616649
0.0052543319761753
0.0080277882516384
0.0106483548879623
0.0132427103817462
0.0159176886081695
0.018752222880721
0.0217911452054977
0.0250324252992868
0.0284042153507471
0.0317491367459297
0.0348353385925293
0.0373906157910823
0.0391487888991832
0.0399032048881053
0.0395536869764328
0.0381305180490016
0.0357931219041347
0.0328083001077175
0.0295121744275093
0.0262631941586732
0.0233948938548564
0.0211740378290414
0.0197697691619396
0.0192374493926763
0.0195177737623453
0.0204539615660905
0.0218248534947633
0.0233844313770532
0.0248994827270507
0.0261781942099332
0.0270863156765699
0.0275551807135343
0.027585856616497
0.0272479094564914
0.0266706347465515
0.0260281413793563
0.0255183782428503
0.0253360830247402
0.0256451517343521
0.0265535674989223
0.0280904807150363
0.0301921349018812
0.0327030010521411
0.0353852584958076
0.0379301235079765
0.0399797856807708
0.041167214512825
0.0411685891449451
0.0397608242928981
0.0368722043931484
0.0326099209487438
0.0272542461752891
0.0212196558713912
0.0149971852079033
0.0090965870767831
0.0039942255243659
8.682999759912491e-05
-0.0023419531062245
-0.0031363945454359
-0.0022696498781442
0.0001603737473487
0.0039392476901412
0.0087545709684491
0.0142263248562812
0.0199426617473363
0.0254952479153871
0.0305121690034866
0.0346867963671684
0.0377991423010826
0.0397279225289821
0.040455125272274
0.0400586016476154
0.038687627762556
0.0365337133407592
0.0338087156414985
0.0307264365255832
0.0274822488427162
0.0242298450320959
0.0210575032979249
0.0179683249443769
0.014869138598442
0.0115766339004039
0.0078489258885383
0.0034376494586467
-0.001854084432125
-0.0081184804439544
-0.0153048187494277
-0.0232088100165128
-0.0314908772706985
-0.0397133976221084
-0.0473939254879951
-0.0540733374655246
-0.0593840181827545
-0.0630994290113449
-0.0651577413082122
-0.0656608939170837
-0.0648514926433563
-0.0630734860897064
-0.060724638402462
-0.0582059845328331
-0.0558733157813549
-0.0539936870336532
-0.0527115985751152
-0.0520377196371555
-0.0518643483519554
-0.0519925542175769
-0.0521606393158435
-0.052082248032093
-0.05149807035923
-0.0502256378531456
-0.0481892637908458
-0.04542763158679
-0.0420844592154026
-0.0383852012455463
-0.0346096083521842
-0.0310769341886043
-0.0281404498964548
-0.0261662937700748
-0.0254817381501197
-0.0263034608215093
-0.0286784656345844
-0.0324763283133506
-0.0374365150928497
-0.0432290881872177
-0.0494901239871978
-0.0558268278837204
-0.0618094466626644
-0.0669740363955497
-0.0708546265959739
-0.0730418711900711
-0.073244497179985
-0.0713352113962173
-0.0673755779862403
-0.0616163872182369
-0.0544712617993354
-0.0464734062552452
-0.0382292531430721
-0.0303627289831638
-0.0234399922192096
-0.0178930964320898
-0.0139758288860321
-0.0117724351584911
-0.0112500190734863
-0.0123153775930404
-0.0148403830826282
-0.0186488516628742
-0.0234823748469352
-0.0289741680026054
-0.034652441740036
-0.0399740524590015
-0.0443803369998931
-0.0473716929554939
-0.0485876128077507
-0.0478586181998252
-0.0452053695917129
-0.0407960042357444
-0.034890666604042
-0.0277906730771064
-0.019797995686531
-0.0111853554844856
-0.002169482409954
0.007118210196495
0.0166546627879142
0.0265321806073188
0.036952681839466
0.0482121631503105
0.0606676451861858
0.0746838599443435
0.0905733928084373
0.1085501834750175
0.1287020444869995
0.1509734988212585
0.1751453131437301
0.2007897794246673
0.2272224277257919
0.2535399794578552
0.2787843942642212
0.3021339476108551
0.3229886591434479
0.3409135937690735
0.3555147647857666
0.3663428425788879
0.3728494942188263
0.3744298815727234
0.370626151561737
0.3614147007465362
0.3473908305168152
0.3297955095767975
0.3104031383991241
0.2912713587284088
0.2744579315185547
0.2618522047996521
0.2550853490829468
0.2553501427173614
0.2630888223648071
0.2777118682861328
0.2975360155105591
0.3199886679649353
0.3419956266880035
0.3604232966899872
0.3724692463874817
0.3759525716304779
0.3694904744625091
0.3525556325912475
0.3254200518131256
0.2890095114707947
0.2447132766246795
0.1941984891891479
0.1392545104026794
0.0816647112369537
0.0230945348739624
-0.0350080132484436
-0.0914871394634246
-0.1455139517784118
-0.1965773701667785
-0.2444424033164978
-0.2890902757644653
-0.3306445479393005
-0.3692895770072937
-0.4051998257637024
-0.4384911358356476
-0.469192773103714
-0.4972399771213531
-0.5224893689155579
-0.5447534918785095
-0.5638419389724731
-0.579599142074585
-0.5919361710548401
-0.6008513569831848
-0.6064367890357971
-0.6088710427284241
-0.6083922982215881
-0.6052497625350952
-0.5996483564376831
-0.591720461845398
-0.5815508365631104
-0.5692431330680847
-0.554987907409668
-0.5390951633453369
-0.5219753980636597
-0.5040696263313293
-0.4857431650161743
-0.467179000377655
-0.4483193159103393
-0.4288823008537292
-0.4084383845329284
-0.3865101039409637
-0.3626720607280731
-0.3366404175758362
-0.3083314597606659
-0.2778776586055755
-0.2456118911504745
-0.2120374739170074
-0.1777893304824829
-0.1435831487178802
-0.1101562306284904
-0.078210674226284
-0.0483628809452056
-0.0210983138531446
0.0032633300870656
0.0245853327214717
0.0429141707718372
0.0584662966430187
0.0715956315398216
0.0827402919530868
0.092367298901081
0.1009299531579017
0.1088341698050499
0.1164124459028244
0.1239075362682342
0.131462812423706
0.1391209959983825
0.1468338221311569
0.1544797122478485
0.1618871390819549
0.1688623577356338
0.175217792391777
0.1807972639799118
0.1854967623949051
0.1892735809087753
0.1921363621950149
0.1941303610801696
0.1953348964452743
0.1958630979061126
0.1958499103784561
0.1954300254583358
0.1947124302387237
0.1937601268291473
0.1925821900367736
0.1911399513483047
0.1893640607595443
0.1871750950813293
0.1845021545886993
0.1813023090362548
0.1775820702314376
0.1734082400798797
0.1688985228538513
0.164203405380249
0.1594945043325424
0.1549564003944397
0.1507744491100311
0.1471195816993713
0.144131988286972
0.1419034153223037
0.1404640078544616
0.1397805362939834
0.1397624015808105
0.1402689814567566
0.1411203145980835
0.1421158909797668
0.1430605351924896
0.1437854170799255
0.1441558301448822
0.1440735757350921
0.1434804946184158
0.1423598974943161
0.1407317370176315
0.1386376321315765
0.1361143440008163
0.1331675797700882
0.1297611743211746
0.1258217692375183
0.1212540864944458
0.1159651577472686
0.1098915264010429
0.1030248329043388
0.0954346135258674
0.0872750878334045
0.0787670090794563
0.0701743587851524
0.0617913231253623
0.0539269149303436
0.0468767434358596
0.0408875420689582
0.0361243858933448
0.0326495915651321
0.0304175615310668
0.0292844027280807
0.0290285199880599
0.0293801352381706
0.0300572514533996
0.030801810324192
0.0314100384712219
0.0317485406994819
0.0317496955394744
0.0313967317342758
0.0307131707668304
0.0297570824623107
0.0286140963435173
0.0273831933736801
0.0261482074856758
0.0249405279755592
0.0237117037177085
0.0223269090056419
0.0205803364515304
0.0182319022715091
0.0150582566857337
0.0109085701406002
0.0057539977133274
-0.0002869069576263
-0.0069570019841194
-0.013893038034439
-0.020667590200901
-0.0268375054001808
-0.0319985076785087
-0.0358391404151916
-0.0381841622292995
-0.0390177369117736
-0.0384809784591198
-0.0368453301489353
-0.034471109509468
-0.0317636206746101
-0.0291331503540277
-0.0269562397152185
-0.0255364086478948
-0.0250757411122322
-0.0256702899932861
-0.0273200515657663
-0.0299371350556612
-0.0333521142601966
-0.0373259782791137
-0.0415722280740737
-0.0457894653081893
-0.0497032403945922
-0.0531158819794654
-0.0559520758688449
-0.0582780987024307
-0.0602843984961509
-0.0622398480772972
-0.0644299834966659
-0.0670932084321975
-0.0703739151358604
-0.0743010863661766
-0.0787824913859367
-0.0836074203252792
-0.0884614959359169
-0.0929569751024246
-0.0966794714331626
-0.0992434173822403
-0.1003410145640373
-0.0997771173715591
-0.0974883213639259
-0.0935438126325607
-0.0881298035383224
-0.0815232247114181
-0.0740561932325363
-0.0660725459456443
-0.0578907690942287
-0.0497840195894241
-0.041964016854763
-0.0345598347485065
-0.027605727314949
-0.0210513249039649
-0.01479097828269
-0.0087010934948921
-0.002674676477909
0.0033571347594261
0.0094175487756729
0.0154795907437801
0.0214604083448648
0.0272195246070623
0.0325653702020645
0.0372761860489845
0.0411318615078926
0.0439433678984642
0.0455808341503143
0.0460039861500263
0.0452820546925067
0.0435949489474296
0.0412188805639743
0.0384982079267501
0.0358087830245494
0.0335242636501789
0.0319923982024192
0.0315175093710422
0.0323411971330642
0.03461854159832
0.0383995659649372
0.0436277128756046
0.0501450970768928
0.0576888024806976
0.0658882409334182
0.0742840021848678
0.0823735445737838
0.0896688625216484
0.0957448780536651
0.1002727374434471
0.1030430197715759
0.1039798110723495
0.103140965104103
0.1006984114646911
0.0968956500291824
0.0919875353574752
0.0861823558807373
0.0796102285385131
0.0723182559013366
0.0642814934253692
0.0554339885711669
0.0457220077514648
0.0351601615548133
0.0238705277442932
0.0121007338166236
0.0002204589545726
-0.0113100260496139
-0.0219961032271385
-0.0313722342252731
-0.0390587300062179
-0.0448073595762252
-0.048528604209423
-0.0502929650247097
-0.0503124706447124
-0.0489189177751541
-0.0465421378612518
-0.043673001229763
-0.0408059023320674
-0.0383780263364315
-0.0367227867245674
-0.0360421240329742
-0.0363971330225467
-0.037715658545494
-0.0398142412304878
-0.0424300171434879
-0.0452581197023391
-0.0479927062988281
-0.0503711178898811
-0.0522161163389682
-0.0534689649939537
-0.0542117357254028
-0.0546724610030651
-0.0551947727799415
-0.0561704263091087
-0.0579580888152122
-0.0608094744384288
-0.0648150220513343
-0.0698763355612754
-0.0757081657648086
-0.0818705335259437
-0.0878252536058425
-0.0930048078298568
-0.0968811437487602
-0.0990263223648071
-0.099157802760601
-0.0971600860357284
-0.0930860936641693
-0.0871497392654419
-0.0797047242522239
-0.0711986795067787
-0.0621131733059883
-0.0529094897210598
-0.0439867563545703
-0.0356520637869834
-0.0281058438122272
-0.0214449074119329
-0.0156762152910232
-0.0107324104756116
-0.006489111110568
-0.0027876645326614
0.0005374699831008
0.0036267591640353
0.0065528331324458
0.0092749670147895
0.0116207394748926
0.0133128874003887
0.0140301045030355
0.0134791936725378
0.0114629287272691
0.0079343989491462
0.0030272437725216
-0.0029441509395837
-0.0095125334337353
-0.016108825802803
-0.0221274308860301
-0.0269937291741371
-0.0302235223352909
-0.0314702317118644
-0.0305614024400711
-0.0275218021124601
-0.0225711483508348
-0.0160887781530618
-0.0085552185773849
-0.0004892311990261
0.0076092202216386
0.0153077682480216
0.0222782045602798
0.0283153261989355
0.0333366207778453
0.0373673215508461
0.0405169837176799
0.0429508164525032
0.044862076640129
0.046448964625597
0.0478827282786369
0.049260564148426
0.0505639836192131
0.0516439005732536
0.0522375181317329
0.0520142465829849
0.0506410896778106
0.0478505492210388
0.0434978902339935
0.0376042239367961
0.030379731208086
0.0222166590392589
0.0136513262987136
0.0053048636764287
-0.002185970544815
-0.0082379393279552
-0.0123863071203231
-0.0143426172435283
-0.0140292681753635
-0.0115755647420883
-0.0072829611599445
-0.0015769675374031
0.0050454549491405
0.0120684020221233
0.0190055929124355
0.0254436619579792
0.0310731492936611
0.0357017926871776
0.0392565503716468
0.0417767167091369
0.0433941446244716
0.0443054549396038
0.0447415523231029
0.0449293479323387
0.0450476258993148
0.0451910607516765
0.0453471466898918
0.0453834123909473
0.0450524389743804
0.0440252125263214
0.0419502258300781
0.0385213121771812
0.0335407629609108
0.0269714593887329
0.0189666096121072
0.0098706558346748
0.0001958785578608
-0.0094261262565851
-0.018321968615055
-0.0258675478398799
-0.0315629616379737
-0.035078153014183
-0.0362739264965057
-0.0352025590837001
-0.0320917442440986
-0.0273122787475585
-0.0213293563574552
-0.0146486796438694
-0.0077694887295365
-0.0011452585458755
0.0048503782600164
0.0099507421255111
0.0140128619968891
0.017022255808115
0.0190790593624115
0.0203620865941047
0.0210873633623123
0.0214775744825601
0.0217387545853853
0.0220332145690917
0.0224455744028091
0.0229513123631477
0.0234027467668056
0.0235381443053483
0.0230116676539182
0.0214448701590299
0.0184960924088954
0.0139328092336654
0.0076918164268136
-8.328491821885109e-05
-0.0090365624055266
-0.0186314284801483
-0.0282139591872692
-0.0370915755629539
-0.0446126461029052
-0.050237875431776
-0.0535948388278484
-0.0545106567442417
-0.0530204959213733
-0.0493497997522354
-0.0438743829727172
-0.0370714217424392
-0.0294724106788635
-0.021616781130433
-0.0140020875260233
-0.0070362496189773
-0.0010051699355244
0.0039349528960883
0.0077472701668739
0.0104985581710934
0.0123410644009709
0.0134888086467981
0.0141864530742168
0.0146748460829257
0.0151605475693941
0.0157875660806894
0.0166049748659133
0.0175349228084087
0.0183585248887538
0.0187386982142925
0.0182818602770566
0.0166181661188602
0.0134715642780065
0.008704774081707
0.0023489762097597
-0.0053729815408587
-0.0140432575717568
-0.0230813808739185
-0.0318101234734058
-0.0395391806960105
-0.0456485003232955
-0.0496583953499794
-0.0512798354029655
-0.0504385307431221
-0.0472695939242839
-0.0420888848602771
-0.0353462100028991
-0.0275655873119831
-0.0192892160266637
-0.0110367927700281
-0.0032719350419938
0.0036307477857917
0.0094118136912584
0.0139418225735425
0.0172229316085577
0.019374581053853
0.0206066891551017
0.0211873762309551
0.0214083231985569
0.0215490907430648
0.0218415390700101
0.0224331803619861
0.0233513284474611
0.0244778357446193
0.0255455002188682
0.0261637810617685
0.0258771311491727
0.0242484416812658
0.0209480840712785
0.0158278122544288
0.0089656030759215
0.0006754272617399
-0.008516801521182
-0.0179274901747703
-0.0267959292978048
-0.034381840378046
-0.0400601401925087
-0.0433906279504299
-0.0441542565822601
-0.0423592291772365
-0.0382243022322654
-0.0321490764617919
-0.0246707648038864
-0.0164019502699375
-0.007958909496665
0.0001020366325974
0.0073322770185768
0.0134219229221344
0.0182113777846097
0.0216841734945774
0.023948784917593
0.0252135004848241
0.0257508270442485
0.0258554182946681
0.0258094370365142
0.0258587580174207
0.0261854454874992
0.0268643070012331
0.0278190523386001
0.0288088396191597
0.029456190764904
0.0293070189654827
0.0279102306813001
0.0249011944979429
0.0200739279389381
0.013433713465929
0.0052212248556315
-0.0041008489206433
-0.0138965100049972
-0.0234293695539236
-0.0319462418556213
-0.0387589372694492
-0.0433204881846904
-0.0452924445271492
-0.0445866137742996
-0.0413656309247016
-0.0360031872987747
-0.0290191024541854
-0.021010048687458
-0.0125859752297401
-0.0043124938383698
0.0033362235408276
0.0100078517571091
0.0154858333989977
0.0196907334029674
0.0226712338626384
0.0245841369032859
0.0256641712039709
0.0261876005679368
0.0264333877712488
0.0266477465629577
0.0270152688026428
0.0276306346058845
0.0284698884934186
0.0293711125850677
0.0300350356847047
0.0300550553947687
0.0289788395166397
0.0263883657753467
0.0219797082245349
0.015629518777132
0.0074385874904692
-0.0022556451149284
-0.0128996884450316
-0.023777812719345
-0.0340952798724174
-0.043074831366539
-0.0500473231077194
-0.0545239448547363
-0.0562420114874839
-0.0551795773208141
-0.0515399016439914
-0.0457124151289463
-0.0382193326950073
-0.0296567250043153
-0.020636111497879
-0.011731089092791
-0.0034316782839596
0.0038946596905589
0.0100292908027768
0.0149011788889765
0.0185591150075197
0.0211372449994087
0.0228279922157526
0.0238615702837705
0.0244856905192136
0.0249436907470226
0.0254491604864597
0.026149358600378
0.0270782373845577
0.0281168613582849
0.0289824325591325
0.02925581112504
0.0284459572285413
0.0260820612311363
0.0218144264072179
0.0154958292841911
0.0072210230864584
-0.0026718969456851
-0.0136226955801248
-0.0248936153948307
-0.0356457009911537
-0.04503970220685
-0.0523394308984279
-0.0569958463311195
-0.0587002113461494
-0.0574049204587936
-0.0533133670687675
-0.0468389317393302
-0.0385430790483951
-0.0290670525282621
-0.0190631430596113
-0.009136863052845
0.0001895101740956
0.008501342497766
0.0155140422284603
0.0210873745381832
0.0252236407250165
0.0280515030026435
0.0297999549657106
0.0307645909488201
0.0312719233334064
0.0316439494490623
0.0321553833782672
0.0329818166792392
0.0341510400176048
0.0355148278176784
0.0367532894015312
0.0374113172292709
0.0369631648063659
0.0349027998745441
0.0308446250855922
0.0246103126555681
0.0162846837192773
0.0062307929620146
-0.0049394471570849
-0.0164335239678621
-0.0273732617497444
-0.0368996076285839
-0.0442695207893848
-0.0489329993724823
-0.0505837872624397
-0.049178197979927
-0.0449214167892932
-0.038233745843172
-0.0297057814896106
-0.020035121589899
-0.0099463732913136
-0.0001158136874437
0.008884210139513
0.0166237503290176
0.0228404179215431
0.0274461284279823
0.0305129662156105
0.0322446934878826
0.0329404100775718
0.0329525992274284
0.032643049955368
0.0323438942432403
0.0323261469602584
0.0327626951038837
0.0336752757430076
0.0348882712423801
0.0360256470739841
0.0365616306662559
0.0359120927751064
0.033544760197401
0.0290821343660354
0.022376649081707
0.0135515751317143
0.0030072852969169
-0.0086104730144143
-0.0204801000654697
-0.03169996291399
-0.0413927435874938
-0.0488033443689346
-0.0533824786543846
-0.0548483356833457
-0.0532128289341926
-0.0487635806202888
-0.0420092605054378
-0.0336041897535324
-0.0242649372667074
-0.0146914897486567
-0.0055041275918483
0.0027992657851427
0.0098656602203845
0.0154953906312584
0.0196420103311538
0.0223984513431787
0.0239697508513927
0.0246432237327098
0.0247530713677406
0.0246330574154853
0.0245718229562044
0.0247821062803268
0.0253748930990695
0.0263301096856594
0.027470538392663
0.0284582525491714
0.0288308337330818
0.0280741862952709
0.025712426751852
0.0213982108980417
0.0149902272969484
0.0065997429192066
-0.0034013092517852
-0.0144041143357753
-0.0256236270070076
-0.0362002477049827
-0.045314110815525
-0.0522794798016548
-0.0566115379333496
-0.058064617216587
-0.0566395446658134
-0.0525656715035438
-0.0462653189897537
-0.0383028462529182
-0.0293222852051258
-0.0199823454022407
-0.0108968708664178
-0.0025855465792119
0.004566281568259
0.0103366114199161
0.0146700851619243
0.0176508277654647
0.0194652564823627
0.0203709006309509
0.020667104050517
0.0206640902906656
0.0206522233784198
0.0208684653043746
0.0214576423168182
0.0224337019026279
0.0236514471471309
0.0248023234307765
0.0254454798996448
0.0250764302909374
0.0232225134968757
0.0195405483245849
0.0138901844620704
0.0063681453466415
-0.0026934500783681
-0.0127538489177823
-0.0231145396828651
-0.0329941175878047
-0.0416164398193359
-0.0482992157340049
-0.0525292381644248
-0.0540135167539119
-0.0527040883898735
-0.0487923584878444
-0.0426716171205043
-0.0348804295063018
-0.0260381437838077
-0.0167776141315698
-0.0076884943991899
0.0007193256169557
0.0080429390072822
0.0140131898224353
0.0185112170875072
0.0215653236955404
0.0233328733593225
0.024072628468275
0.024108063429594
0.0237879492342472
0.0234482698142528
0.0233719255775213
0.023746307939291
0.024621732532978
0.0258804839104414
0.0272354315966367
0.0282643027603626
0.0284689031541347
0.0273527447134256
0.0245113484561443
0.0197166949510574
0.0129755856469273
0.0045509617775678
-0.005058703944087
-0.0151760671287775
-0.0250227376818656
-0.0338078737258911
-0.040820300579071
-0.0455107577145099
-0.047550082206726
-0.0468546152114868
-0.0435767024755477
-0.0380711667239666
-0.0308525972068309
-0.0225419886410236
-0.013797003775835
-0.0052376743406057
0.0026130771730095
0.0093660429120063
0.0147827118635177
0.018778521567583
0.021414678543806
0.0228755380958318
0.0234324987977743
0.0234033968299627
0.0231140702962875
0.022865030914545
0.0229019895195961
0.0233816802501678
0.0243300907313823
0.0256093293428421
0.0269152279943227
0.0278130583465099
0.0278063230216503
0.0264274179935455
0.0233293659985065
0.0183561965823173
0.0115815475583076
0.0033140778541564
-0.0059299105778336
-0.0154831400141119
-0.0246054641902446
-0.032569333910942
-0.0387385338544845
-0.0426381938159465
-0.0440131053328514
-0.0428553633391857
-0.039388682693243
-0.0340202711522579
-0.0272791013121604
-0.0197506956756114
-0.012014415115118
-0.0045914761722087
0.0020919935777783
0.0077277743257582
0.0121376244351267
0.0152772283181548
0.0172285232692956
0.0181791074573993
0.0183930695056915
0.0181708857417106
0.0178016517311334
0.0175266750156879
0.0175194237381219
0.0178661458194255
0.0185407157987356
0.0193853080272674
0.0201136637479066
0.0203473158180713
0.0196777787059545
0.0177371390163898
0.0142677454277873
0.0091819865629076
0.0025949291884899
-0.0051760179921984
-0.0136355860158801
-0.0221598520874977
-0.0300741828978061
-0.0367416441440582
-0.0416368246078491
-0.0443981736898422
-0.0448602810502052
-0.0430627986788749
-0.0392344072461128
-0.0337577760219574
-0.0271214749664068
-0.0198624245822429
-0.0125069459900259
-0.0055209402926266
0.0007258192053996
0.005981845781207
0.010124634951353
0.0131564615294337
0.0151826944202184
0.0163819752633571
0.016979256644845
0.0172221530228853
0.0173548851162195
0.0175875630229711
0.0180629100650548
0.0188223458826541
0.0197770036756992
0.0206982307136058
0.0212398152798414
0.0209909416735172
0.0195511020720005
0.01661485619843
0.0120483236387372
0.0059324773028492
-0.0014412901364266
-0.0096081206575036
-0.0179774854332208
-0.0258928500115871
-0.032707642763853
-0.0378634445369243
-0.0409523099660873
-0.0417558215558528
-0.0402600318193435
-0.0366464182734489
-0.0312604904174804
-0.0245653763413429
-0.0170887019485235
-0.009366001933813
-0.0018861815333366
0.0049484586343169
0.0108404466882348
0.0156030263751745
0.0191664062440395
0.021580658853054
0.0230014882981777
0.0236589238047599
0.0238229800015687
0.0237727500498294
0.0237646494060754
0.0239947438240051
0.0245545245707035
0.0253912936896085
0.0262930914759635
0.0269121509045362
0.0268264580518007
0.0256190244108438
0.0229492709040641
0.0186131373047828
0.0125965671613812
0.0051073655486106
-0.003432497382164
-0.0124317230656743
-0.0211981367319822
-0.0290203504264354
-0.0352534390985965
-0.0393964909017086
-0.0411488376557827
-0.0404359586536884
-0.0374029166996479
-0.0323797166347503
-0.0258272551000118
-0.0182780101895332
-0.010286783799529
-0.0023907562717795
0.0049344059079885
0.0113190561532974
0.0165277738124132
0.0204680170863866
0.0231845919042825
0.024839624762535
0.0256799608469009
0.0259993523359298
0.0261006504297256
0.0262596644461154
0.0266885496675968
0.0274975448846817
0.0286629032343626
0.0300096999853849
0.0312168300151824
0.031855970621109
0.0314637534320354
0.0296284053474664
0.0260726436972618
0.0207175426185131
0.0137136317789554
0.0054356735199689
-0.0035546144936233
-0.0125733651220798
-0.0208982545882463
-0.0278571862727403
-0.0329078435897827
-0.035691775381565
-0.0360545068979263
-0.0340466387569904
-0.0299187656491994
-0.0240954682230949
-0.0171185620129108
-0.0095762610435485
-0.0020374124869704
0.0050015007145702
0.011155261658132
0.0161741562187671
0.0199508294463157
0.0225102398544549
0.0239884722977876
0.0246041994541883
0.0246240571141242
0.0243296455591917
0.0239937528967857
0.0238527543842792
0.0240623354911804
0.0246563795953989
0.0255292914807796
0.0264384876936674
0.0270288418978452
0.0268851742148399
0.0256031807512044
0.0228632390499115
0.0184949375689029
0.0125209400430321
0.0051727145910263
-0.0031252317130565
-0.0118019189685583
-0.0202085264027118
-0.0276946015655994
-0.0336822420358657
-0.0377346910536289
-0.0396079719066619
-0.0392685458064079
-0.0368765220046043
-0.0327502824366092
-0.0273219663649797
-0.0210853312164545
-0.0145424017682671
-0.0081577161327004
-0.0023237089626491
0.0026637678965926
0.0066216262057423
0.0094868028536438
0.0113140773028135
0.0122638568282127
0.0125725474208593
0.0125057101249694
0.0123147452250123
0.0122121190652251
0.0123570589348673
0.012839650735259
0.013660236261785
0.0147080486640334
0.0157525464892387
0.0164643675088882
0.0164662636816501
0.0153987575322389
0.0129856560379266
0.0090888403356075
0.0037466585636138
-0.0028097368776798
-0.0101737454533576
-0.0178168937563896
-0.0251579508185386
-0.0316264256834983
-0.0367199480533599
-0.0400587581098079
-0.0414270348846912
-0.0407890304923057
-0.0382822901010513
-0.0341952927410602
-0.028929017484188
-0.0229446217417716
-0.0167098455131053
-0.010655703023076
-0.0051419697701931
-0.0004271930083632
0.0033469786867499
0.0061477851122617
0.0080309342592954
0.0091214757412672
0.0095954053103923
0.0096609955653548
0.009542541578412
0.0094624320045113
0.0096148289740085
0.0101310899481177
0.0110425017774105
0.0122510157525539
0.013524105772376
0.0145231848582625
0.0148615296930074
0.0141779202967882
0.0122016593813896
0.0087922923266887
0.0039643589407205
-0.0020935740321874
-0.0090203955769538
-0.0163178276270627
-0.0234122276306152
-0.0297256410121917
-0.0347430445253849
-0.0380701050162315
-0.0394753068685531
-0.0389080718159675
-0.0364922024309635
-0.0325005091726779
-0.0273144524544477
-0.021372552961111
-0.015121079981327
-0.0089810509234666
-0.003323643002659
0.0015588263049721
0.0054793935269117
0.0083675161004066
0.0102634150534868
0.0113029684871435
0.0116957267746329
0.0116944974288344
0.0115600703284144
0.0115272095426917
0.011776085011661
0.0124100018292665
0.0134374294430017
0.0147608611732721
0.0161764286458492
0.0173838958144187
0.0180161148309707
0.01769838668406
0.0161251462996006
0.0131284082308411
0.0087191443890333
0.0030963118188083
-0.0033713325392454
-0.010185794904828
-0.0167786926031112
-0.0225814767181873
-0.0270970854908227
-0.0299585182219743
-0.0309610217809677
-0.0300671160221099
-0.0273998696357011
-0.0232331734150648
-0.0179646499454975
-0.0120635535567998
-0.0060104047879576
-0.0002455944195389
0.004870212636888
0.0090852230787277
0.0122720403596758
0.014426807872951
0.0156535170972347
0.0161354187875986
0.0160996653139591
0.0157868470996618
0.0154300313442945
0.0152396485209465
0.0153855485841631
0.0159658882766962
0.016971543431282
0.0182686503976583
0.0196064300835132
0.0206464622169733
0.0210113301873207
0.0203463248908519
0.0183829721063375
0.014991458505392
0.01021150033921
0.0042585376650094
-0.0024940641596913
-0.0095546310767531
-0.0163666456937789
-0.0223683286458253
-0.0270588137209415
-0.0300649888813495
-0.0311887916177511
-0.030419897288084
-0.0279173925518989
-0.0239757299423217
-0.0189836155623197
-0.013376741670072
-0.0075902203097939
-0.0020179478451609
0.0030168900266289
0.00728015974164
0.0106362299993634
0.013048842549324
0.0145764630287885
0.015363285318017
0.0156166572123765
0.0155684296041727
0.0154375433921813
0.0154081564396619
0.0156190618872642
0.0161532815545797
0.0170201454311609
0.0181335285305976
0.0193016268312931
