bvp
-0.0506161898374557
-0.0543943867087364
-0.0565342754125595
-0.0567763857543468
-0.0550221726298332
-0.0513347014784812
-0.0459197871387004
-0.0390920601785182
-0.0312316976487636
-0.022743634879589
-0.0140284150838851
-0.0054566338658332
0.0026638768613338
0.0101191438734531
0.0168019086122512
0.0227067545056343
0.0279157049953937
0.0325732231140136
0.036851666867733
0.040918156504631
0.0449089221656322
0.0489067584276199
0.0529195442795753
0.0568668395280838
0.0605803877115249
0.0638150423765182
0.0662674382328987
0.0676107481122016
0.0675500258803367
0.0658847689628601
0.0625585913658142
0.0576855055987834
0.0515512786805629
0.044590376317501
0.0373425930738449
0.0303955879062414
0.0243199504911899
0.0196069814264774
0.0166188031435012
0.015558898448944
0.0164645165205001
0.0192075446248054
0.02349753677845
0.0289039853960275
0.0349090248346328
0.0409773178398609
0.0466233640909194
0.0514616966247558
0.0552330501377582
0.0578111931681633
0.0591966249048709
0.0594993159174919
0.0589170940220356
0.0577117577195167
0.0561755485832691
0.0545908249914646
0.0531942993402481
0.0521436110138893
0.0514814108610153
0.0511116757988929
0.0508042909204959
0.0502244904637336
0.0489792264997959
0.0466781854629516
0.0430011600255966
0.0377571620047092
0.030924342572689
0.0226623192429542
0.0132968425750732
0.0032885365653783
-0.0068044960498809
-0.0163677874952554
-0.0247784312814474
-0.0314692370593547
-0.0360066667199134
-0.0381557047367095
-0.0379067473113536
-0.0354658402502536
-0.0312202386558055
-0.0256826132535934
-0.0194214060902595
-0.0129981162026524
-0.0069248923100531
-0.0016379300504922
0.0025209970772266
0.0053148111328482
0.0066105173900723
0.006371259689331
0.004647759720683
0.0015630032867193
-0.0027187829837203
-0.0080250650644302
-0.014192285016179
-0.0210719350725412
-0.0285383872687816
-0.0365002900362014
-0.0449019148945808
-0.0537038519978523
-0.0628533214330673
-0.0722595676779747
-0.0817825272679328
-0.0912371575832367
-0.1004031673073768
-0.1090258955955505
-0.116811454296112
-0.1234371289610862
-0.1285888105630874
-0.1320090740919113
-0.1335319280624389
-0.1330960839986801
-0.1307379603385925
-0.126570463180542
-0.120760478079319
-0.1135197579860687
-0.1051098480820655
-0.0958461463451385
-0.0860866904258728
-0.0762047991156578
-0.0665499866008758
-0.0573991611599922
-0.0489080101251602
-0.0410863980650901
-0.0338110029697418
-0.0268615037202835
-0.0199630558490753
-0.0128306224942207
-0.0052162781357765
0.0030393525958061
0.011953130364418
0.0213555097579956
0.0308807678520679
0.040007721632719
0.048146154731512
0.0547496490180492
0.0594277828931808
0.0620292462408542
0.0626789405941963
0.0617623589932918
0.0598623715341091
0.0576729327440261
0.0559097453951835
0.0552210360765457
0.0561066567897796
0.0588595047593116
0.0635371059179306
0.0699678510427475
0.0777875781059265
0.0864918828010559
0.0954963862895965
0.1042038798332214
0.1120704859495163
0.1186638176441192
0.1237098053097724
0.1271124929189682
0.1289345920085907
0.1293565928936004
0.1286364197731018
0.1270709335803985
0.1249601542949676
0.1225788667798042
0.1201515644788742
0.1178251653909683
0.1156413853168487
0.1135140210390091
0.111216552555561
0.1083919331431388
0.1046007126569747
0.0994070470333099
0.0924750864505767
0.0836427733302116
0.0729611814022064
0.0607062689960002
0.0473631024360656
0.0335773900151252
0.0200823117047548
0.0076133892871439
-0.0031773513182997
-0.011794994585216
-0.0179557725787162
-0.0216176938265562
-0.0229805521667003
-0.0224493313580751
-0.0205667223781347
-0.0179318152368068
-0.0151213929057121
-0.0126276146620512
-0.0108189191669225
-0.0099158715456724
-0.0099766459316015
-0.010901253670454
-0.0124614685773849
-0.0143512971699237
-0.0162428505718708
-0.0178321152925491
-0.0188718438148498
-0.0191981382668018
-0.0187563747167587
-0.0176272094249725
-0.0160457603633403
-0.014398667961359
-0.0131833106279373
-0.0129323974251747
-0.0141260623931884
-0.0171074829995632
-0.0220125764608383
-0.0287304706871509
-0.0369048975408077
-0.0459722578525543
-0.0552288517355918
-0.0639218091964721
-0.0713502615690231
-0.0769534483551979
-0.0803711041808128
-0.0814736410975456
-0.0803601369261741
-0.0773268565535545
-0.0728151425719261
-0.0673498585820198
-0.0614814683794975
-0.0557342246174812
-0.0505534335970878
-0.0462574064731597
-0.0430087186396122
-0.0408092550933361
-0.0395177565515041
-0.0388876684010028
-0.0386167839169502
-0.0383994579315185
-0.0379728600382804
-0.0371490158140659
-0.0358344055712223
-0.0340459756553173
-0.0319258645176887
-0.0297510139644145
-0.0279267653822898
-0.0269431993365287
-0.0272867046296596
-0.0293322205543518
-0.0332531109452247
-0.0389719158411026
-0.0461581125855445
-0.0542667582631111
-0.0626075267791748
-0.0704312250018119
-0.0770183429121971
-0.0817588865756988
-0.0842164605855941
-0.0841677039861679
-0.0816123858094215
-0.0767620056867599
-0.0700135007500648
-0.0619015768170356
-0.0530307926237583
-0.0440035238862037
-0.0353533178567886
-0.0274883266538381
-0.0206552594900131
-0.0149309858679771
-0.0102398870512843
-0.0063888262957334
-0.0031108353286981
-0.0001125745475292
0.0028791138902306
0.0060818726196885
0.0096405129879713
0.0136149553582072
0.0179558526724576
0.022479448467493
0.026870060712099
0.0307154599577188
0.0335639454424381
0.034997709095478
0.0347117856144905
0.0325798094272613
0.0286926366388797
0.0233605057001113
0.0170782953500747
0.0104655362665653
0.0041928132995963
-0.0010951114818453
-0.0048488024622201
-0.0066752061247825
-0.006390337832272
-0.0040472745895385
7.592421025037766e-05
0.0055238101631402
0.0117360465228557
0.0181320458650589
0.0241867136210203
0.029483675956726
0.0337471440434455
0.036855474114418
0.0388376675546169
0.0398540720343589
0.040161095559597
0.040064238011837
0.0398698225617408
0.0398384109139442
0.0401437431573867
0.0408544465899467
0.0419396087527275
0.0432766899466514
0.0446533262729644
0.0457739010453224
0.0462835878133773
0.0458155274391174
0.0440565608441829
0.04081467166543
0.036067146807909
0.0299783665686845
0.022885562852025
0.0152605362236499
0.0076622376218438
0.0006794026121497
-0.0051427260041236
-0.0093734422698616
-0.0117436861619353
-0.0121677573770284
-0.0107431374490261
-0.0077270241454243
-0.0034921178594231
0.0015290873125195
0.0069003589451313
0.012229623273015
0.0172046273946762
0.021616032347083
0.0253675282001495
0.0284699499607086
0.0310182888060808
0.033154908567667
0.0350274853408336
0.0367553122341632
0.0384125150740146
0.0400273129343986
0.0415920056402683
0.0430726706981658
0.0444080419838428
0.045498140156269
0.0461915507912635
0.0462809354066848
0.0455155074596405
0.0436361692845821
0.0404268838465213
0.0357647463679313
0.0296558439731597
0.0222515389323234
0.0138411410152912
0.0048229582607746
-0.004337029531598
-0.0131496172398328
-0.0211467836052179
-0.02792764082551
-0.0332021825015544
-0.0368205644190311
-0.0387799926102161
-0.0392137952148914
-0.0383699163794517
-0.0365785844624042
-0.0342061407864093
-0.0316001996397972
-0.0290414001792669
-0.0267180316150188
-0.0247273351997137
-0.0230905190110206
-0.0217687655240297
-0.0206783935427665
-0.0197040997445583
-0.0187111143022775
-0.01756177470088
-0.0161358099430799
-0.0143481753766536
-0.0121637973934412
-0.0096128098666667
-0.0068054646253585
-0.0039396286010742
-0.0012913830578327
0.0008150599896907
0.0020498894155025
0.0021253563463687
0.0008481591939926
-0.0018321387469768
-0.0057953726500272
-0.0107549373060464
-0.0162925794720649
-0.0219140406697988
-0.0271137878298759
-0.031436126679182
-0.0345256924629211
-0.036165215075016
-0.0362927392125129
-0.0349956043064594
-0.0324882194399833
-0.0290756542235612
-0.0251056887209415
-0.0209224466234445
-0.0168322511017322
-0.0130785638466477
-0.0098223015666008
-0.0071338377892971
-0.0050012711435556
-0.0033512990921735
-0.0020744930952787
-0.0010477360337972
-0.0001528281718492
0.0007074624300003
0.001598497852683
0.002550708130002
0.0035615637898445
0.0045958571135997
0.0055761225521564
0.0063644666224718
0.0067563224583864
0.0065039284527301
0.0053630713373422
0.0031458549201488
-0.0002307351678609
-0.0047090128064155
-0.0100815938785672
-0.0160136800259351
-0.0220851022750139
-0.0278405807912349
-0.0328421965241432
-0.0367174074053764
-0.0391950756311416
-0.0401272028684616
-0.0395018197596073
-0.0374470241367816
-0.034214612096548
-0.0301401689648628
-0.025593439117074
-0.0209326967597007
-0.0164678581058979
-0.0124344369396567
-0.0089797228574752
-0.0061591826379299
-0.0039409371092915
-0.0022192688193172
-0.0008367076516151
0.0003907121717929
0.0016505466774106
0.0031138085760176
0.0049127293750643
0.0071154478937387
0.0097067365422844
0.012581717222929
0.0155503936111927
0.0183508023619651
0.0206740777939558
0.0222037695348262
0.0226655397564172
0.0218784864991903
0.0197936985641717
0.0165078025311231
0.012252377346158
0.0073675056919455
0.0022667804732918
-0.0026039443910121
-0.0068172942847013
-0.0100212153047323
-0.0119833759963512
-0.0126079767942428
-0.011929964646697
-0.0100967157632112
-0.0073396805673837
-0.0039392691105604
-0.000190669670701
0.0036241319030523
0.0072590131312608
0.0105228098109364
0.0132948830723762
0.0155335906893014
0.0172732714563608
0.0186125896871089
0.0196938049048185
0.0206693634390831
0.0216691475361585
0.0227842442691326
0.0240630619227886
0.0255087297409772
0.0270742736756801
0.0286558922380208
0.0300867725163698
0.0311400853097438
0.0315511263906955
0.0310587137937545
0.0294540654867887
0.0266237407922744
0.0225820317864418
0.0174892954528331
0.0116427252069115
0.0054353699088096
-0.00069429166615
-0.0063048973679542
-0.0109936334192752
-0.0144392512738704
-0.016435258090496
-0.0169059410691261
-0.0159070566296577
-0.0136143248528242
-0.0102997776120901
-0.0062967259436845
-0.0019600447267293
0.0023717768490314
0.006413422524929
0.0099636521190404
0.0129156364127993
0.015245096758008
0.0169929563999176
0.0182511284947395
0.0191467907279729
0.0198229253292083
0.0204187724739313
0.0210544373840093
0.0218182299286127
0.0227524228394031
0.0238389372825622
0.0249888468533754
0.0260374285280704
0.0267498772591352
0.0268478617072105
0.0260592550039291
0.0241724643856287
0.0210717562586069
0.0167540423572063
0.011339807882905
0.0050763054750859
-0.0016763438470661
-0.008478102274239
-0.0148571692407131
-0.0203678198158741
-0.0246471334248781
-0.0274561028927564
-0.0286987163126468
-0.028422811999917
-0.0268064122647047
-0.024127572774887
-0.020719114691019
-0.0169228632003068
-0.0130567448213696
-0.0093892803415656
-0.0061148814857006
-0.0033388109877705
-0.0010790452361106
0.0007197139784693
0.0021657729521393
0.0033975397236645
0.0045617036521434
0.0057931030169129
0.0071959868073463
0.0088290739804506
0.0106957871466875
0.0127397235482931
0.0148430783301591
0.0168230272829532
0.0184307787567377
0.0193686597049236
0.0193318203091621
0.0180645957589149
0.015414492227137
0.0113688362762331
0.0060675856657326
-0.0002056467346847
-0.0070503773167729
-0.0139905121177434
-0.020526060834527
-0.0261895526200532
-0.0305985230952501
-0.033493410795927
-0.0347553715109825
-0.0344106145203113
-0.0326266884803772
-0.0296923033893108
-0.0259746760129928
-0.021863218396902
-0.0177155993878841
-0.0138185620307922
-0.0103648547083139
-0.0074445107020437
-0.0050526554696261
-0.0031087794341146
-0.0014778613112866
5.043111741542816e-06
0.0015050899237394
0.0031642327085137
0.0050888340920209
0.0073379520326852
0.0099077140912413
0.0127203222364187
0.0156228356063365
0.0183923579752445
0.0207484588027
0.0223777368664741
0.0229716021567583
0.0222717206925153
0.0201143249869346
0.0164657887071371
0.0114415073767304
0.0053031728602945
-0.0015650363638997
-0.0086942389607429
-0.0155730005353689
-0.0216977037489414
-0.0266356859356164
-0.0300829466432333
-0.0318947993218898
-0.0320867002010345
-0.0308137889951467
-0.0283374357968568
-0.024984136223793
-0.0211005993187427
-0.0170115437358617
-0.0129877049475908
-0.0092253303155303
-0.005836896598339
-0.0028553288429975
-0.0002462686970829
0.0020796479657292
0.0042475201189517
0.006385357119143
0.0085935620591044
0.0109331225976347
0.013428152538836
0.0160709917545318
0.018823629245162
0.0216115154325962
0.0243082232773304
0.0267212018370628
0.0285963341593742
0.0296466089785099
0.0295936986804008
0.0282119028270244
0.0253727529197931
0.0210844781249761
0.0155089050531387
0.0089476136490702
0.0018095594132319
-0.0054298546165227
-0.0122755542397499
-0.0182607546448707
-0.022993205115199
-0.0261943265795707
-0.0277232080698013
-0.0275840014219284
-0.0259189512580633
-0.0229863785207271
-0.0191219430416822
-0.0146878445520997
-0.0100223254412412
-0.0054033380001783
-0.0010338425636291
0.0029585822485387
0.0065198270604014
0.0096645848825573
0.0124642681330442
0.0150294639170169
0.0174886472523212
0.0199640057981014
0.022548634558916
0.0252920966595411
0.028196120634675
0.0312097482383251
0.0342162661254406
0.0370211564004421
0.0393563546240329
0.0409077741205692
0.0413578934967517
0.0404305569827556
0.0379362516105175
0.0338171198964118
0.0281795654445886
0.021300571039319
0.0136055909097194
0.0056266263127326
-0.0020533492788672
-0.0088684204965829
-0.014340441673994
-0.0181361436843872
-0.0201018452644348
-0.0202732011675834
-0.0188570953905582
-0.0161881204694509
-0.012677676975727
-0.0087733380496501
-0.0049208579584956
-0.0015154611319303
0.0011479835957288
0.0029058223590254
0.0037307385355234
0.0037167742848396
0.0030488651245832
0.0019625145941972
0.0007055420428514
-0.0004915669560432
-0.0014396123588085
-0.0020091645419597
-0.0021408963948488
-0.0018508955836296
-0.0012415703386068
-0.0005200076848268
-2.501532435417176e-06
-8.112005889415741e-05
-0.0011542961001396
-0.0035468954592943
-0.0074426513165235
-0.0128391087055206
-0.0195320025086402
-0.0271328426897525
-0.03511468693614
-0.0428743511438369
-0.0498008579015731
-0.0553443506360054
-0.0590762868523597
-0.0607302710413932
-0.0602248013019561
-0.0576731748878955
-0.0533722266554832
-0.0477611534297466
-0.0413565672934055
-0.0346796326339244
-0.0281939469277858
-0.0222645830363035
-0.0171346813440322
-0.0129153924062848
-0.0095923831686377
-0.0070478878915309
-0.0050897188484668
-0.0034846016205847
-0.0019929523114115
-0.0003946170036215
0.0014916707295924
0.0037817736156284
0.0064959577284753
0.0095374472439289
0.0126834390684962
0.0155933331698179
0.0178441889584064
0.0189953260123729
0.018668882548809
0.0166245307773351
0.0128118563443422
0.007393505424261
0.0007349480874836
-0.006636104080826
-0.0140883335843682
-0.0209560319781303
-0.0266190506517887
-0.0305849052965641
-0.0325498022139072
-0.032422374933958
-0.0303148794919252
-0.0265113152563571
-0.0214189793914556
-0.015513876453042
-0.0092870183289051
-0.0031917449086904
0.0024029798805713
0.0072450591251254
0.0112146018072962
0.0143208857625722
0.0166828148066997
0.0185004565864801
0.020018933340907
0.0214822590351104
0.0230915173888206
0.0249842777848243
0.0272279512137174
0.0298106279224157
0.0326259098947048
0.0354588776826858
0.0379864796996116
0.0398053526878356
0.0404877215623855
0.0396550670266151
0.0370546467602252
0.032622292637825
0.0265184696763753
0.0191265512257814
0.0110063217580318
0.0028127394616603
-0.0047931727021932
-0.0112181231379508
-0.015991011634469
-0.0188034120947122
-0.0195355731993913
-0.0182635523378849
-0.0152428764849901
-0.0108661521226167
-0.0056046452373266
5.037523806095123e-05
0.0056401956826448
0.0107810022309422
0.0151943825185298
0.0187300648540258
0.0213723443448543
0.0232183448970317
0.0244405437260866
0.0252523738890886
0.0258802082389593
0.0265383943915367
0.0274040214717388
0.0285916477441787
0.0301321372389793
0.0319554954767227
0.0338767543435096
0.0355930775403976
0.0367060303688049
0.0367771387100219
0.0354117378592491
0.0323473438620567
0.0275132022798061
0.0210472270846366
0.0132805798202753
0.0047012502327561
-0.0040967483073472
-0.0124730682000517
-0.0198088586330413
-0.0255794897675514
-0.0294160041958093
-0.0311409328132867
-0.0307794399559497
-0.0285480786114931
-0.0248196851462125
-0.0200690906494855
-0.014807054772973
-0.0095109734684228
-0.0045711486600339
-0.000266158778686
0.0032430570572614
0.0059121674858033
0.0078043770045042
0.0090716052800416
0.0099262967705726
0.0106074605137109
0.011346130631864
0.0123328920453786
0.0136904027312994
0.0154523774981498
0.0175480600446462
0.0197947323322296
0.0219041537493467
0.023506324738264
0.0241898093372583
0.0235574059188365
0.0212956201285123
0.0172468889504671
0.011460555717349
0.0042031500488519
-0.0040704328566789
-0.0127728385850787
-0.0212548747658729
-0.028877442702651
-0.0350787192583084
-0.0394366830587387
-0.0417171567678451
-0.0418925955891609
-0.0401281714439392
-0.0367433652281761
-0.0321636795997619
-0.026871807873249
-0.0213557891547679
-0.0160546116530895
-0.011312692426145
-0.0073517099954187
-0.0042589455842971
-0.0019907914102077
-0.0003931913524866
0.0007630446925759
0.001740195788443
0.0027914494276046
0.0041231513023376
0.0058682570233941
0.0080736158415675
0.0106944413855671
0.0135845728218555
0.0164829418063163
0.0190197620540857
0.0207599364221096
0.0212727412581443
0.0202099811285734
0.0173764340579509
0.0127736795693635
0.0066079497337341
-0.0007343906909227
-0.0087330918759107
-0.0167886428534984
-0.0242803487926721
-0.0306323952972888
-0.0353824123740196
-0.038232147693634
-0.039071001112461
-0.0379812195897102
-0.0352239608764648
-0.0311965700238943
-0.0263685900717973
-0.0212162490934133
-0.016166703775525
-0.0115550458431243
-0.0075980890542268
-0.0043868413195014
-0.0018938956782221
7.059425115585327e-06
0.0015111844986677
0.0028457380831241
0.0042333053424954
0.005862658843398
0.007867774926126
0.0103095630183815
0.0131602333858609
0.0162947606295347
0.0194906424731016
0.022436786442995
0.024759005755186
0.0260689109563827
0.0260287169367074
0.0244153346866369
0.0211694277822971
0.0164168737828731
0.0104572530835866
0.0037278141826391
-0.0032448004931211
-0.0098999654874205
-0.015707517042756
-0.0202354602515697
-0.0232012718915939
-0.0244912467896938
-0.0241517256945371
-0.0223665758967399
-0.0194280799478292
-0.015699615702033
-0.0115706818178296
-0.0074113178998231
-0.0035336809232831
-0.0001643914729356
0.0025699632242321
0.0046434439718723
0.0061224205419421
0.0071508260443806
0.0079225311055779
0.0086393021047115
0.0094703873619437
0.0105312755331397
0.0118803102523088
0.0135190412402153
0.015387374907732
0.0173536222428083
0.0192059613764286
0.0206587556749582
0.0213844776153564
0.021066190674901
0.0194553956389427
0.0164235383272171
0.0119994897395372
0.0063847415149211
-6.292760372161865e-05
-0.0068778693675994
-0.0135488184168934
-0.019576171413064
-0.0245220549404621
-0.0280518308281898
-0.0299632623791694
-0.0302040204405784
-0.0288729891180992
-0.0262009631842374
-0.0225167218595743
-0.0182067938148975
-0.0136731239035725
-0.0092898700386285
-0.0053624408319592
-0.0020953575149178
0.0004210490733385
0.002197878435254
0.0033195577561855
0.0039183255285024
0.0041556898504495
0.0042067905887961
0.0042436439543962
0.0044151972979307
0.0048255994915962
0.0055148750543594
0.0064432881772518
0.0074784215539693
0.0083941854536533
0.0088945142924785
0.0086614079773426
0.0074173137545585
0.004983726888895
0.0013174787163734
-0.0034759156405925
-0.0091461949050426
-0.0153210768476128
-0.0215467829257249
-0.0273412577807903
-0.0322511047124862
-0.0359017327427864
-0.0380371510982513
-0.0385467931628227
-0.0374728329479694
-0.0349970236420631
-0.0314116664230823
-0.027076356112957
-0.0223648212850093
-0.0176196452230215
-0.0131286131218075
-0.00911321118474
-0.0057155918329954
-0.002987049985677
-0.0008881303947418
0.000698018237017
0.0019434923306107
0.0030472548678517
0.0042041791602969
0.005576659925282
0.0072695240378379
0.009308292530477
0.0116230249404907
0.0140417516231536
0.0163034126162529
0.0180923640727996
0.0190818607807159
0.0189818441867828
0.0175918769091367
0.0148480050265789
0.0108497161418199
0.0058596669696271
0.0002747173421084
-0.0054253134876489
-0.0107387797906994
-0.0152030726894736
-0.0184494480490684
-0.0202438179403543
-0.0205064229667186
-0.0193091183900833
-0.0168499704450368
-0.0134141072630882
-0.0093379449099302
-0.004978708922863
-0.0006808210164308
0.0032601561397314
0.0066311508417129
0.0093243708834052
0.0113372867926955
0.0127539094537496
0.0137215536087751
0.0144249964505434
0.0150581188499927
0.0157965775579214
0.0167733430862426
0.0180631056427955
0.0196740124374628
0.0215331669896841
0.0234676953405141
0.0252046156674623
0.0264036227017641
0.0267137736082077
0.025838129222393
0.0235942099243402
0.0199589952826499
0.0150869991630315
0.0092952465638518
0.0030216695740818
-0.0032299626618623
-0.0089502986520528
-0.0136843081563711
-0.0170815121382474
-0.0189274586737155
-0.0191591288894414
-0.0178693532943725
-0.0152923073619604
-0.0117646474391222
-0.0076727885752916
-0.0034018438309431
0.0007047802209854
0.0043752621859312
0.0074311317875981
0.0097993463277816
0.0115102194249629
0.0126788979396224
0.0134770376607775
0.0141045432537794
0.0147633608430624
0.015633251518011
0.0168489553034305
0.0184746086597442
0.0204797983169555
0.0227280743420124
0.0249814987182617
0.0269213020801544
0.0281871370971202
0.028433158993721
0.0273884199559688
0.0249061081558465
0.0209933742880821
0.015818003565073
0.0096913035959005
0.0030334331095218
-0.0036690002307295
-0.0099095534533262
-0.0152182281017303
-0.019223541021347
-0.0216985754668712
-0.0225769951939582
-0.0219447333365678
-0.0200148075819015
-0.017089432105422
-0.013516909442842
-0.0096501633524894
-0.0058096284046769
-0.0022534606978297
0.0008403696119785
0.0033801402896642
0.0053588058799505
0.0068472926504909
0.007982013747096
0.0089397579431533
0.0098993331193923
0.011007766239345
0.012363045476377
0.0140083692967891
0.0159308537840843
0.0180569291114807
0.0202414020895957
0.0222622416913509
0.0238341726362705
0.0246416274458169
0.0243854373693466
0.022834563627839
0.0198718179017305
0.0155273796990513
0.0099942339584231
0.003611936001107
-0.0031819550786167
-0.0099074095487594
-0.0160880926996469
-0.0212943516671657
-0.0251859538257122
-0.0275485962629318
-0.028313485905528
-0.0275535099208354
-0.0254645161330699
-0.0223388634622097
-0.0185290612280368
-0.014405932277441
-0.0103184450417757
-0.0065557630732655
-0.0033158555161207
-0.0006942371837794
0.0013028117828071
0.0027362378314137
0.0037178369238972
0.0043990132398903
0.0049572857096791
0.0055756592191755
0.0064184460788965
0.0076092826202511
0.0092117814347147
0.011211953125894
0.0135035179555416
0.0158809106796979
0.018048794940114
0.0196561142802238
0.0203518327325582
0.0198427625000476
0.0179373323917388
0.014576943591237
0.0098559483885765
0.0040216101333498
-0.0025510787963867
-0.0094026764854788
-0.0160399414598941
-0.0219884775578975
-0.026842463761568
-0.0303060002624988
-0.0322222150862216
-0.0325846895575523
-0.0315277613699436
-0.0292972326278686
-0.0262065567076206
-0.0225919634103775
-0.0187785737216472
-0.015053485520184
-0.0116401351988315
-0.0086790462955832
-0.0062211817130446
-0.0042340257205069
-0.0026173403020948
-0.0012254493776708
0.0001064075622707
0.0015356088988482
0.0031899008899927
0.0051500150002539
0.0074378885328769
0.0100137460976839
0.0127806849777698
0.0155854225158691
0.0182093549519777
0.0203677341341972
0.0217363275587558
0.0220008045434951
0.0209137350320816
0.0183461457490921
0.0143196247518062
0.0090111754834651
0.0027348110452294
-0.0040909703820943
-0.0109841171652078
-0.0174466799944639
-0.0230167601257562
-0.0273172128945589
-0.0300901532173156
-0.0312171541154384
-0.0307316370308399
-0.0288144256919622
-0.0257627461105585
-0.0219408515840768
-0.0177262183278799
-0.0134630789980292
-0.009428315795958
-0.0058091459795832
-0.0026957271620631
-8.898047963157296e-05
0.0020827702246606
0.0039430907927453
0.0056447898969054
0.0073482738807797
0.0092016346752643
0.0113186473026871
0.013756395317614
0.0165032409131526
0.0194803234189748
0.0225467626005411
0.0255021248012781
0.0280919726938009
0.0300268605351448
0.0310180839151144
0.0308219902217388
0.0292813722044229
0.0263567697256803
0.0221433974802494
0.0168713629245758
0.0108893802389502
0.004634141921997
-0.0014170631766319
-0.0068092579022049
-0.0111675048246979
-0.0142311733216047
-0.0158700421452522
-0.0160892382264137
-0.0150209357962012
-0.01290188357234
-0.0100384373217821
-0.006765435449779
-0.0034094383008778
-0.0002609770745038
0.0024476489052176
0.0045609986409544
0.0060146637260913
0.0068401684984564
0.0071478560566902
0.0070874029770493
0.006810120306909
0.0064512994140386
0.0061248587444424
0.0059188259765505
0.0058909282088279
0.0060606747865676
0.0063927536830306
0.006778142414987
0.0070253331214189
0.0068719629198312
0.0060204248875379
0.0041890367865562
0.0011683478951454
-0.0031234351918101
-0.0086031993851065
-0.0150232035666704
-0.022001726552844
-0.0290660988539457
-0.0357025787234306
-0.0414106659591198
-0.0457574129104614
-0.0484272949397563
-0.0492602512240409
-0.0482679195702075
-0.045624241232872
-0.0416368022561073
-0.0367043241858482
-0.0312629751861095
-0.025731036439538
-0.0204653684049844
-0.0157444309443235
-0.0117784459143877
-0.0087207844480872
-0.0066590257920324
-0.0055944696068763
-0.0054370379075407
-0.006032629404217
-0.0072096842341125
-0.0088157355785369
-0.0107295643538236
-0.0128553286194801
-0.015115737915039
-0.0174612160772085
-0.0198965147137641
-0.0225090682506561
-0.025480855256319
-0.0290724877268075
-0.0335759110748767
-0.0392394885420799
-0.0461798049509525
-0.0543021745979785
-0.0632467418909072
-0.0723715350031852
-0.0807941332459449
-0.0875067338347435
-0.0915315747261047
-0.092058464884758
-0.0885384827852249
-0.0807354375720024
-0.068730890750885
-0.0528842285275459
-0.0337742790579795
-0.0121497586369514
0.0111209042370319
0.0351402051746845
0.0591195411980152
0.0825133547186851
0.1050982400774955
0.1269871890544891
0.1485869288444519
0.1705013215541839
0.1933948993682861
0.2178500741720199
0.2442422062158584
0.2726204991340637
0.302580177783966
0.3331765234470367
0.3629955053329468
0.3904455602169037
0.4141671061515808
0.4333285987377167
0.4476369023323059
0.4570949971675873
0.4616994857788086
0.4612531363964081
0.4553451240062713
0.4434745013713836
0.4252734780311584
0.4007690250873565
0.3705960512161255
0.3360674977302551
0.2990473210811615
0.2616520524024963
0.2258816659450531
0.1932935118675232
0.1647740006446838
0.1404277682304382
0.119618147611618
0.1011739373207092
0.0837062001228332
0.0659403502941131
0.0469887554645538
0.0265139043331146
0.0047461986541748
-0.0176408588886261
-0.0397493541240692
-0.0607102215290069
-0.0799158811569213
-0.0971742868423461
-0.112760990858078
-0.1274048089981079
-0.1422423422336578
-0.1587298512458801
-0.1784887313842773
-0.2030914723873138
-0.2338241636753082
-0.2714715600013733
-0.3161649703979492
-0.3673186302185058
-0.4236572980880737
-0.4833286106586456
-0.5440906882286072
-0.6035533547401428
-0.6594327092170715
-0.7097569704055786
-0.7529704570770264
-0.7879531383514404
-0.8140244483947754
-0.83095782995224
-0.838980495929718
-0.8387322425842285
-0.8311719298362732
-0.8174393773078918
-0.798704981803894
-0.7760456800460815
-0.750361979007721
-0.722334623336792
-0.6924154758453369
-0.6608443260192871
-0.6276876926422119
-0.5929034948348999
-0.5564189553260803
-0.5181931853294373
-0.4782396554946899
-0.4365959763526916
-0.3932726979255676
-0.3482435047626495
-0.3014919459819793
-0.2530840039253235
-0.2032290995121002
-0.1522974073886871
-0.1007977277040481
-0.049347311258316
0.0013636946678161
0.0506310164928436
0.0978117883205413
0.1424042880535125
0.1841198354959488
0.2229165285825729
0.2589801251888275
0.29267218708992
0.3244590759277344
0.354815274477005
0.3841033279895782
0.4124667346477508
0.4397920966148376
0.4657604098320007
0.4899515509605407
0.5119549632072449
0.5314558744430542
0.5482737421989441
0.5623274445533752
0.5735298991203308
0.5816638469696045
0.5862837433815002
0.5866679549217224
0.5818619728088379
0.5708339810371399
0.5526900887489319
0.5268646478652954
0.4932394921779632
0.4521918296813965
0.4045895934104919
0.3517559170722961
0.2954141199588775
0.2376045882701873
0.1805577427148819
0.1265214830636978
0.0775677114725112
0.0354145467281341
0.0012814402580261
-0.0242189466953277
-0.041125863790512
-0.0500829815864563
-0.0522134006023407
-0.0489583611488342
-0.0419044196605682
-0.0326004326343536
-0.0223788321018219
-0.012233167886734
-0.0027793645858764
0.0057266056537628
0.0133333802223205
0.0203026831150054
0.0269993841648101
0.0337960422039032
0.0410289466381073
0.0490149557590484
0.05808886885643
0.0686103999614715
0.0809261500835418
0.0953142493963241
0.1119524240493774
0.1309207528829574
0.1522144228219986
0.1757417619228363
0.2013055384159088
0.2285695672035217
0.25701704621315
0.2859281599521637
0.3144146203994751
0.341513991355896
0.3663009405136108
0.3879745006561279
0.4059156477451324
0.4197245836257934
0.429226815700531
0.4344285130500793
0.435430645942688
0.4323312044143677
0.4251238107681274
0.4136044681072235
0.3973264098167419
0.3756390810012817
0.347815066576004
0.3132343888282776
0.2715643346309662
0.2228822112083435
0.1677371114492416
0.1071594581007957
0.0426181107759475
-0.0240750387310981
-0.0909030139446258
-0.1558039486408233
-0.2168302834033966
-0.2722900807857513
-0.320856511592865
-0.3616325259208679
-0.3941652178764343
-0.418422669172287
-0.4347574710845947
-0.4438698291778564
-0.4467589855194092
-0.4446412324905395
-0.4388238191604614
-0.4305624663829803
-0.4209414422512054
-0.4107873439788818
-0.4006095230579376
-0.3905622363090515
-0.3804300725460052
-0.3696491718292236
-0.3573865294456482
-0.3426795601844787
-0.3246020674705505
-0.3024188876152038
-0.2757035791873932
-0.2443930357694625
-0.2087714672088623
-0.1694116294384002
-0.1271144151687622
-0.0828584879636764
-0.0377296507358551
0.0071891732513904
0.0509306415915489
0.0926896184682846
0.1317789405584335
0.1675627082586288
0.199458435177803
0.2270243018865585
0.2500698864459991
0.2687072455883026
0.2832961976528168
0.2942940294742584
0.3020521998405456
0.3066104650497436
0.3075235188007355
0.3037713766098022
0.2938514947891235
0.2760916352272033
0.2490729093551635
0.211987018585205
0.164828211069107
0.1084387004375457
0.0444644838571548
-0.0247734785079956
-0.0965022146701812
-0.1677797436714172
-0.2357804328203201
-0.2980378866195678
-0.3526156842708587
-0.3981956243515014
-0.4340965449810028
-0.4602364897727966
-0.4770405888557434
-0.4853088855743408
-0.4860708713531494
-0.4804453551769256
-0.4695166945457458
-0.4542407989501953
-0.4353952407836914
-0.4135757088661194
-0.3892331719398498
-0.3627441823482513
-0.3345048427581787
-0.3050096035003662
-0.2748681902885437
-0.2447850406169891
-0.2155538201332092
-0.1880493760108947
-0.1631620526313781
-0.141671597957611
-0.1241129636764526
-0.1106773763895034
-0.1011617705225944
-0.0949740931391716
-0.0911980718374252
-0.088702380657196
-0.0862715095281601
-0.0827388167381286
-0.0771027207374572
-0.0686096549034118
-0.0567998588085174
-0.0415180623531341
-0.0229003131389617
-0.0013542473316192
0.0224708020687103
0.0477364957332611
0.0734866261482238
0.0987390279769897
0.1226020902395248
0.1443886756896972
0.1636968255043029
0.1804470866918563
0.1948672831058502
0.2074219584465026
0.218702882528305
0.2293049842119217
0.2397112548351287
0.2502039670944214
0.2608073353767395
0.2712700366973877
0.2811045944690704
0.2896846830844879
0.2963695228099823
0.3006233274936676
0.3021093308925628
0.30074143409729
0.2966899573802948
0.2903522551059723
0.2822972238063812
0.2731905579566955
0.2637112140655517
0.2544722557067871
0.2459598034620285
0.2384949028491974
0.2322100698947906
0.2270393818616867
0.2227372378110885
0.2189309448003769
0.2151914685964584
0.2111065089702606
0.2063453197479248
0.2007039785385131
0.1941240727901458
0.1866863220930099
0.1785858273506164
0.1700964570045471
0.1615285277366638
0.1531825363636016
0.1453085094690323
0.1380772441625595
0.131551057100296
0.12564417719841
0.1200940385460853
0.1144749000668525
0.1082590371370315
0.1009066104888916
0.091961070895195
0.0811331123113632
0.0683645084500312
0.0538638308644294
0.0381017364561557
0.0217624716460704
0.005662128329277
-0.0093506686389446
-0.0224939696490764
-0.0331388413906097
-0.0408819541335105
-0.0455997437238693
-0.0474646538496017
-0.0469109117984771
-0.0445604845881462
-0.0411310642957687
-0.0373419634997844
-0.0338279530405998
-0.0310742333531379
-0.0293812751770019
-0.0288574323058128
-0.0294339805841445
-0.0308998823165893
-0.0329537019133567
-0.0352610647678375
-0.0375043377280235
-0.0394288152456283
-0.0408941805362701
-0.0419202446937561
-0.0427073016762733
-0.0436217635869979
-0.0451459735631942
-0.0477962344884872
-0.0520218312740325
-0.0581064075231552
-0.0660957992076873
-0.0757676735520362
-0.0866479501128196
-0.0980695337057113
-0.109259657561779
-0.1194399744272232
-0.1279224604368209
-0.1341912895441055
-0.1379692107439041
-0.1392542570829391
-0.1383085250854492
-0.135602980852127
-0.1317377835512161
-0.1273531317710876
-0.1230409294366836
-0.1192723363637924
-0.1163531243801117
-0.1144064962863922
-0.1133828535676002
-0.1130940243601799
-0.1132605299353599
-0.1135603711009025
-0.1136743053793907
-0.1133315488696098
-0.1123586520552635
-0.1107188612222671
-0.1085299178957939
-0.1060630157589912
-0.1037230864167213
-0.1020014882087707
-0.1013998165726661
-0.1023387238383293
-0.1050723865628242
-0.1096243783831596
-0.1157583892345428
-0.1229941025376319
-0.130664512515068
-0.1379989683628082
-0.14421346783638
-0.1486002802848816
-0.1506154239177703
-0.1499469131231308
-0.1465443074703216
-0.1406088173389434
-0.1325511038303375
-0.1229268535971641
-0.1123623922467231
-0.1014792248606681
-0.0908258259296417
-0.0808225274085998
-0.071725457906723
-0.0636177137494087
-0.0564254708588123
-0.0499488376080989
-0.043904036283493
-0.0379775203764438
-0.0318873226642608
-0.025440439581871
-0.0185775514692068
-0.0114025827497243
-0.0041931290179491
0.0026172585785388
0.0084927380084991
0.0128809046000242
0.0153163783252239
0.0155233908444643
0.0134913651272654
0.0095022236928343
0.004107242450118
-0.001937817200087
-0.0077682430855929
-0.0125248814001679
-0.0154714491218328
-0.0160886589437723
-0.0141247380524873
-0.0096039455384016
-0.0028058029711246
0.0057794339954853
0.0155213773250579
0.0257383603602647
0.0357831232249736
0.045111708343029
0.0533333756029605
0.0602387599647045
0.0658043920993805
0.0701745077967643
0.073621317744255
0.0764856487512588
0.0791075527667999
0.0817655101418495
0.0846339389681816
0.0877516120672226
0.090994618833065
0.09406428784132
0.0965088084340095
0.0977848768234252
0.0973505526781082
0.0947741866111755
0.0898357778787612
0.0825948566198349
0.0734103918075561
0.0629124343395233
0.0519328154623508
0.0414011031389236
0.0322159677743911
0.0251218043267726
0.0206219926476478
0.0189362950623035
0.0199970826506614
0.0234804861247539
0.0288664549589157
0.0355149842798709
0.0427470579743385
0.0499228946864604
0.0565091259777545
0.0621269941329956
0.0665761828422546
0.0698345452547073
0.0720359906554222
0.0734248906373977
0.0742941945791244
0.0749278664588928
0.075561836361885
0.0763560384511947
0.0773643180727958
0.078503206372261
0.079531505703926
0.080056607723236
0.0795813053846359
0.0775888040661811
0.0736436545848846
0.0674841105937957
0.0590906254947185
0.0487202480435371
0.0368996933102607
0.0243698991835117
0.0119852609932422
0.0005957745015621
-0.0090560652315616
-0.0164115950465202
-0.0211438350379467
-0.0231766887009143
-0.0226762704551219
-0.0200143083930015
-0.0157085545361042
-0.0103513076901435
-0.0045359842479228
0.001210918650031
0.0064832028001546
0.0110253607854247
0.0147389713674783
0.0176653638482093
0.0199473351240158
0.0217842664569616
0.0233922079205513
0.0249693542718887
0.0266652479767799
0.0285489782691001
0.0305726565420627
0.0325391292572021
0.0340927504003047
0.0347480960190296
0.0339591838419437
0.0312203858047723
0.0261774975806474
0.0187202133238315
0.0090351188555359
-0.0023946650326251
-0.0148473912850022
-0.0274591743946075
-0.0393304228782653
-0.0496269129216671
-0.0576716363430023
-0.0630188584327697
-0.0654935836791992
-0.065189279615879
-0.0624314881861209
-0.0577171370387077
-0.0516421236097812
-0.044829461723566
-0.0378612801432609
-0.0312175545841455
-0.0252301897853612
-0.0200637876987457
-0.0157292038202285
-0.0121180182322859
-0.0090403519570827
-0.0062613654881715
-0.0035385992377996
-0.0006609335541725
0.0025122314691543
0.006012188270688
0.0097236707806587
0.0133601836860179
0.0164698511362075
0.0184823330491781
0.018793985247612
0.0168809071183204
0.0124199967831373
0.005379443988204
-0.0039533898234367
-0.0150012718513607
-0.0269624106585979
-0.0389000698924064
-0.0498487055301666
-0.0589262917637825
-0.0654369741678237
-0.0689440071582794
-0.0693010538816452
-0.0666435658931732
-0.0613469630479812
-0.0539581663906574
-0.0451063551008701
-0.0353968515992164
-0.0252973400056362
-0.0150424931198358
-0.0045908926986157
0.0063446816056966
0.0181952305138111
0.0313948802649974
0.0462565869092941
0.0628968253731727
0.0812023431062698
0.1008278205990791
0.1212246268987655
0.1416878402233123
0.1613954305648803
0.1794312298297882
0.1948075592517852
0.2065101265907287
0.2135778814554214
0.2152066230773925
0.210850790143013
0.2003114223480224
0.1838011145591735
0.1619645804166793
0.1358398646116256
0.1067631840705871
