bvp
0.0181047972291708
0.0113015389069914
0.0030618263408541
-0.0061086472123861
-0.0155788026750087
-0.0246689394116401
-0.032730396836996
-0.0392166227102279
-0.0437413714826107
-0.0461159907281398
-0.0463563129305839
-0.0446616262197494
-0.0413749366998672
-0.036929678171873
-0.0317892543971538
-0.0263924319297075
-0.02111242339015
-0.0162285193800926
-0.0119107030332088
-0.0082214269787073
-0.0051332945004105
-0.0025517391040921
-0.0003344577271491
0.001686391653493
0.0036711643915623
0.0057402439415454
0.0079612396657466
0.010353336110711
0.012894557788968
0.0155271515250206
0.0181574393063783
0.0206460617482662
0.0227948576211929
0.0243435520678758
0.0249857231974601
0.0244056563824415
0.0223319344222545
0.0186003427952528
0.0132125252857804
0.0063651576638221
-0.0015660300850868
-0.0100716352462768
-0.0185639671981334
-0.0264406986534595
-0.0331520140171051
-0.0382584035396575
-0.041472241282463
-0.0426808968186378
-0.0419484227895736
-0.039495799690485
-0.0356634892523288
-0.0308623239398002
-0.0255223624408245
-0.0200465619564056
-0.0147698242217302
-0.009930009022355
-0.0056632845662534
-0.0020202058367431
0.0010153291514143
0.0035133485216647
0.0055879214778542
0.0073844483122229
0.0090609015896916
0.0107645764946937
0.0126108452677726
0.0146681750193238
0.016949463635683
0.0194107051938772
0.0219528581947088
0.0244185980409383
0.0265881475061178
0.0281819310039281
0.028871988877654
0.0283132344484329
0.0262020025402307
0.022345395758748
0.016716830432415
0.0094837918877601
0.0010042982175946
-0.0082056932151317
-0.0175292193889617
-0.0263236034661531
-0.0340012833476066
-0.0400976128876209
-0.044315505772829
-0.0465455688536167
-0.0468586273491382
-0.0454756952822208
-0.0427300669252872
-0.0390245169401168
-0.034779880195856
-0.0303826835006475
-0.026144728064537
-0.0222842767834663
-0.0189306307584047
-0.0161409899592399
-0.0139167252928018
-0.0122146196663379
-0.0109557611867785
-0.0100402366369962
-0.0093698762357234
-0.0088685359805822
-0.0084896553307771
-0.0082161352038383
-0.0080631878226995
-0.0080796144902706
-0.0083413235843181
-0.0089464168995618
-0.010018516331911
-0.0117083042860031
-0.0141817703843116
-0.0175926517695188
-0.0220427196472883
-0.027540598064661
-0.0339724831283092
-0.041094820946455
-0.0485553108155727
-0.0559360906481742
-0.0628016367554664
-0.0687449350953102
-0.0734325051307678
-0.0766347497701644
-0.0782310962677002
-0.0781997591257095
-0.0766014829277992
-0.0735606849193573
-0.069251000881195
-0.063883252441883
-0.0576847642660141
-0.050869807600975
-0.0436195582151412
-0.0360907241702079
-0.0284456461668014
-0.0208689868450164
-0.013546347618103
-0.006623201072216
-0.0001769959926605
0.0057923421263694
0.0113590955734252
0.0166506394743919
0.0218103229999542
0.0269518792629241
0.0320999473333358
0.0371158495545387
0.0416371449828147
0.0450731217861175
0.0466759204864501
0.0456741154193878
0.0414352715015411
0.0336154624819755
0.0222601369023323
0.0078337639570236
-0.0088302493095397
-0.0266377329826354
-0.0443619042634964
-0.060775339603424
-0.0747827887535095
-0.0855427384376525
-0.0925568044185638
-0.0957097560167312
-0.0952540189027786
-0.09174045920372
-0.0859104096889495
-0.0785732418298721
-0.0704851448535919
-0.0622447580099105
-0.0542319864034652
-0.0466067939996719
-0.039353460073471
-0.0323294550180435
-0.0252923220396041
-0.017919972538948
-0.0098462104797363
-0.0007043480873107
0.0098338425159454
0.0220216810703277
0.0359999537467956
0.0517593473196029
0.0690980404615402
0.0875686556100845
0.106432020664215
0.1246624290943145
0.1410383582115173
0.1543083488941192
0.1633926779031753
0.1675785928964615
0.1666681766510009
0.161042034626007
0.1516265720129013
0.1397790908813476
0.1271204054355621
0.1153457015752792
0.1060432940721511
0.1005560308694839
0.0999117046594619
0.104825422167778
0.1157414615154266
0.1328441053628921
0.1559754759073257
0.1844660341739654
0.2169623374938964
0.2513798773288727
0.2850603461265564
0.3151016533374786
0.3387649059295654
0.3538684546947479
0.3590929210186004
0.3541388809680938
0.3397185206413269
0.3174044787883758
0.2893810272216797
0.2581403255462646
0.226153939962387
0.195561796426773
0.1679326295852661
0.144110694527626
0.1241360232234001
0.1072622239589691
0.0921101495623588
0.0769446641206741
0.0600131787359714
0.0398718081414699
0.0156400389969348
-0.0128525905311107
-0.0450462214648723
-0.0797502622008323
-0.115328848361969
-0.1499305069446563
-0.1817243099212646
-0.2091079950332641
-0.2308649718761444
-0.2462652623653412
-0.2551059126853943
-0.2576791942119598
-0.2546724677085876
-0.2470286637544632
-0.2358020097017288
-0.2220313996076584
-0.2066374570131302
-0.1903452575206756
-0.1736377775669098
-0.156739592552185
-0.1396259367465973
-0.1220549941062927
-0.1036203503608703
-0.0838194712996482
-0.0621388405561447
-0.0381550677120685
-0.0116406120359897
0.0173506066203117
0.0484479591250419
0.0809915363788604
0.1141020953655242
0.1467547714710235
0.177831158041954
0.2061650454998016
0.2306205332279205
0.2502057552337646
0.2641645669937134
0.2719812989234924
0.2733093500137329
0.2679125070571899
0.2556874752044678
0.2367445230484008
0.2114835232496261
0.1806313246488571
0.1452310234308242
0.1065792143344879
0.066122367978096
0.0253342688083648
-0.014406681060791
-0.0519199073314666
-0.0862873792648315
-0.1168796718120575
-0.1433519870042801
-0.165617823600769
-0.1838062405586242
-0.1982027292251587
-0.2091735154390335
-0.217090755701065
-0.2222799658775329
-0.224991500377655
-0.225393146276474
-0.2235927283763885
-0.2197005748748779
-0.2139246165752411
-0.2066658437252044
-0.1985657215118408
-0.190469741821289
-0.1833103150129318
-0.1779487431049347
-0.175026535987854
-0.1748607754707336
-0.1773961186408996
-0.1822139769792556
-0.1886011064052581
-0.195670872926712
-0.202500894665718
-0.2082397639751434
-0.2121684253215789
-0.2137307971715927
-0.212545245885849
-0.2084051668643951
-0.2012841999530792
-0.1913555562496185
-0.1790099740028381
-0.1648408025503158
-0.1495834439992904
-0.1340246200561523
-0.1189030259847641
-0.1048179790377616
-0.0921645835041999
-0.0811078175902366
-0.0715915560722351
-0.0633746534585952
-0.0560876131057739
-0.0493005961179733
-0.0425956025719642
-0.0356425791978836
-0.0282788425683975
-0.0205734372138977
-0.0128435119986534
-0.0056038573384284
0.0005385652184486
0.0050134509801864
0.0074077323079109
0.0075558573007583
0.0055841207504272
0.0019023120403289
-0.0028460919857025
-0.0078578740358352
-0.0122608803212642
-0.0152172073721885
-0.0160285905003547
-0.0142273996025323
-0.0096350777894258
-0.002377089112997
0.0071450769901275
0.0183138027787208
0.0303747858852148
0.0425277538597583
0.0540190748870372
0.064224824309349
0.0727105289697647
0.0792557075619697
0.0838473066687583
0.0866532698273658
0.0879794582724571
0.0882152542471885
0.0877803638577461
0.0870768576860427
0.0864395424723625
0.0860807672142982
0.0860393345355987
0.0861551314592361
0.0860888510942459
0.0853884741663932
0.083588995039463
0.0803206488490104
0.0753940716385841
0.0688457712531089
0.0609485767781734
0.0521895922720432
0.043213739991188
0.0347425006330013
0.0274827256798744
0.0220381543040275
0.0188362300395965
0.0180828738957643
0.0197505019605159
0.0235921498388052
0.0291758049279451
0.0359407290816307
0.0432705879211425
0.0505679994821548
0.0573126226663589
0.0630940720438957
0.0676285624504089
0.0707687884569168
0.0725043565034866
0.0729482099413871
0.0723095014691352
0.0708576738834381
0.0688856616616249
0.0666744410991668
0.0644502863287925
0.0623340308666229
0.0603030696511268
0.058187685906887
0.0557063780725002
0.0525332763791084
0.0483765713870525
0.0430432111024856
0.0364823527634143
0.0288108065724372
0.0203192010521888
0.0114513486623764
0.0027529699727892
-0.0052001914009451
-0.011875320225954
-0.0168404057621955
-0.0198014620691537
-0.0206216350197792
-0.0193274952471256
-0.0161028765141963
-0.0112656392157077
-0.005231368355453
0.0015242360532283
0.0085005899891257
0.0152094960212707
0.0212143324315547
0.0261645969003438
0.0298192240297794
0.0320556163787841
0.0328673794865608
0.0323536843061447
0.0306964945048093
0.0281255412846803
0.0248779244720935
0.0211545582860708
0.0170786492526531
0.0126761235296726
0.0078910626471042
0.0026220344007015
-0.0032382942736148
-0.0097602475434541
-0.0169330053031444
-0.0246329829096794
-0.0326146818697452
-0.0405259057879447
-0.0479443036019802
-0.0544289201498031
-0.059578463435173
-0.0630837306380271
-0.064762108027935
-0.0645728111267089
-0.0626165345311164
-0.0591179579496383
-0.0543921515345573
-0.0488081201910972
-0.0427608825266361
-0.0366462729871273
-0.0308290775865316
-0.0256073325872421
-0.0211832132190465
-0.0176492724567651
-0.0149925909936428
-0.0131134465336799
-0.011850256472826
-0.011004714295268
-0.010369230993092
-0.0097594615072011
-0.0090486444532871
-0.008194837719202
-0.0072498298250138
-0.0063485419377684
-0.0056862197816371
-0.0054817399941384
-0.0059273433871567
-0.0071415505371987
-0.0091391494497656
-0.0118186622858047
-0.0149678466841578
-0.0182891339063644
-0.0214401446282863
-0.0240807346999645
-0.0259177591651678
-0.0267396867275238
-0.026436872780323
-0.0250053275376558
-0.0225353799760341
-0.0191955100744962
-0.0152187282219529
-0.0108834123238921
-0.0064806593582034
-0.0022751009091734
0.0015280218794941
0.0048005515709519
0.0074925869703292
0.0096228588372468
0.0112632736563682
0.0125181218609213
0.0135009903460741
0.0143148060888051
0.0150333736091852
0.0156833436340093
0.0162339489907026
0.0165959298610687
0.0166280567646026
0.0161593370139598
0.0150291621685028
0.0131309423595666
0.0104425866156816
0.0070405136793851
0.0031021377071738
-0.0011049434542655
-0.0052520427852869
-0.0089922714978456
-0.01200539059937
-0.0140364356338977
-0.0149239730089902
-0.0146112665534019
-0.0131389331072568
-0.0106328446418046
-0.0072973854839801
-0.0034026112407445
0.0007482413202524
0.0048643816262483
0.0087064672261476
0.0121067743748426
0.0149712450802326
0.017271164804697
0.0190338008105754
0.020332533866167
0.0212727468460798
0.0219765696674585
0.0225658677518367
0.0231393761932849
0.0237489528954029
0.0243773907423019
0.0249230023473501
0.0252111796289682
0.0250359121710062
0.0242083948105573
0.0225983820855617
0.0201673209667205
0.016989167779684
0.0132529530674219
0.0092456843703985
0.0053172316402196
0.001832116395235
-0.0008812099695205
-0.0025710556656122
-0.0030853301286697
-0.0023787170648574
-0.000512845814228
0.0023471713066101
0.0059483703225851
0.009985189884901
0.01414305716753
0.0181316025555133
0.0217052530497312
0.0246793124824762
0.0269423015415668
0.0284608658403158
0.0292751118540763
0.0294841155409812
0.0292245335876941
0.0286462288349866
0.0278880819678306
0.027054963633418
0.026190735399723
0.02525095641613
0.0240992587059736
0.0225409474223852
0.020377043634653
0.0174564812332391
0.0137152671813964
0.009198049083352
0.0040641529485583
-0.0014186715707182
-0.0068971440196037
-0.0119735086336731
-0.0162562169134616
-0.0194110535085201
-0.0212027225643396
-0.0215180553495883
-0.0203768536448478
-0.0179354920983314
-0.0144703323021531
-0.0103346183896064
-0.0059045488014817
-0.001533355563879
0.0024799369275569
0.0059105618856847
0.0086200861260294
0.0105592906475067
0.0117610283195972
0.0123241199180483
0.0123911350965499
0.012127224355936
0.0117030013352632
0.0112723875790834
0.0109363347291946
0.0107029862701892
0.0104712601751089
0.0100518520921468
0.0092138433828949
0.0077371159568428
0.0054595465771853
0.0023148432374
-0.0016447458183392
-0.0062445709481835
-0.0111994836479425
-0.0161393657326698
-0.0206487271934747
-0.0243167001754045
-0.0267889145761728
-0.0278137642890214
-0.0272812563925981
-0.0252467412501573
-0.0219228565692901
-0.0176390912383794
-0.012788644991815
-0.007777985651046
-0.0029819789342582
0.001294188783504
0.0048406845889985
0.0075513957999646
0.0094169974327087
0.0105078890919685
0.0109514538198709
0.0109106581658124
0.0105670727789402
0.0101010221987962
0.0096596870571374
0.0093155736103653
0.0090354327112436
0.0086804293096065
0.0080381408333778
0.0068716257810592
0.0049711493775248
0.0021988861262798
-0.0014781951904296
-0.0059685627929866
-0.0110536282882094
-0.0164068173617124
-0.0216312408447265
-0.0263082105666399
-0.0300479531288146
-0.0325354970991611
-0.033569611608982
-0.0330905243754386
-0.0311857443302869
-0.0280694868415594
-0.0240435004234313
-0.0194529704749584
-0.0146476086229085
-0.009948487393558
-0.0056208269670605
-0.0018573410343378
0.0012272214516997
0.0035941302776336
0.0052735665813088
0.006352437660098
0.0069606676697731
0.0072597716934978
0.0074231554754078
0.0075987931340932
0.0078698266297578
0.0082309357821941
0.008583890274167
0.0087538827210664
0.0085239559412002
0.0076763555407524
0.0060327970422804
0.0034907641820609
4.991330206394196e-05
-0.0041765375062823
-0.0089652296155691
-0.0140013406053185
-0.018910925835371
-0.0232991613447666
-0.0267935488373041
-0.0290952119976282
-0.0300232730805873
-0.0295318253338336
-0.0277010649442672
-0.0247163455933332
-0.0208415631204843
-0.0163879282772541
-0.0116819394752383
-0.007035301066935
-0.0027158767916262
0.0010765844490379
0.0042225276120007
0.0066812126897275
0.0084843384101986
0.0097299190238118
0.010564899072051
0.0111516751348972
0.0116378786042332
0.0121406372636556
0.012733731418848
0.0134301539510488
0.0141681097447872
0.0148116834461689
0.0151696419343352
0.01502844132483
0.0141934538260102
0.0125294215977191
0.0099892383441329
0.0066274460405111
0.0026045639533549
-0.0018158960156142
-0.0062904544174671
-0.0104452613741159
-0.0139338374137878
-0.0164792612195014
-0.0178956687450408
-0.0180970653891563
-0.0170974917709827
-0.0150033375248312
-0.0120003819465637
-0.0083347177132964
-0.0042864438146352
-0.0001394851133227
0.0038463212549686
0.0074559086933732
0.0105350660160183
0.0130045041441917
0.0148613508790731
0.0161602236330509
0.0169873405247926
0.0174448378384113
0.0176435112953186
0.017692532390356
0.0176835488528013
0.0176724828779697
0.0176617372781038
0.0175888538360595
0.0173309035599231
0.0167288072407245
0.0156228635460138
0.0138864498585462
0.0114571237936615
0.0083628855645656
0.0047294390387833
0.0007673208601772
-0.0032482086680829
-0.0070011005736887
-0.0101683782413601
-0.0124632595106959
-0.0136729963123798
-0.0136789893731474
-0.0124615281820297
-0.0100944526493549
-0.0067324945703148
-0.0025918218307197
0.0020851455628871
0.0070901080034673
0.0123302666470408
0.0179162360727787
0.0242298357188701
0.0319318622350692
0.0418809615075588
0.0549659542739391
0.071881853044033
0.0928943008184433
0.1176438108086586
0.1450451612472534
0.1733348071575164
0.2002986520528793
0.2236398756504058
0.2413634359836578
0.2520525753498077
0.2549816966056824
0.2500799894332886
0.2378023266792297
0.2189682573080063
0.1946092545986175
0.1658446341753006
0.1337899565696716
0.0994913280010223
0.0638851374387741
0.0277905762195587
-0.0080722570419311
-0.0430592224001884
-0.0765918344259262
-0.1081652343273162
-0.1373628228902816
-0.1638630628585815
-0.1874376237392425
-0.2079405486583709
-0.2252876162528991
-0.2394438236951828
-0.2504352033138275
-0.2583614587783813
-0.263377696275711
-0.265642911195755
-0.2652570605278015
-0.2622226476669311
-0.2564629912376404
-0.2479004859924316
-0.2365669012069702
-0.2227005511522293
-0.2067878395318985
-0.1895274519920349
-0.1717236936092376
-0.1541464477777481
-0.1374139487743377
-0.1219421625137329
-0.1079616844654083
-0.0955663472414016
-0.0847594141960144
-0.0754845291376113
-0.0676385834813118
-0.061069056391716
-0.0555680468678474
-0.0508776642382144
-0.0467121005058288
-0.0427928455173969
-0.038890179246664
-0.0348612889647483
-0.0306770466268062
-0.0264302864670753
-0.022320358082652
-0.0186196342110633
-0.0156299415975809
-0.0136273931711912
-0.0128007363528013
-0.0132035128772258
-0.0147362425923347
-0.0171607360243797
-0.0201396197080612
-0.0232886038720607
-0.0262248367071151
-0.0286018438637256
-0.0301401168107986
-0.0306575894355773
-0.0300853699445724
-0.0284623056650161
-0.0259133800864219
-0.0226168856024742
-0.0187669992446899
-0.0145313665270805
-0.0100049749016761
-0.0051788166165351
5.96269965171814e-05
0.005891166627407
0.0125033557415008
0.0200268626213073
0.0284965932369232
0.0378451272845268
0.0479231923818588
0.0585435852408409
0.069542609155178
0.0808378681540489
0.0924516022205352
0.1044813618063926
0.1170331239700317
0.1301614493131637
0.1438489854335785
0.1580156534910202
0.172530397772789
0.1872165352106094
0.2018621861934662
0.2162419855594635
0.2301400303840637
0.243361234664917
0.2557283341884613
0.2670735716819763
0.2772355079650879
0.2860631942749023
0.293422520160675
0.2991961538791656
0.3032768964767456
0.3055629134178161
0.3059579730033874
0.3043687343597412
0.3006870448589325
0.294757068157196
0.2863487601280212
0.2751649916172027
0.2608890831470489
0.2432594001293182
0.2221507132053375
0.1976441293954849
0.1700678169727325
0.1399918496608734
0.1081737428903579
0.0754669457674026
0.0427266210317611
0.0107607021927833
-0.0196600183844566
-0.0477631166577339
-0.0727400183677673
-0.0937338471412658
-0.1098660677671432
-0.1203197613358497
-0.1244853436946868
-0.1221392229199409
-0.1135870814323425
-0.0997043848037719
-0.0818546414375305
-0.0617125928401947
-0.041031613945961
-0.0213915705680847
-0.0039607286453247
0.0106954276561737
0.0227098017930984
0.0328554064035415
0.0423183739185333
0.0523615181446075
0.0639731884002685
0.0775780528783798
0.0928638577461242
0.1087718307971954
0.1236717402935028
0.1356818974018097
0.1430447101593017
0.1444604396820068
0.1393037736415863
0.1276746094226837
0.1102943122386932
0.0883331894874572
0.0632370710372924
0.0365462899208068
0.0096995830535888
-0.0161339342594146
-0.0401498079299926
-0.0619286298751831
-0.0814091861248016
-0.0988390147686004
-0.1147104203701019
-0.1296795308589935
-0.1444763839244842
-0.1598157882690429
-0.1763096451759338
-0.1943972110748291
-0.214313119649887
-0.2360763698816299
-0.2594731748104095
-0.2840364575386047
-0.3090454339981079
-0.3335636258125305
-0.3565254807472229
-0.3768733441829681
-0.3937181830406189
-0.406469851732254
-0.4148986935615539
-0.4191294014453888
-0.4195909202098846
-0.4169383943080902
-0.4119420647621155
-0.4053636193275451
-0.3978761434555053
-0.3900385200977325
-0.3822861015796661
-0.3749171495437622
-0.368076890707016
-0.3617477715015411
-0.3557548820972442
-0.3497979342937469
-0.3435238003730774
-0.3366310000419616
-0.3289664089679718
-0.3205761611461639
-0.3116992712020874
-0.302710473537445
-0.294036865234375
-0.2860844135284424
-0.2791849374771118
-0.2735598981380462
-0.2693182528018951
-0.2664919793605804
-0.2650572657585144
-0.2649007439613342
-0.2657697200775146
-0.2672664821147918
-0.2688930630683899
-0.2701226770877838
-0.2704700529575348
-0.2695305347442627
-0.2669743001461029
-0.262514591217041
-0.2558985948562622
-0.2469579428434372
-0.2356761842966079
-0.2221829295158386
-0.2066574990749359
-0.1892251074314117
-0.1699251532554626
-0.1487561166286468
-0.1257499456405639
-0.1010226309299469
-0.0747774243354797
-0.0472715198993682
-0.0187751948833465
0.010448932647705
0.0401389598846435
0.0700106918811798
0.0997427105903625
0.1289874613285064
0.1574083268642425
0.1847194731235504
0.2106990814208984
0.2351728677749633
0.2579929232597351
0.2790356874465942
0.2982167601585388
0.3155071437358856
0.3309398293495178
0.3446021378040313
0.3566206991672516
0.3671545088291168
0.3763975799083709
0.3845800459384918
0.3919675052165985
0.3988543748855591
0.4055343568325043
0.4122514128684997
0.4191569089889526
0.4262872040271759
0.4335673451423645
0.4408425390720367
0.4479332566261291
0.4546968936920166
0.4610715210437774
0.467083066701889
0.4728214740753174
0.4784098267555237
0.4839828610420227
0.4896683990955353
0.4955543279647827
0.5016356706619263
0.5077533721923828
0.5135447978973389
0.5184164643287659
0.5215520858764648
0.5219796895980835
0.5187080502510071
0.5109015703201294
0.4980424344539642
0.4800380766391754
0.4572559893131256
0.4304865598678589
0.4008490741252899
0.3696613311767578
0.3382909893989563
0.308007001876831
0.2798498868942261
0.2545363903045654
0.2324151843786239
0.2134793400764465
0.1974219530820846
0.1837181448936462
0.1717218309640884
0.1607608795166015
0.1502135694026947
0.1395598649978637
0.1284155398607254
0.1165565699338913
0.1039279922842979
0.0906291157007217
0.0768751427531242
0.0629448145627975
0.0491198860108852
0.0356108322739601
0.0224784817546606
0.0095803383737802
-0.0034349039196968
-0.0170728079974651
-0.0318903252482414
-0.0483802482485771
-0.0668715387582779
-0.0874541848897934
-0.1099332869052887
-0.1338213831186294
-0.158373475074768
-0.1826613843441009
-0.2056771665811538
-0.2264464944601059
-0.2441379129886627
-0.2581591606140136
-0.2682200670242309
-0.2743421196937561
-0.2768212556838989
-0.2761609256267547
-0.2729890942573547
-0.2679758071899414
-0.2617696523666382
-0.2549562454223633
-0.2480266541242599
-0.241347536444664
-0.235140711069107
-0.2294846773147583
-0.2243358492851257
-0.2195592373609542
-0.2149700671434402
-0.2103851735591888
-0.2056715041399002
-0.2007887363433838
-0.1958330422639846
-0.191072940826416
-0.1869507282972335
-0.184029996395111
-0.1828947812318802
-0.1840266585350036
-0.187688872218132
-0.1938419640064239
-0.2021103203296661
-0.2118028402328491
-0.221975028514862
-0.2315215170383453
-0.2392991483211517
-0.2442730963230133
-0.2456522732973098
-0.2429732978343963
-0.2361190170049667
-0.2252878248691558
-0.2109373211860656
-0.1937148720026016
-0.1743831932544708
-0.1537481546401977
-0.1325905174016952
-0.1116036549210548
-0.0913471430540084
-0.0722235441207885
-0.0544707626104354
-0.0381633527576923
-0.0232314653694629
-0.0095001719892025
0.0032667145133018
0.0153300687670707
0.0269398167729377
0.0382865332067012
0.0494366362690925
0.0602705441415309
0.0704575851559639
0.079489067196846
0.0867653936147689
0.0917148143053054
0.0939128696918487
0.0931744277477264
0.0896077677607536
0.0836300700902938
0.0759339705109596
0.0674018636345863
0.0589922815561294
0.0516258254647254
0.0460856221616268
0.0429413169622421
0.0425020232796669
0.0448020100593566
0.0496209934353828
0.0565322637557983
0.064966507256031
0.074281133711338
0.0838263556361198
0.0929993987083435
0.1012855470180511
0.1082917526364326
0.1137668564915657
0.1175980791449546
0.1197934597730636
0.120462879538536
0.1197951138019561
0.1180294752120971
0.1154257208108902
0.1122282296419143
0.1086194589734077
0.1046662479639053
0.1002735644578933
0.0951652973890304
0.0889092683792114
0.0809908360242843
0.070922315120697
0.0583604276180267
0.0431974232196807
0.0256055295467376
0.0060416907072067
-0.0147776752710342
-0.0359328389167785
-0.0563862845301628
-0.0750888288021087
-0.0910927727818489
-0.1036548241972923
-0.1123113334178924
-0.1169146001338958
-0.1176282986998558
-0.1148865222930908
-0.1093255132436752
-0.1017004996538162
-0.092800997197628
-0.0833794251084327
-0.0741002187132835
-0.0655022710561752
-0.057969681918621
-0.0517154335975647
-0.046783223748207
-0.0430680513381958
-0.0403520092368125
-0.0383506268262863
-0.0367608144879341
-0.0353016555309295
-0.0337530449032783
-0.0320028215646743
-0.0300932079553604
-0.0282448083162307
-0.0268476828932762
-0.0264232084155082
-0.027558758854866
-0.0308106988668441
-0.0365882515907287
-0.0450523421168327
-0.0560578256845474
-0.0691468715667724
-0.083585076034069
-0.0984294787049293
-0.1126233041286468
-0.1251085251569748
-0.1349418610334396
-0.1414009779691696
-0.1440622061491012
-0.1428291946649551
-0.1379090100526809
-0.1297556012868881
-0.1190033927559852
-0.1063945442438125
-0.0926987528800964
-0.0786373317241668
-0.0648270398378372
-0.0517460219562053
-0.0397152565419673
-0.0288937948644161
-0.0192878730595111
-0.0107742957770824
-0.0031410567462444
0.0038620457053184
0.0104783587157726
0.0169134549796581
0.0233166515827178
0.0297619737684726
0.0362169407308101
0.0425109565258026
0.0483259484171867
0.0532191954553127
0.0566793829202652
0.0582122132182121
0.0574386529624462
0.0541781783103942
0.0484962090849876
0.0407129451632499
0.0313827693462371
0.0212462916970253
0.0111518390476703
0.001960227265954
-0.0055460575968027
-0.0107466280460357
-0.0132570601999759
-0.0129682030528783
-0.0100355492904782
-0.004834066145122
0.0021022772416472
0.0101502267643809
0.0186695344746112
0.0270660109817981
0.0348400957882404
0.041622556746006
0.0471959188580513
0.0514958649873733
0.0545917972922325
0.0566576123237609
0.057941548526287
0.0587269812822341
0.0592820271849632
0.0598178245127201
0.0604641288518905
0.0612479411065578
0.062072467058897
0.0627107173204422
0.0628236234188079
0.0620075240731239
0.0598679296672344
0.0560991987586021
0.0505492463707923
0.0432611033320426
0.0344872325658798
0.0246742479503154
0.0144201405346393
0.0044054193422198
-0.0046953652054071
-0.0123005006462335
-0.0179835353046655
-0.0215043183416128
-0.0228134077042341
-0.0220364443957805
-0.0194440074265003
-0.0154122114181518
-0.0103790778666734
-0.0047988686710596
0.0009027421474456
0.0063652452081441
0.0113153420388698
0.0155763309448957
0.0190707296133041
0.021812979131937
0.0238858126103878
0.025409772992134
0.0265204012393951
0.0273535028100013
0.0280341617763042
0.0286673344671726
0.0293259881436824
0.0300361569970846
0.030762393027544
0.0313975811004638
0.0317633934319019
0.0316258259117603
0.0307260192930698
0.0288280751556158
0.0257773138582706
0.0215453449636697
0.0162461642175912
0.0101314354687929
0.0035734735429286
-0.0029683448374271
-0.008998854085803
-0.0140475183725357
-0.0177283994853496
-0.0197904594242572
-0.0201469417661428
-0.0188765246421098
-0.0161996539682149
-0.0124393142759799
-0.0079755522310733
-0.0031998008489608
0.0015292707830667
0.0059191193431615
0.0097542535513639
0.0128941889852285
0.0152756534516811
0.0169178955256938
0.017918886616826
0.0184363238513469
0.0186585411429405
0.0187730807811021
0.0189359448850154
0.0192426666617393
0.0197031460702419
0.0202268008142709
0.020629309117794
0.0206678248941898
0.0200950503349304
0.0187072530388832
0.0163740944117307
0.0130610819905996
0.0088480710983276
0.0039333561435341
-0.0013792528770864
-0.0067079267464578
-0.0116352792829275
-0.015760276466608
-0.0187489707022905
-0.0203759185969829
-0.0205489806830883
-0.0193114969879388
-0.016824347898364
-0.0133357774466276
-0.0091438200324773
-0.0045604789629578
0.0001122714020311
0.0046005602926015
0.0086792111396789
0.0121878962963819
0.0150376241654157
0.0172124858945608
0.018764741718769
0.0197967961430549
0.0204362645745277
0.020814748480916
0.0210498105734586
0.0212263632565736
0.0213786270469427
0.0214763153344392
0.0214208178222179
0.0210547447204589
0.0201843176037073
0.0186158064752817
0.0162005834281444
0.012873868457973
0.0086785349994897
0.0037717074155807
-0.0015883995220065
-0.0070716482587158
-0.0123131582513451
-0.0169528257101774
-0.0206757839769125
-0.023251436650753
-0.0245609171688556
-0.02460259757936
-0.0234774313867092
-0.0213700979948043
-0.018534505739808
-0.0152707025408744
-0.011886560358107
-0.0086572673171758
-0.0057964511215686
-0.0034417556598782
-0.0016492195427417
-0.0003970712423324
0.0003962516784667
0.0008472930639982
0.0010861791670322
0.0012380927801132
0.0014048013836145
0.0016496237367391
0.0019851569086313
0.0023543629795312
0.0026116203516721
0.0025308486074209
0.0018488615751266
0.0003231931477785
-0.0022141709923744
-0.0058161094784736
-0.0104002645239233
-0.0157523974776268
-0.0215494092553854
-0.0273947231471538
-0.0328612625598907
-0.0375402495265007
-0.0410895273089408
-0.043267723172903
-0.0439453944563865
-0.0431054905056953
-0.0408498421311378
-0.037400834262371
-0.0330775454640388
-0.0282487124204635
-0.0232808105647563
-0.0184944607317447
-0.0141334813088178
-0.0103497197851538
-0.0072048772126436
-0.0046831308864057
-0.0027079498395323
-0.0011614710092544
9.38689336180687e-05
0.0011918563395738
0.0022398205474019
0.0032949494197964
0.0043353727087378
0.00523930368945
0.0057946727611124
0.0057433531619608
0.0048434557393193
0.0029279175214469
-5.628122016787529e-05
-0.0040318449027836
-0.0087941596284508
-0.0140317697077989
-0.0193597599864006
-0.0243592448532581
-0.0286202952265739
-0.0317838154733181
-0.0335767567157745
-0.0338424295186996
-0.0325627066195011
-0.0298581421375274
-0.0259653590619564
-0.0212033055722713
-0.0159315653145313
-0.010504730977118
-0.0052343998104333
-0.0003649676218628
0.0039381757378578
0.007589946500957
0.0105784982442855
0.0129522206261754
0.0148030230775475
0.0162514951080083
0.017434062436223
0.0184784773737192
0.0194625370204448
0.020375033840537
0.0210989061743021
0.0214214660227298
0.0210712030529975
0.0197750888764858
0.0173197798430919
0.0136008337140083
0.0086524104699492
0.0026540756225585
-0.004083888605237
-0.0111505929380655
-0.0180762596428394
-0.0243806857615709
-0.0296202655881643
-0.0334338396787643
-0.0355873703956604
-0.0360009893774986
-0.0347464568912982
-0.0320223271846771
-0.028115551918745
-0.0233577340841293
-0.0180873349308967
-0.0126200355589389
-0.0072243437170982
-0.0021051466464996
0.0026020593941211
0.0068283230066299
0.0105647444725036
0.0138560198247432
0.0167914312332868
0.019483134150505
0.0220274124294519
0.0244638193398714
0.0267490204423666
0.0287482813000679
0.0302449539303779
0.0309713333845138
0.0306591968983411
0.0290987491607666
0.0261895041912794
0.02197040989995
0.0166271515190601
0.0104808807373046
0.0039591714739799
-0.0024471469223499
-0.0082331448793411
-0.0129349492490291
-0.0161886662244796
-0.0177750773727893
-0.0176346115767955
-0.0158559642732143
-0.0126517303287982
-0.0083276368677616
-0.003245685249567
0.0022162422537803
0.0077042132616043
0.012922640889883
0.0176580511033535
0.0217871703207492
0.0252711251378059
0.028145084157586
0.0305069796741008
0.0324954167008399
0.0342511236667633
0.0358794406056404
0.0374269820749759
0.03886279463768
0.0400636754930019
0.0408202297985553
0.0408722274005413
0.0399649590253829
0.0379076674580574
0.0346180163323879
0.0301490817219018
0.0246983505785465
0.0185945536941289
0.0122643560171127
0.0061872787773609
0.000840276479721
-0.0033659040927886
-0.0061395019292831
-0.0073339343070983
-0.0069523379206657
-0.0051349326968193
-0.0021280422806739
0.0017552860081195
0.0061713531613349
0.0107790529727935
0.0152725670486688
0.0194086413830518
0.0230229087173938
0.0260347705334424
0.0284445267170667
0.0303219649940729
0.031780507415533
0.0329419635236263
0.0339067243039608
0.0347341634333133
0.0354259088635444
0.0359099581837654
0.036034844815731
0.0355831533670425
0.0343076698482036
0.0319842845201492
0.0284642372280359
0.0237104576081037
0.0178160555660724
0.0110061718150973
0.0036236136220395
-0.0038988757878541
-0.0110830310732126
-0.0174691583961248
-0.0226811524480581
-0.0264661442488431
-0.0287065152078866
-0.0294178407639265
-0.0287372637540102
-0.0268979892134666
-0.0241908188909292
-0.0209244880825281
-0.0173970106989145
-0.0138786742463707
-0.010599635541439
-0.0077345455065369
-0.0053811655379831
-0.0035450416617095
-0.0021508717909455
-0.0010788585059344
-0.0002005798742175
0.0005991207435727
0.0014052847400307
0.0022520292550325
0.0031025949865579
0.0038428092375397
0.0042950399219989
0.0042516645044088
0.0035232510417699
0.0019882284104824
-0.0003740340471267
-0.003473812714219
-0.0071196146309375
-0.0110388612374663
-0.0149145387113094
-0.0184373948723077
-0.0213526263833045
-0.0234842970967292
-0.0247441418468952
-0.0251328125596046
-0.024730309844017
-0.0236743111163377
-0.0221339389681816
-0.0202857255935668
-0.0182950608432292
-0.0163065660744905
-0.0144409537315368
-0.0127906538546085
-0.0114103155210614
-0.010306385345757
-0.0094394637271761
-0.0087463604286313
-0.0081644291058182
-0.0076444167643785
-0.0071634231135249
-0.0067458599805831
-0.0064813438802957
-0.0065241027623414
-0.0070659480988979
-0.0082905013114213
-0.0103268204256892
-0.0132162170484662
-0.016895780339837
-0.0211949553340673
-0.0258418638259172
-0.0304814390838146
-0.0347151160240173
-0.038163237273693
-0.040524698793888
-0.0416099652647972
-0.0413504503667354
-0.0397932827472686
-0.037083089351654
-0.0334338285028934
-0.0290982592850923
-0.0243427269160747
-0.0194291919469833
-0.0145994797348976
-0.0100573012605309
-0.0059488238766789
-0.0023466588463634
0.0007536807097494
0.0034163305535912
0.0057305367663502
0.0077784899622201
0.0096189491450786
0.011276114732027
0.0127216074615716
0.0138602005317807
0.0145374378189444
0.0145707176998257
0.01379085611552
0.0120807737112045
0.0094057191163301
0.005835419986397
0.0015543014742434
-0.0031477545853704
-0.0079045528545975
-0.0123194763436913
-0.016021566465497
-0.0187128670513629
-0.0201912429183721
-0.0203530844300985
-0.0191879458725452
-0.0167707651853561
-0.0132521009072661
-0.0088443700224161
-0.0038004340603947
0.0016175657510757
0.0071740876883268
0.0126896584406495
0.0180509444326162
0.0231976937502622
0.0281050670892
0.0327752828598022
0.0372256152331829
0.0414675883948802
0.0454892218112945
0.0492427498102188
0.0526357889175415
0.0555304922163486
0.0577552765607833
0.0591307878494262
0.0595087371766567
0.05881267786026
0.0570649914443492
0.0543914809823036
0.051003560423851
0.0471684783697128
0.043180800974369
0.0393304824829101
0.0358613617718219
0.0329394526779651
0.0306474007666111
0.0289968084543943
0.0279475320130586
0.027428051456809
0.0273538455367088
0.0276440121233463
0.028234340250492
0.0290837511420249
0.0301713496446609
0.0314851142466068
0.0330081284046173
0.0347056239843368
0.0365168303251266
0.0383500568568706
0.0400728099048137
0.0415072813630104
0.0424478538334369
0.0426930449903011
0.0420749932527542
0.0404808260500431
0.0378681421279907
0.0342812165617942
0.0298735126852989
0.0249127149581909
0.0197437852621078
0.0147426575422286
0.0102921426296234
0.0067612007260322
0.004471868276596
0.0036585107445716
0.0044307187199592
0.0067558363080024
0.010463997721672
0.0152643918991088
0.0207672268152236
0.0265139043331146
0.0320188999176025
0.0368218943476676
0.0405392721295356
0.0429016202688217
0.0437734574079513
0.043154589831829
0.041160374879837
0.037983700633049
0.0338459312915802
0.0289455652236938
0.0234139412641525
0.0172874331474304
0.0105001777410507
0.0028950572013854
-0.0057470649480819
-0.0156578719615936
-0.0270188301801681
-0.0398993045091629
-0.0542062520980834
-0.0696529895067215
-0.0857607200741767
-0.1019012331962585
-0.1173643916845321
-0.1314327120780944
-0.1434682011604309
-0.153011605143547
-0.1598629653453827
-0.1641031205654144
-0.1660481840372085
-0.1661627888679504
-0.1649621129035949
-0.162925124168396
-0.1604334264993667
-0.157742440700531
-0.1549811512231826
-0.1521673798561096
-0.1492295563220977
-0.1460313498973846
-0.1423936337232589
-0.1381136178970337
-0.1329960823059082
-0.1269064098596573
-0.1198195740580558
-0.1118287742137909
-0.1031184121966362
-0.093934416770935
-0.0845640674233436
-0.0753127411007881
-0.0664723217487335
-0.0582961067557334
-0.0509863346815109
-0.0446733087301254
-0.0393829829990863
-0.0350285768508911
-0.0314418412744998
-0.0284134019166231
-0.0257216468453407
-0.0231681205332279
-0.0206257663667202
-0.018065869808197
-0.015540693886578
-0.0131456181406974
-0.0109931947663426
-0.0092035755515098
-0.0078951437026262
-0.0071624405682086
-0.0070453211665153
-0.0075076576322317
-0.0084440950304269
-0.0097120255231857
-0.0111680179834365
-0.0126967504620552
-0.0142290517687797
-0.0157431699335575
-0.0172470696270465
-0.018749251961708
-0.0202360488474369
-0.0216685459017753
-0.0229889601469039
-0.0241208299994468
-0.0249600037932395
-0.0253624990582466
-0.025140605866909
-0.0240735635161399
-0.0219288021326065
-0.0184897035360336
-0.013587400317192
-0.0071250200271606
0.0009232237935066
0.0105225965380668
0.0215629637241363
0.0338318422436714
0.04700867831707
0.0606841892004013
0.0744024813175201
0.0877184569835662
0.1002473831176757
0.1116906851530075
0.1218402534723281
0.1305746436119079
0.1378576308488845
0.1437403857707977
0.1483557075262069
0.1518892049789428
0.1545340120792389
0.1564450562000274
0.1577045917510986
0.158324047923088
0.1582798659801483
0.1575355231761932
0.1560306549072265
0.1536669731140136
0.1503114849328994
0.1458053886890411
0.1399662643671035
0.1325835287570953
0.1234067305922508
0.112153336405754
0.0985878407955169
0.0826566070318222
0.0645913034677505
0.0449285954236984
0.0244664698839187
0.0041940212249755
-0.0148008465766906
-0.0314464345574379
-0.0447958186268806
-0.0541095063090324
-0.0589278191328048
-0.0591413900256156
-0.0550340116024017
-0.0472600534558296
-0.0367396920919418
-0.0245072618126869
-0.0115851312875747
0.0010809898376464
0.0126421302556991
0.022331953048706
0.029432401061058
0.0332724191248416
0.0333021506667137
0.0292111858725547
0.0210146941244602
0.0090685039758682
-0.0059563219547271
-0.023096241056919
-0.0411222800612449
-0.0586134046316146
-0.0740981698036193
-0.0862400382757186
-0.0940175577998161
-0.0968553647398948
-0.094680055975914
-0.0879028886556625
-0.0773453786969184
-0.0641149133443832
-0.0494443550705909
-0.0345290750265121
-0.0203974843025207
-0.007836103439331
0.0026310160756111
0.0107239857316017
0.0163687095046043
0.0196537226438522
0.0207902938127517
0.0200750157237052
0.0178521499037742
0.0144821256399154
0.0103219375014305
0.0057111606001853
0.0009636282920837
-0.0036256909370422
-0.0077670514583587
-0.0111782476305961
-0.0136060863733291
-0.0148497819900512
-0.0147764906287193
