bvp
0.0250809341669082
0.0236856937408447
0.0232348442077636
0.0239709056913852
0.0258951056748628
0.0287550091743469
0.0320198014378547
0.0348597094416618
0.0361784622073173
0.0347382128238678
0.0293708890676498
0.0192264635115861
0.0039936266839504
-0.0159622263163328
-0.039578229188919
-0.0651945769786834
-0.0907538905739784
-0.1140660792589187
-0.1330951005220413
-0.1462160944938659
-0.1524005830287933
-0.1513092815876007
-0.1432918012142181
-0.1293049901723861
-0.1107670962810516
-0.0893709808588028
-0.0668813288211822
-0.0449418239295482
-0.0249150227755308
-0.0077704740688204
0.005970150232315
0.0162317976355552
0.0233343131840229
0.0278931129723787
0.0306888036429882
0.0325389876961708
0.0341937690973281
0.0362591743469238
0.0391490571200847
0.0430584363639354
0.0479409769177436
0.0534748621284961
0.0590224973857402
0.0636245980858802
0.0660803839564323
0.0651281401515007
0.059689961373806
0.0491214506328105
0.033403817564249
0.0132223889231681
-0.0100902449339628
-0.0347200632095336
-0.0585987456142902
-0.0796543955802917
-0.0960597917437553
-0.1064480021595954
-0.1100605800747871
-0.1068086475133895
-0.0972490459680557
-0.0824855268001556
-0.0640101730823516
-0.0435096807777881
-0.0226651951670646
-0.0029682740569114
0.0144279152154922
0.0287970416247844
0.0398565828800201
0.0477297380566597
0.0528698712587356
0.0559571273624897
0.0577809661626815
0.059126578271389
0.0606799162924289
0.0629573762416839
0.0662567242980003
0.0706208646297454
0.0758008509874343
0.081211969256401
0.0859172120690345
0.088697150349617
0.0882276371121406
0.0833270400762558
0.0732079222798347
0.0576782599091529
0.0372522696852684
0.0131395198404788
-0.0128903444856405
-0.0387321375310421
-0.062212336808443
-0.0813583433628082
-0.0946312919259071
-0.1010911613702774
-0.100478321313858
-0.0932072699069976
-0.080277606844902
-0.0631188973784446
-0.0433968976140022
-0.0228159073740243
-0.0029450729489326
0.0149229411035776
0.0298777725547552
0.0414478927850723
0.0495976284146308
0.0546718388795852
0.0573035329580307
0.0582974180579185
0.0585051402449607
0.0587129965424537
0.0595559477806091
0.0614559613168239
0.0645738616585731
0.0687644034624099
0.0735338553786277
0.0780188515782356
0.0810274928808212
0.0811830982565879
0.0771663710474968
0.067997433245182
0.053278848528862
0.0333365350961685
0.0092299785465002
-0.0173618365079164
-0.0443473942577838
-0.0694828480482101
-0.0906489863991737
-0.1061089485883712
-0.1147101894021034
-0.1159979403018951
-0.1102277040481567
-0.098294198513031
-0.0815995782613754
-0.0618709921836853
-0.0409435145556926
-0.0205443799495697
-0.0021120309829711
0.013332899659872
0.0252529680728912
0.0335905291140079
0.0387059822678566
0.0412750951945781
0.0421615578234195
0.0422822460532188
0.0424823053181171
0.0434357821941375
0.0455796718597412
0.0490666925907135
0.0537162125110626
0.0589725151658058
0.0639048442244529
0.067282497882843
0.0677403211593627
0.0640183091163635
0.0552234277129173
0.041045919060707
0.021876661106944
-0.0011967923492193
-0.0265088714659214
-0.0520236194133758
-0.075594425201416
-0.095231756567955
-0.1093363687396049
-0.1168738305568695
-0.1174786165356636
-0.1114683598279953
-0.0997617244720459
-0.0837253183126449
-0.0649840384721756
-0.0452214814722538
-0.025993712246418
-0.0085767181590199
0.006138501688838
0.0176943000406026
0.0260541979223489
0.0315383039414882
0.0347241275012493
0.0363339260220527
0.0371302478015422
0.0378234237432479
0.0389858074486255
0.0409858338534832
0.0439477413892746
0.0477183610200881
0.0518339425325393
0.0555108301341533
0.05769944190979
0.0572269633412361
0.0530114360153675
0.0442932434380054
0.0308269597589969
0.0129912961274385
-0.0082085812464356
-0.0312460362911224
-0.0542591884732246
-0.0752887725830078
-0.092535525560379
-0.1045890152454376
-0.1105851456522941
-0.1102772504091262
-0.1040229201316833
-0.0926986634731292
-0.077563926577568
-0.060096438974142
-0.0418162569403648
-0.0241178125143051
-0.0081331180408597
0.0053588827140629
0.0159738231450319
0.0237155705690383
0.0289257820695638
0.0321921855211257
0.0342267081141471
0.0357443504035472
0.0373694151639938
0.0395714566111564
0.0426223054528236
0.0465630032122135
0.0511695556342601
0.0559216253459453
0.0600038133561611
0.062376894056797
0.0619301460683345
0.0576895177364349
0.0490337535738945
0.0358652137219905
0.0186943560838699
-0.0013856729492545
-0.0228308998048305
-0.0438481122255325
-0.0626236498355865
-0.0775476694107055
-0.0874020680785179
-0.0914873629808425
-0.0896792933344841
-0.082413375377655
-0.0706022828817367
-0.0555018782615661
-0.0385492891073226
-0.021197535097599
-0.0047645159065723
0.0096935983747243
0.0214715115725994
0.0302499085664749
0.0360730960965156
0.039286695420742
0.0404538847506046
0.0402579046785831
0.039401039481163
0.0385132767260074
0.0380762107670307
0.0383617803454399
0.0393804311752319
0.0408355109393596
0.0421045310795307
0.0422852300107479
0.0403275042772293
0.0352392047643661
0.0263197068125009
0.0133494157344102
-0.00332045648247
-0.022783376276493
-0.0436783097684383
-0.064356505870819
-0.0830904468894004
-0.0982936173677444
-0.1087183132767677
-0.113603338599205
-0.1127502620220184
-0.1065214499831199
-0.0957680493593216
-0.0817008092999458
-0.0657237321138382
-0.049258217215538
-0.0335803553462028
-0.0196920968592166
-0.0082440376281738
0.0004910491406917
0.006602831184864
0.0104861613363027
0.0127479340881109
0.0140987001359462
0.0152481235563755
0.0168121345341205
0.0192338172346353
0.0227171014994382
0.0271693170070648
0.0321591682732105
0.0369178615510463
0.0404186435043811
0.0415454171597957
0.03931150957942
0.0330673940479755
0.0226572975516319
0.0085010714828968
-0.0084168091416358
-0.0266531556844711
-0.0444865152239799
-0.0601388402283191
-0.0720040947198867
-0.0788487717509269
-0.0799538493156433
-0.0751809552311897
-0.0649585425853729
-0.0501965507864952
-0.03214842826128
-0.0122433602809906
0.008084513247013
0.0275453701615333
0.0451129600405693
0.0601070076227188
0.072225198149681
0.0815235450863838
0.0883569493889808
0.0932928696274757
0.0970093458890914
0.1001866906881332
0.10340516269207
0.1070581823587417
0.1112766712903976
0.1158608794212341
0.1202435344457626
0.1235254257917404
0.1245970427989959
0.12232506275177
0.1157754510641098
0.1044323742389679
0.0883556380867958
0.0682341307401657
0.0453276820480823
0.0213161446154117
-0.0019142962992191
-0.0225112289190292
-0.0388829633593559
-0.049879178404808
-0.0549032613635063
-0.0539484247565269
-0.0475603491067886
-0.0367341935634613
-0.0227674171328544
-0.0070976112037897
0.008860083296895
0.0238675996661186
0.0369894281029701
0.04766546189785
0.055721640586853
0.0613261014223098
0.0649065300822258
0.0670444443821907
0.0683657899498939
0.0694454312324523
0.070729374885559
0.0724656730890274
0.074635162949562
0.0768908187747001
0.0785335898399353
0.0785595625638961
0.0758016631007194
0.0691521316766738
0.0578138045966625
0.0415146872401237
0.0206314027309417
-0.0038081668317317
-0.0302379876375198
-0.0567508041858673
-0.081340342760086
-0.1021502912044525
-0.1176934838294982
-0.1270121484994888
-0.1297570765018463
-0.1261807680130005
-0.1170644462108612
-0.1035985350608825
-0.0872239097952842
-0.0694497153162956
-0.0516763441264629
-0.0350513271987438
-0.0203801114112138
-0.0080976784229278
0.0017103776335716
0.009247675538063
0.0149176195263862
0.0192252360284328
0.022688940167427
0.0257689729332923
0.0288121625781059
0.0320023745298385
0.0352986305952072
0.0383666977286338
0.0405493564903736
0.0409198701381683
0.0384254157543182
0.0320959091186523
0.0212731882929801
0.0058029145002365
-0.0138612538576126
-0.0366641990840435
-0.0610590428113937
-0.0851939469575882
-0.1071417704224586
-0.1251345574855804
-0.1377664655447006
-0.1441395133733749
-0.1439436972141266
-0.1374716162681579
-0.12556192278862
-0.1094719842076301
-0.090703085064888
-0.0708101913332939
-0.0512226484715938
-0.0330997817218303
-0.0172410663217306
-0.0040569193661212
0.0064075663685798
0.0144099779427051
0.0204237960278987
0.0250395126640796
0.0288655571639537
0.0324439890682697
0.036183938384056
0.0403011739253997
0.0447594821453094
0.0492237284779548
0.0530462749302387
0.0553136430680751
0.0549687780439853
0.0510026030242443
0.0426798835396766
0.0297387614846229
0.0125051625072956
-0.0081035383045673
-0.0306762494146823
-0.0534793213009834
-0.0746679157018661
-0.0925077944993972
-0.105583056807518
-0.1129625290632247
-0.1142915561795234
-0.1097929328680038
-0.1001913994550705
-0.0865856856107711
-0.0702896788716316
-0.0526652671396732
-0.03496965020895
-0.0182338654994964
-0.0031827595084905
0.0097959246486425
0.0206342190504074
0.0295290816575288
0.0368649177253246
0.0431280322372913
0.0488182082772254
0.0543613545596599
0.0600420907139778
0.0659690350294113
0.0720572173595428
0.0780051425099372
0.0832698345184326
0.0870688781142234
0.0884396955370903
0.0863693878054618
0.0799853503704071
0.0687698498368263
0.0527378879487514
0.0325216688215732
0.0093422085046768
-0.0151174189522862
-0.038917914032936
-0.0601174086332321
-0.0770146697759628
-0.0883350446820259
-0.0933486968278884
-0.0919229835271835
-0.0845081284642219
-0.0720570385456085
-0.0558879449963569
-0.0375076867640018
-0.0184263605624437
4.423782229423523e-06
0.0167115870863199
0.0309723131358623
0.0424396134912967
0.0511253476142883
0.0573378205299377
0.0615832060575485
0.0644601136445999
0.0665707215666771
0.0684529244899749
0.0705303400754928
0.0730747655034065
0.0761708691716194
0.0796762108802795
0.0831831693649292
0.0860070958733558
0.0872327014803886
0.0858353748917579
0.0808637514710426
0.0716450810432434
0.0579638630151748
0.040162619203329
0.0191358048468828
-0.0037678647786378
-0.0269023384898901
-0.0485205501317977
-0.0669845566153526
-0.0809548050165176
-0.0895338281989097
-0.0923472344875335
-0.089552566409111
-0.0817844495177269
-0.0700522139668464
-0.0556034259498119
-0.0397728085517883
-0.0238356590270996
-0.0088776228949427
0.0042980359867215
0.0152069181203842
0.0236754715442657
0.0298066567629575
0.0339213088154792
0.0364803969860076
0.0380015112459659
0.0389797165989875
0.039821833372116
0.0408006832003593
0.0420242547988891
0.0434070490300655
0.0446431785821914
0.045202225446701
0.044376403093338
0.0413942374289035
0.0355798117816448
0.0265109166502952
0.0141427628695964
-0.0011220909655094
-0.0184391606599092
-0.0366088524460792
-0.0542254149913787
-0.0698593407869339
-0.0822430104017257
-0.090428240597248
-0.0938924923539161
-0.0925848260521888
-0.0869112238287925
-0.0776634737849235
-0.0659023448824882
-0.052813708782196
-0.0395661741495132
-0.0271942317485809
-0.016506852582097
-0.0080216014757752
-0.0019413530826568
0.0018245540559291
0.0036088246852159
0.0039129182696342
0.0033234376460313
0.0024333782494068
0.0017749434337019
0.0017658052965998
0.0026693157851696
0.0045611448585987
0.0072948848828673
0.010473683476448
0.0134429894387722
0.0153253497555851
0.0151260290294885
0.0119137624278664
0.0050307568162679
-0.0057344613596796
-0.0200575478374958
-0.0370868444442749
-0.0555411167442798
-0.0738754197955131
-0.0904857516288757
-0.1039150655269622
-0.1130255013704299
-0.1171169281005859
-0.1159820705652237
-0.1098950058221817
-0.0995451509952545
-0.0859331637620925
-0.0702366828918457
-0.0536599121987819
-0.0372926481068134
-0.0220026299357414
-0.0083732418715953
0.0033157765865325
0.013070672750473
0.0211320854723453
0.0278998799622058
0.0338501334190368
0.0394555442035198
0.0451181754469871
0.0511218719184398
0.0576013661921024
0.0645108819007873
0.0715817138552665
0.0782856717705726
0.0838359892368316
0.0872519984841346
0.0874953716993331
0.0836577117443084
0.0751595050096511
0.0619124397635459
0.0444005690515041
0.0236621759831905
0.0011821575462818
-0.0212835781276226
-0.0419212020933628
-0.0590726286172866
-0.0714169442653656
-0.0781039670109748
-0.0788335502147674
-0.0738638490438461
-0.0639404356479644
-0.0501676350831985
-0.0338516160845756
-0.0163403153419494
0.0011212527751922
0.0175076723098754
0.0320884026587009
0.0444560758769512
0.0545149222016334
0.0624376609921455
0.0685983300209045
0.0734916627407074
0.077651135623455
0.0815741419792175
0.0856595411896705
0.0901612192392349
0.095150850713253
0.1004747673869133
0.1057056486606597
0.1101185604929924
0.1127321347594261
0.1124355345964431
0.1081845313310623
0.0992229431867599
0.0852768123149871
0.0666723400354385
0.0443449765443801
0.0197419617325067
-0.0053499788045883
-0.0290228128433227
-0.0494855493307113
-0.0652790814638137
-0.0754279494285583
-0.0795180946588516
-0.0777020007371902
-0.0706361085176467
-0.0593641325831413
-0.0451660901308059
-0.0293963029980659
-0.0133321657776832
0.0019505061209201
0.0156637672334909
0.0273478254675865
0.0368684902787208
0.0443785563111305
0.0502436161041259
0.054943099617958
0.0589751601219177
0.062785118818283
0.0667178556323051
0.0709877610206604
0.0756547227501869
0.0805935114622116
0.0854525938630104
0.0896179378032684
0.0922197848558425
0.092213749885559
0.0885345712304115
0.0802992954850196
0.0670230686664581
0.0487919934093952
0.0263314452022314
0.0009440891444683
-0.0256506390869617
-0.0515252687036991
-0.0747679099440574
-0.0936939865350723
-0.1070221737027168
-0.1139992848038673
-0.1144599616527557
-0.1088109612464904
-0.0979453474283218
-0.0831093192100524
-0.0657459795475006
-0.0473300814628601
-0.0292081497609615
-0.0124692479148507
0.0021280609071254
0.014168482273817
0.0235539935529232
0.0304580926895141
0.0352619402110576
0.0384752601385116
0.0406553000211715
0.042336069047451
0.0439722687005996
0.0458970330655574
0.0482871867716312
0.0511225461959838
0.054136537015438
0.0567785575985908
0.0582200326025486
0.0574335269629955
0.0533508844673633
0.0450711622834205
0.032073400914669
0.0143853053450584
-0.0073401294648647
-0.0318644791841506
-0.0575083084404468
-0.0823635384440422
-0.1045319586992263
-0.1223532855510711
-0.1345914602279663
-0.1405563503503799
-0.1401501595973968
-0.1338389813899994
-0.1225576698780059
-0.1075661927461624
-0.0902858674526214
-0.0721383988857269
-0.0543987303972244
-0.0380767174065113
-0.0238474979996681
-0.0120370779186487
-0.0026535503566265
0.0045511052012443
0.0100023597478866
0.0142174959182739
0.017723836004734
0.0209935158491134
0.0243979282677173
0.0281781703233718
0.0324319042265415
0.0371079333126544
0.0419836938381195
0.046619463711977
0.0503255724906921
0.052188690751791
0.0511781983077526
0.0463245324790477
0.0369314849376678
0.0227657072246074
0.0041720941662788
-0.017913345247507
-0.0420514121651649
-0.0664651468396186
-0.0892532840371131
-0.1086187064647674
-0.1230741888284683
-0.131596028804779
-0.1337170153856277
-0.1295569837093353
-0.1197806745767593
-0.105483777821064
-0.0880323350429534
-0.0688862726092338
-0.0494333803653717
-0.0308562275022268
-0.0140436440706253
0.0004513980820775
0.0124094188213348
0.0219036825001239
0.0292325597256422
0.0348391123116016
0.0392325147986412
0.0429221466183662
0.0463616326451301
0.0499003455042839
0.0537555329501628
0.0580076240003109
0.0625968426465988
0.0673011392354965
0.0716990754008293
0.0751482248306274
0.0768166929483413
0.0757823884487152
0.0711888223886489
0.0624308586120605
0.0493239313364028
0.0322049483656883
0.0119432918727397
-0.0101346597075462
-0.0324015840888023
-0.0531383715569973
-0.0707456171512603
-0.083920806646347
-0.0917878597974777
-0.0939703360199928
-0.0906018838286399
-0.0822765231132507
-0.0699497312307357
-0.0548068769276142
-0.0381181128323078
-0.0210993085056543
-0.0047938553616404
0.0100125195458531
0.0228339657187461
0.0334845818579196
0.0420402139425277
0.0487689636647701
0.0540524125099182
0.0583155415952205
0.061968944966793
0.0653653889894485
0.0687693804502487
0.0723357051610946
0.0760958343744278
0.0799456685781478
0.0836244449019432
0.0866898521780967
0.0885153636336326
0.0883403867483139
0.0853855088353157
0.0790120586752891
0.0688785389065742
0.0550513938069343
0.0380507297813892
0.018821457400918
-0.0013659708201885
-0.0210619047284126
-0.0388097092509269
-0.0533230416476726
-0.0636382102966308
-0.0692163407802581
-0.0699822306632995
-0.0662993788719177
-0.0588948652148246
-0.048750601708889
-0.0369740948081016
-0.0246666744351387
-0.0128126796334981
-0.0022029299288988
0.0066122747957706
0.0133449705317616
0.0179636403918266
0.0206616558134555
0.0218018814921379
0.0218419954180717
0.0212591290473938
0.0204916950315237
0.0199003741145133
0.019742764532566
0.0201558135449886
0.021139146760106
0.0225367285311222
0.0240211337804794
0.0250877123326063
0.0250774752348661
0.0232570823282003
0.0189578104764223
0.0117356833070516
0.0015039984136819
-0.0113972425460815
-0.0262116063386201
-0.0418542213737964
-0.0570547431707382
-0.0705228000879287
-0.0811105817556381
-0.0879515931010246
-0.0905577912926673
-0.0888619422912597
-0.0831995904445648
-0.0742447301745414
-0.0629192739725112
-0.0502799227833747
-0.0373884737491607
-0.0251898448914289
-0.0144216082990169
-0.0055609703995287
0.0011929515749216
0.0058998679742217
0.0088268667459487
0.0103821624070405
0.011047214269638
0.011310257948935
0.0116064716130495
0.0122758783400058
0.0135429035872221
0.0155035117641091
0.0181030929088592
0.0211091749370098
0.0240956395864486
0.0264517087489366
0.0274313036352396
0.0262541491538286
0.0222480334341526
0.0150002697482705
0.0044773621484637
-0.0089210029691457
-0.0243863426148891
-0.040794163942337
-0.0568445436656475
-0.0712251216173172
-0.0827674865722656
-0.0905775651335716
-0.0941283330321312
-0.0932990685105323
-0.0883548036217689
-0.0798785611987114
-0.0686758235096931
-0.0556678064167499
-0.041786964982748
-0.027885477989912
-0.0146618597209453
-0.0026125721633434
0.0079827643930912
0.0170474555343389
0.0246768593788146
0.0310963578522205
0.0366131626069545
0.0415628515183925
0.0462529547512531
0.0509187877178192
0.0556967072188854
0.0605970472097396
0.0654623582959175
0.0699187740683555
0.0733508095145225
0.0749379843473434
0.0737697929143905
0.0690183192491531
0.0601264908909797
0.0469675101339817
0.0299402810633182
0.0099811255931854
-0.0115140452980995
-0.0328537635505199
-0.0522760115563869
-0.0681810528039932
-0.0793255865573883
-0.0849615186452865
-0.0849093794822692
-0.0795526877045631
-0.069755807518959
-0.0567246451973915
-0.0418354980647563
-0.0264608524739742
-0.0118165612220764
0.0011553838849067
0.0118611380457878
0.0200857110321521
0.0259806290268898
0.0300000756978988
0.0327857844531536
0.0350321792066097
0.0373717956244945
0.0402963310480117
0.0441086813807487
0.0488985776901245
0.0545324683189392
0.0606453940272331
0.0666355341672897
0.071682833135128
0.0748167186975479
0.0750423148274421
0.0715095475316047
0.063688538968563
0.0515078827738761
0.0354162752628326
0.0163497142493724
-0.0043767057359218
-0.025218017399311
-0.044568046927452
-0.0609306395053863
-0.073072150349617
-0.0801380798220634
-0.081724040210247
-0.0778951421380043
-0.0691516026854515
-0.056346409022808
-0.0405695587396621
-0.0230163559317588
-0.0048541873693466
0.0128970742225646
0.0294487252831459
0.044278010725975
0.0571272075176239
0.0679817348718643
0.0770260691642761
0.0845799222588539
0.0910264328122139
0.0967424660921096
0.1020378321409225
0.1071053147315979
0.1119764894247055
0.1164779737591743
0.1201968789100647
0.122481033205986
0.1224986016750335
0.1193667203187942
0.1123284995555877
0.1009325683116912
0.0851762592792511
0.0655834302306175
0.04319304600358
0.0194580033421516
-0.0039236675947904
-0.0252155847847461
-0.0428537875413894
-0.055627305060625
-0.0628053396940231
-0.0641991943120956
-0.0601530410349369
-0.0514682009816169
-0.0392776951193809
-0.0248933993279933
-0.009651836939156
0.005219236947596
0.0187083054333925
0.0301009323447942
0.0390202142298221
0.0454167053103446
0.0495178364217281
0.0517535656690597
0.052668772637844
0.0528322644531726
0.0527562610805034
0.0528350919485092
0.0532988160848617
0.0541707016527652
0.0552290827035903
0.0559903867542743
0.055728867650032
0.0535484068095684
0.0485234782099723
0.0398920401930809
0.0272447206079959
0.0106572620570659
-0.0092646367847919
-0.0314352326095104
-0.0544181503355503
-0.0766065120697021
-0.0964199006557464
-0.1124886125326156
-0.123802326619625
-0.1298047006130218
-0.1304230391979217
-0.126035064458847
-0.1173919290304184
-0.1055145412683487
-0.0915648192167282
-0.0767028406262397
-0.0619585663080215
-0.0481386631727218
-0.0357757471501827
-0.0251226127147674
-0.0161826200783252
-0.0087607391178607
-0.0025297217071056
0.0028930716216564
0.0078733786940574
0.0127055197954177
0.0175767242908477
0.0225399807095527
0.0274792052805423
0.0320666432380676
0.0357442572712898
0.0377635657787323
0.0372883453965187
0.0335429310798645
0.0259802117943763
0.0144320353865623
-0.0007964372634887
-0.0189095102250576
-0.0386838652193546
-0.0586026534438133
-0.0770396217703819
-0.0924606919288635
-0.1036050915718078
-0.1096182465553283
-0.1101306080818176
-0.1052829176187515
-0.0956892520189285
-0.0823391526937484
-0.0664600878953933
-0.0493641607463359
-0.0322990380227565
-0.016322698444128
-0.0022163540124893
0.0095596089959144
0.0188647359609603
0.0258336812257766
0.0308024808764457
0.0342284254729747
0.0366164371371269
0.0384556278586387
0.0401620119810104
0.0420211516320705
0.0441369004547596
0.04639857634902
0.0484746545553207
0.0498395822942256
0.0498384274542331
0.0477932095527648
0.0431437641382217
0.0355899930000305
0.0251920223236084
0.0124037265777587
-0.0019633993506431
-0.0168378129601478
-0.031027153134346
-0.0433711633086204
-0.0528896674513816
-0.0589125603437423
-0.0611658468842506
-0.0597903057932853
-0.055294569581747
-0.0484612584114074
-0.0402270704507827
-0.0315564312040805
-0.023327101022005
-0.016240194439888
-0.0107593350112438
-0.0070820376276969
-0.0051469579339027
-0.0046751350164413
-0.0052341446280479
-0.0063115321099758
-0.007394965738058
-0.0080555863678455
-0.0080104954540729
-0.0071476250886917
-0.0055286511778831
-0.0033876560628414
-0.001124057918787
0.0007200464606285
0.0015113241970539
0.0006120987236499
-0.0025065243244171
-0.0081455409526824
-0.0162841249257326
-0.0265433359891176
-0.0382149927318096
-0.0503422953188419
-0.0618432387709617
-0.0716612488031387
-0.0789050012826919
-0.0829475820064544
-0.0834826081991195
-0.0805398523807525
-0.0744601041078567
-0.0658366829156875
-0.055432554334402
-0.0440803542733192
-0.0325821787118911
-0.0216280817985534
-0.0117375329136848
-0.0032231071963906
0.0038176635280251
0.0094818454235792
0.0140158534049987
0.0177481696009635
0.0210174806416034
0.0241207815706729
0.0272840671241283
0.030641283839941
0.0342130064964294
0.0378849916160106
0.0413914434611797
0.0443140417337417
0.0461111366748809
0.0461864694952964
0.0439946874976158
0.0391629375517368
0.0315965265035629
0.0215409621596336
0.0095781683921813
-0.0034484062343835
-0.0165516640990972
-0.028723519295454
-0.0390444993972778
-0.0467776730656623
-0.051441453397274
-0.0528487786650657
-0.0511044114828109
-0.0465659126639366
-0.0397830605506897
-0.0314267575740814
-0.0222087204456329
-0.0127957984805107
-0.0037321522831916
0.0046147927641868
0.0120699666440486
0.0186258107423782
0.0243973806500434
0.0295792203396558
0.0344073064625263
0.0391204543411731
0.0439222902059555
0.048948124051094
0.0542321018874645
0.0596689917147159
0.0649789571762085
0.0696952268481254
0.0731942504644393
0.0747789591550827
0.0738099440932273
0.0698521882295608
0.0627859309315681
0.0528505258262157
0.040628295391798
0.0269833877682685
0.0129613801836967
-0.0003383010625839
-0.0118933469057083
-0.0208720229566097
-0.0267182029783725
-0.0291981324553489
-0.0284016951918602
-0.0247038379311561
-0.0186967626214027
-0.011100348085165
-0.002660509198904
0.0059478618204593
0.0141899287700653
0.0216999799013137
0.0282845459878444
0.0339146107435226
0.0387037992477417
0.0428682640194892
0.0466737821698188
0.0503808967769146
0.0541973412036895
0.0582400783896446
0.0625043362379074
0.0668350458145141
0.0708999335765838
0.0741816312074661
0.0760183557868003
0.0757011324167251
0.0726010203361511
0.066294178366661
0.0566672906279563
0.0439850389957428
0.0288960896432399
0.0123702827841043
-0.0044184792786836
-0.0202374532818794
-0.0339414253830909
-0.0446017831563949
-0.0516035854816436
-0.0546952150762081
-0.0539865046739578
-0.0499030165374279
-0.0431055575609207
-0.034387644380331
-0.0245722196996212
-0.0144270006567239
-0.0046008303761482
0.0044237002730369
0.0123569518327713
0.019102917984128
0.0247344281524419
0.0294449664652347
0.0334868505597114
0.0371144972741603
0.0405438132584095
0.0439226701855659
0.047303207218647
0.0506120547652244
0.0536223277449607
0.0559397265315055
0.0570153221487998
0.0561949610710144
0.0528157837688922
0.0463452450931072
0.0365273132920265
0.0234850570559501
0.0077492976561188
-0.0097853858023881
-0.027965135872364
-0.0455214977264404
-0.0612229891121387
-0.0740081593394279
-0.0830925703048706
-0.0880429297685623
-0.0888040214776992
-0.0856724679470062
-0.0792339146137237
-0.0702821910381317
-0.059721041470766
-0.0484523102641105
-0.0372725985944271
-0.026799215003848
-0.0174333062022924
-0.0093592666089534
-0.0025744449812918
0.0030627707019448
0.0077811437658965
0.0118471914902329
0.0155201833695173
0.0190181843936443
0.0224972460418939
0.0260340720415115
0.0295955576002597
0.0329921096563339
0.035841055214405
0.0375721454620361
0.0374882221221923
0.0348800495266914
0.0291750375181436
0.0200801044702529
0.0076845120638608
-0.0074995048344135
-0.0245730113238096
-0.0423536263406276
-0.0595157444477081
-0.0747455954551696
-0.0868923068046569
-0.095089390873909
-0.0988363027572631
-0.0980427488684654
-0.093025118112564
-0.0844427496194839
-0.0731860846281051
-0.0602451115846633
-0.0465823821723461
-0.0330295339226722
-0.0202189888805151
-0.0085498997941613
0.0018108577933162
0.0108918584883213
0.0188604593276977
0.0259608998894691
0.0324524939060211
0.0385613217949867
0.0444492399692535
0.0501895397901535
0.0557535700500011
0.0610129795968532
0.0657395347952842
0.0695917233824729
0.0721039175987243
0.0726990401744842
0.070741020143032
0.065637320280075
0.0569766238331794
0.0446604378521442
0.0289882384240627
0.0106710847467184
-0.00922766700387
-0.02940384298563
-0.0484615489840507
-0.0650838688015937
-0.0781844109296798
-0.0870098322629928
-0.0911941304802894
-0.0907715260982513
-0.0861495062708854
-0.0780407711863517
-0.0673598423600196
-0.0551036782562732
-0.0422413349151611
-0.0296257846057415
-0.0179261639714241
-0.0075847469270229
0.0011934214271605
0.0084192557260394
0.0142674446105957
0.019002940505743
0.0229153428226709
0.0262806750833988
0.0293421521782875
0.0322972759604454
0.0352895185351371
0.0383996963500976
0.0416271239519119
0.044859804213047
0.0478388853371143
0.0501304790377616
0.051134280860424
0.0501550734043121
0.0465360693633556
0.0398196391761302
0.0298803728073835
0.016990415751934
0.0018138075247406
-0.0146564291790127
-0.0312085952609777
-0.0465564094483852
-0.0594903379678726
-0.0690111815929412
-0.0744336545467376
-0.0754495784640312
-0.0721419304609298
-0.0649512857198715
-0.0546032004058361
-0.0420070141553878
-0.0281369052827358
-0.0139110404998064
-9.859539568424223e-05
0.0127264726907014
0.0241987593472003
0.0341564267873764
0.042616743594408
0.0497338324785232
0.0557469874620437
0.0609286949038505
0.0655404031276702
0.0698003768920898
0.0738644748926162
0.0778186246752739
0.0816786587238311
0.0853892341256141
0.0888136550784111
0.0917118042707443
0.0937107801437377
0.0942894518375396
0.092814490199089
0.0886451601982116
0.0812784731388092
0.0704859644174575
0.0564049035310745
0.0395660102367401
0.0208520218729972
0.0013967603445053
-0.0175512041896581
-0.0347777381539344
-0.0492457635700702
-0.060208074748516
-0.0672711580991745
-0.0704037547111511
-0.0699038505554199
-0.0663410723209381
-0.0604711398482322
-0.0531215146183967
-0.0450755879282951
-0.0369864962995052
-0.0293312408030033
-0.0224011987447738
-0.0163187347352504
-0.011068033054471
-0.0065350923687219
-0.002553429454565
0.0010548382997512
0.0044505968689918
0.0077621713280677
0.0110790655016899
0.0144447833299636
0.0178404152393341
0.0211674608290195
0.02423657476902
0.026754718273878
0.0283140279352664
0.0284048095345497
0.0264713950455188
0.0220088735222816
0.0146785490214824
0.004411794245243
-0.0085268430411815
-0.0235370770096778
-0.0397402010858058
-0.056078590452671
-0.0714369863271713
-0.0847722440958023
-0.0952388495206832
-0.1022835373878479
-0.1056863814592361
-0.1055530086159706
-0.1022712960839271
-0.096438780426979
-0.0887727439403534
-0.0800208896398544
-0.0708817988634109
-0.0619388744235038
-0.0536160618066787
-0.0461574494838714
-0.0396270528435707
-0.0339288339018821
-0.0288465246558189
-0.0241007395088672
-0.0194121599197387
-0.0145497536286711
-0.0093567036092281
-0.0037629983853548
0.0022085139062255
0.0084372032433748
0.0146946059539914
0.0206303782761096
0.0257651954889297
0.0295089650899171
0.0312215816229581
0.0303159523755311
0.026380717754364
0.0192922577261924
0.0092885410413146
-0.0030234879814088
-0.016740383580327
-0.030788566917181
-0.0440617650747299
-0.0555432885885238
-0.0644026473164558
-0.0700632631778717
-0.0722412690520286
-0.0709514915943145
-0.0664767101407051
-0.059309035539627
-0.0500811822712421
-0.0394970998167991
-0.0282621569931507
-0.017014492303133
-0.0062663704156875
0.0036254748702049
0.0124521367251873
0.0201302785426378
0.026686793193221
0.0322439484298229
0.0369976386427879
0.0411936193704605
0.0451021566987037
0.048986405134201
0.0530656017363071
0.0574753284454345
0.062221460044384
0.067128986120224
0.0718046128749847
0.0756458565592765
0.0779149159789085
0.0778610855340957
0.0748612284660339
0.0685558170080185
0.0589566864073276
0.046495147049427
0.0319923721253871
0.0165609754621982
0.0014622472226619
-0.0120538957417011
-0.0229004025459289
-0.0302734747529029
-0.0337263084948062
-0.0331901125609874
-0.028946679085493
-0.0215617157518863
-0.0117909424006938
-0.000480767339468
0.0115185268223285
0.0234297476708889
0.0346162468194961
0.0446254909038543
0.0532031394541263
0.0602847710251808
0.0659703910350799
0.0704838186502456
0.0741220265626907
0.0772038400173187
0.0800252258777618
0.0828223824501037
0.0857425034046173
0.0888225063681602
0.0919645130634307
0.0948934629559516
0.0971160903573036
0.0979295670986175
0.0965057983994484
0.092038556933403
0.0839177519083023
0.0718857049942016
0.056136779487133
0.0373385623097419
0.01657210662961
-0.0047939517535269
-0.0252739191055297
-0.04345029219985
-0.0581364259123802
-0.0684923753142356
-0.0740891695022583
-0.0749263167381286
-0.0714063420891761
-0.0642636269330978
-0.0544517301023006
-0.0430127792060375
-0.0309567395597696
-0.0191647820174694
-0.0083228638395667
0.0011090277694165
0.0088944025337696
0.014993255957961
0.0195184499025344
0.0226862411946058
0.0247723273932933
0.026080697774887
0.0269228424876928
0.0275934636592865
0.028336975723505
0.0293123684823513
0.0305552743375301
0.0319336205720901
0.033112309873104
0.0335527583956718
0.0325666442513465
0.0294279232621192
0.0235229581594467
0.0144987069070339
0.0023681595921516
-0.0124512910842895
-0.029169239103794
-0.0467095859348773
-0.0638363659381866
-0.0793050453066825
-0.0920170843601226
-0.1011429876089096
-0.1061935946345329
-0.1070435941219329
-0.1039156690239906
-0.0973289012908935
-0.0880186930298805
-0.0768420547246933
-0.0646807849407196
-0.0523524545133113
-0.0405377894639968
-0.0297331921756267
-0.0202342607080936
-0.0121435225009918
-0.0053941030055284
0.0002077631652355
0.0049259830266237
0.0090422164648771
0.0128187853842973
0.0164719019085168
0.0201461724936962
0.0238846018910408
0.0275924187153577
0.0310020856559276
0.0336579754948616
0.0349433049559593
0.0341617651283741
0.0306659676134586
0.024005077779293
0.0140554904937744
0.0011019967496395
-0.014157298952341
-0.0306886751204729
-0.0472547486424446
-0.0625638663768768
-0.0754160284996032
-0.0848341584205627
-0.0901685133576393
-0.0911578983068466
-0.0879369601607322
-0.0809924751520156
-0.0710810720920562
-0.0591240711510181
-0.0460937172174453
-0.0329044759273529
-0.0203216336667537
-0.0088954102247953
0.0010671068448573
0.0094833010807633
0.0164458844810724
0.0221685692667961
0.0269353054463863
0.0310518387705087
0.0348014682531356
0.038412220776081
0.0420381315052509
0.0457451082766056
0.0494882315397262
0.0530791170895099
0.0561597943305969
0.0582074895501136
0.0585901252925396
0.0566714480519294
0.0519382879137992
0.0441187843680381
0.0332682617008686
0.0198048166930675
0.004488612525165
-0.0116522051393985
-0.0274392440915107
-0.0416842550039291
-0.0533271096646785
-0.0615494698286056
-0.0658499896526336
-0.0660774260759353
-0.0624219663441181
-0.0553700700402259
-0.045629646629095
-0.0340327396988868
-0.0214391145855188
-0.0086605623364448
0.0036005307920277
0.0148027949035167
0.0245963744819164
0.0328261218965053
0.0395121350884437
0.0448146983981132
0.048989437520504
0.0523369796574115
0.0551540590822696
0.0576950423419475
0.0601417161524295
0.0625704452395439
0.0649167224764823
0.0669508278369903
0.0682758167386055
0.068356342613697
0.0665943548083305
0.0624520815908908
0.0555875115096569
0.0459590256214141
0.0338735692203044
0.0199704971164464
0.0051474645733833
-0.0095542157068848
-0.0230808462947607
-0.0344907939434051
-0.0430566072463989
-0.048334926366806
-0.0501960441470146
-0.0488116294145584
-0.0446131974458694
-0.0382366403937339
-0.0304501540958881
-0.0220600422471761
-0.0138116450980305
-0.006310817785561
2.316106110811233e-05
0.0049752304330468
0.0085262851789593
0.0108217364177107
0.0121247768402099
0.0127646289765834
0.0130829475820064
0.0133818797767162
0.013888431712985
0.0147384088486433
0.0159562677145004
0.0174184367060661
0.0188247077167034
0.0197068154811859
0.0194833539426326
0.017556982114911
0.0134354885667562
0.0068463813513517
-0.0021834261715412
-0.0133000183850526
-0.0258504822850227
-0.0389599837362766
-0.051643218845129
-0.0629284605383873
-0.0719717815518379
-0.0781472697854042
-0.0811121314764022
-0.0808429196476936
-0.0776250064373016
-0.0719920173287391
-0.0646375939249992
-0.0563175119459629
-0.0477531924843788
-0.0395528003573417
-0.0321596078574657
-0.0258259270340204
-0.0206112284213304
-0.0164059940725564
-0.0129767376929521
-0.0100194606930017
-0.0072101014666259
-0.0042490218766033
-0.000902694184333
0.0029579563997685
0.007327034138143
0.0120392991229891
0.0167524181306362
0.0209499038755893
0.0239817574620246
0.0251505598425865
0.0238352101296186
0.0196248292922973
0.0124263139441609
0.0025185076519846
-0.0094588994979858
-0.0225782431662082
-0.0357386022806167
-0.047799713909626
-0.0577207691967487
-0.0646877288818359
-0.0682035982608795
-0.0681232586503028
-0.064636155962944
-0.0582135617733001
-0.0495332032442092
-0.0393877737224102
-0.0285867229104042
-0.0178643614053726
-0.00780626013875
0.0011961534619331
0.0089579783380031
0.0154848769307136
0.0209403336048126
0.0256059095263481
0.0298274625092744
0.0339429229497909
0.0382183045148849
0.0428109988570213
0.0477451644837856
0.0528854243457317
0.0579141192138195
0.0623301677405834
0.0654907301068306
0.0667012184858322
0.0653408393263816
0.0609982088208198
0.0535819120705127
0.0433762148022651
0.0310300197452306
0.0174833312630653
0.0038455463945865
-0.0087507180869579
-0.0192885436117649
-0.0269729197025299
-0.0312970802187919
-0.0320725329220294
-0.0294261388480663
-0.0237671621143817
-0.0157261118292808
-0.0060688182711601
0.0044019632041454
0.0149399675428867
0.0249300561845302
0.0339364111423492
0.0417249128222465
0.0482617504894733
0.0536805801093578
0.0582186952233314
0.0621482543647289
0.065724492073059
0.0691488534212112
0.0725373923778534
0.0758877545595169
0.0790460482239723
0.0816844478249549
0.0833040624856948
0.0832801461219787
0.0809593647718429
0.0757948756217956
0.0674832090735435
0.0560647696256637
0.04196373000741
0.0259568002074956
0.0090792644768953
-0.0075033120810985
-0.0226308312267065
-0.0352748334407806
-0.0446420162916183
-0.0502474904060363
-0.0519511550664901
-0.0499523356556892
-0.0447470620274543
-0.0370530039072036
-0.0277100000530481
-0.0175766181200742
-0.0074398294091224
0.0020583160221576
0.0104746650904417
0.0175867639482021
0.0233707036823034
0.0279492139816284
0.031539186835289
0.0344083085656166
0.036832608282566
0.0390539728105068
0.0412421077489852
0.0434562191367149
0.0456033907830715
0.0474050566554069
0.0483919903635978
0.047948308289051
0.0454113632440567
0.0402120575308799
0.0320212393999099
0.020855613052845
0.0071101672947406
-0.0084785129874944
-0.0249139536172151
-0.0410491824150085
-0.0557142719626426
-0.0678502917289733
-0.0766299068927764
-0.0815432518720626
-0.0824394971132278
-0.0795240104198455
-0.0733117684721946
-0.0645441859960556
-0.0540851093828678
-0.0428093113005161
-0.031499445438385
-0.0207761600613594
-0.0110731208696961
-0.0026389174163341
0.0044523794203996
0.010280005633831
0.0150408782064914
0.0190025698393583
0.0224514938890934
0.0256451182067394
0.0287703890353441
0.0319022424519062
0.0349622219800949
0.0376879051327705
0.0396267101168632
0.0401726216077804
0.0386606939136981
0.0345015451312065
0.0273136496543884
0.0170255191624164
0.0039358288049697
-0.0112824365496635
-0.0276441350579261
-0.0439698249101638
-0.0590309053659439
-0.0716970488429069
-0.0810659825801849
-0.0865536630153656
-0.0879352390766143
-0.085343100130558
-0.0792276859283447
-0.0702829807996749
