bvp
-0.0893196016550064
-0.0967440977692604
-0.1000416278839111
-0.0992125943303108
-0.0946253538131713
-0.0869423821568489
-0.0770163834095001
-0.0657757669687271
-0.0541119799017906
-0.0427840128540992
-0.0323583781719207
-0.0231862515211105
-0.0154040604829788
-0.0089514702558517
-0.003609113395214
0.0009473487734794
0.0050856173038482
0.0091570392251014
0.0134465768933296
0.0181335657835006
0.0232561156153678
0.0286740958690643
0.0340383499860763
0.0387873500585556
0.0421922877430915
0.0434488207101821
0.0418007299304008
0.0366829708218574
0.0278588160872459
0.0155131444334983
0.0002751052379608
-0.016836404800415
-0.0345320478081703
-0.0514112710952758
-0.0661333873867988
-0.0775755196809768
-0.0849578529596328
-0.0879186764359474
-0.0865267068147659
-0.0812325850129127
-0.072776511311531
-0.0620772503316402
-0.0501209534704685
-0.0378539785742759
-0.0260851420462131
-0.0154131576418876
-0.0061901248991489
0.0014800280332565
0.0077107809484004
0.0127742029726505
0.0170284137129783
0.0208494998514652
0.0245770998299121
0.0284729562699794
0.0326876416802406
0.0372320190072059
0.041950836777687
0.0464962422847747
0.0503149107098579
0.0526815354824066
0.0527996160089969
0.0499555990099906
0.0436817593872547
0.0338783487677574
0.0208672918379306
0.0053751748055219
-0.0115427728742361
-0.0286206677556037
-0.0445255972445011
-0.0580088198184967
-0.0680415779352188
-0.0739164724946022
-0.0753051191568374
-0.0722731724381446
-0.0652560964226722
-0.0549919717013835
-0.0424141734838485
-0.0285265669226646
-0.0142854992300271
-0.0005019074305891
0.0122238807380199
0.0235255509614944
0.0332584604620933
0.0414663180708885
0.0483375489711761
0.0541538670659065
0.0592358522117137
0.0638963505625724
0.0684059783816337
0.0729636624455452
0.0776631087064743
0.0824572592973709
0.087129920721054
0.0912818759679794
0.0943448767066001
0.0956399142742157
0.0944828763604164
0.0903192311525344
0.0828534066677093
0.072141483426094
0.0586283802986145
0.0431202873587608
0.026698138564825
0.0105926934629678
-0.0039577921852469
-0.0158538874238729
-0.0242688804864883
-0.028742142021656
-0.029210964217782
-0.0259832590818405
-0.0196626149117946
-0.0110368113964796
-0.0009503392502665
0.0098103480413556
0.0206006802618503
0.03096804022789
0.0406706817448139
0.0496721900999546
0.0581174343824386
0.0662899911403656
0.0745543092489242
0.0832921117544174
0.092848852276802
0.1035079434514045
0.1154892593622207
0.1289472579956054
0.1439476162195205
0.1604135036468505
0.1780550479888916
0.1963183581829071
0.2143844366073608
0.2312221229076385
0.2456869184970855
0.2566558718681335
0.2631738781929016
0.2645790874958038
0.2605909705162048
0.2513505220413208
0.237395092844963
0.2195679694414138
0.1988864243030548
0.1763975769281387
0.1530438214540481
0.1295562237501144
0.1063927710056305
0.0837337374687194
0.061530664563179
0.0395875722169876
0.0176519006490707
-0.0045045763254165
-0.0270263403654098
-0.0499376356601715
-0.0731276124715805
-0.09636090695858
-0.1193139851093292
-0.1416227668523788
-0.1629211604595184
-0.1828670650720596
-0.201165422797203
-0.2175916135311126
-0.2320109009742736
-0.2443888485431671
-0.2547873854637146
-0.2633447647094726
-0.2702500522136688
-0.2757287919521332
-0.2800453007221222
-0.2835040390491485
-0.2864298522472381
-0.2891368567943573
-0.2918983697891235
-0.2949036955833435
-0.2982020378112793
-0.3016627728939056
-0.3049687445163727
-0.3076387941837311
-0.3090775609016418
-0.3086528778076172
-0.3057936131954193
-0.3000868558883667
-0.291346937417984
-0.279641717672348
-0.2652767896652221
-0.2487403452396392
-0.2306201457977295
-0.2115218639373779
-0.1920109689235687
-0.1725749671459198
-0.1535976827144622
-0.1353478133678436
-0.1179845109581947
-0.1015758141875267
-0.086122453212738
-0.0715841725468635
-0.0579049289226532
-0.0450268723070621
-0.0328901000320911
-0.0214245729148387
-0.010537652298808
-9.861215949058531e-05
0.0100700538605451
0.020175190642476
0.0304024294018745
0.0408571362495422
0.0515275821089744
0.0622791200876235
0.0728769600391388
0.0830317810177803
0.0924527943134307
0.100891925394535
0.1081764623522758
0.1142335832118988
0.1190989539027214
0.1229054778814315
0.1258638054132461
0.128239706158638
0.1303240656852722
0.13239286839962
0.134660005569458
0.1372400671243667
0.1401362121105194
0.1432507336139679
0.146411508321762
0.149404764175415
0.1520053744316101
0.1540053933858871
0.1552412807941436
0.1556139439344406
0.1550946533679962
0.1537119895219802
0.1515252888202667
0.1486024707555771
0.1450106352567672
0.1408101022243499
0.1360469758510589
0.1307533234357834
0.1249577552080154
0.1186942532658577
0.1119991689920425
0.1048987880349159
0.0974008738994598
0.0894997343420982
0.0811876058578491
0.0724649280309677
0.0633521080017089
0.0539028421044349
0.0442154966294765
0.0344410650432109
0.0247844904661178
0.0154909789562225
0.0068126991391181
-0.0010304823517799
-0.0078765004873275
-0.0136310011148452
-0.018271081149578
-0.0218455046415328
-0.0244696512818336
-0.0263139978051185
-0.0275812894105911
-0.0284661650657653
-0.0291008576750755
-0.0295063033699989
-0.0295722931623458
-0.0290706679224967
-0.0276907682418823
-0.0250932052731513
-0.0209787338972091
-0.01515394449234
-0.0075738951563835
0.0016416385769844
0.0122139155864715
0.0237292274832725
0.0356718376278877
0.0474554561078548
0.0584529861807823
0.0680305063724517
0.0755916088819503
0.0806328803300857
0.0827998593449592
0.0819346457719802
0.0781104564666748
0.0716334208846092
0.0629999190568924
0.0528315603733062
0.041810929775238
0.0306221526116132
0.0198975354433059
0.0101719498634338
0.0018480606377124
-0.0048232078552246
-0.0097440779209136
-0.0129514038562774
-0.0145871080458164
-0.0148701854050159
-0.0140715539455413
-0.0124911591410636
-0.0104397013783454
-0.0082233846187591
-0.0061266310513019
-0.0043873265385627
-0.0031664259731769
-0.0025261454284191
-0.0024318248033523
-0.002779833972454
-0.0034391395747661
-0.0042887963354587
-0.0052432529628276
-0.0062654372304677
-0.0073665007948875
-0.0085964482277631
-0.0100340098142623
-0.0117734391242265
-0.013904271647334
-0.016493909060955
-0.0195805933326482
-0.0231657233089208
-0.027196180075407
-0.0315484292805194
-0.0360286086797714
-0.0403872728347778
-0.0443421527743339
-0.0476084277033805
-0.0499356463551521
-0.0511424206197261
-0.0511366948485374
-0.0499196946620941
-0.0475824326276779
-0.04429517313838
-0.0402845293283462
-0.0358082205057144
-0.0311397649347782
-0.0265533365309238
-0.0222958661615848
-0.0185560211539268
-0.0154466181993484
-0.0130036659538745
-0.0111958645284175
-0.0099342465400695
-0.0090782567858695
-0.0084483698010444
-0.0078558959066867
-0.0071444250643253
-0.0062263198196887
-0.0051044449210166
-0.0038782879710197
-0.0027404837310314
-0.0019681639969348
-0.0018945708870887
-0.0028459541499614
-0.005058828741312
-0.0086127705872058
-0.0133996307849884
-0.0191234908998012
-0.0253243446350097
-0.0314279049634933
-0.0368149057030677
-0.0408966727554798
-0.0431889481842517
-0.0433717742562294
-0.0413183867931366
-0.0370903015136718
-0.0309138782322406
-0.0231504142284393
-0.0142550989985466
-0.0047243870794773
0.0049531571567058
0.014329694211483
0.0230166353285312
0.0307022146880626
0.0371744595468044
0.0423385314643383
0.0462189838290214
0.048951119184494
0.050762515515089
0.0519405156373977
0.0527925491333007
0.0536098815500736
0.0546302869915962
0.0559930726885795
0.0577023178339004
0.0596197992563247
0.0614901334047317
0.0629908144474029
0.0637979805469513
0.063654750585556
0.062426321208477
0.0601283907890319
0.0569240376353263
0.0530907735228538
0.048964649438858
0.0448774546384811
0.0411068499088287
0.0378510206937789
0.0352202095091342
0.0332328081130981
0.0318215303122997
0.0308552924543619
0.0301659498363733
0.0295756421983242
0.0289271231740713
0.0281019080430269
0.0270138271152973
0.0255937781184911
0.0237820446491241
0.0215214826166629
0.0187400765717029
0.0153276259079575
0.0111265163868665
0.0059494581073522
-0.0003894716501235
-0.0080499965697526
-0.017147097736597
-0.0277402009814977
-0.0398410484194755
-0.0534367524087429
-0.068512238562107
-0.0850603058934211
-0.1030721515417099
-0.1224996522068977
-0.1431887745857238
-0.1648093163967132
-0.186815544962883
-0.2084526270627975
-0.2288057953119278
-0.2468843013048172
-0.2617325484752655
-0.2725518047809601
-0.2788033485412597
-0.2802693843841553
-0.2770646810531616
-0.2696035802364349
-0.2585344016551971
-0.2446544170379638
-0.228817731142044
-0.2118464708328247
-0.1944547742605209
-0.1771917343139648
-0.1604072749614715
-0.1442456096410751
-0.1286648958921432
-0.1134779602289199
-0.0984107255935669
-0.08317132294178
-0.0675117075443267
-0.0512701570987701
-0.0344025641679763
-0.0170181095600128
0.000577226281166
0.0178546607494354
0.0340891629457473
0.0484502762556076
0.0601409524679183
0.0685530602931976
0.0734027177095413
0.0748157352209091
0.0733480453491211
0.0699367225170135
0.0657858252525329
0.0622037649154663
0.0604277253150939
0.0614713430404663
0.0660121887922287
0.0743266940116882
0.0862774699926376
0.10135018825531
0.1187335848808288
0.1374302953481674
0.1563790589570999
0.174571692943573
0.1911579072475433
0.2055278718471527
0.2173586636781692
0.2266196012496948
0.2335355132818222
0.2385113984346389
0.2420428395271301
0.2446389198303222
0.2467620968818664
0.2487786710262298
0.250913143157959
0.253201425075531
0.2554493844509125
0.2572144865989685
0.257835328578949
0.2565256655216217
0.2525204420089721
0.2452380508184433
0.2344216853380203
0.2202301770448684
0.2032525539398193
0.1844395101070404
0.1649770587682724
0.1461363434791565
0.1291208118200302
0.114925630390644
0.1042255759239196
0.0973079651594162
0.0940596759319305
0.0940038487315177
0.0963770300149917
0.1002372354269027
0.1045878604054451
0.1084968224167823
0.1111976504325866
0.1121676266193389
0.1111671701073646
0.1082245111465454
0.103582426905632
0.0976363718509674
0.0908719301223754
0.0837973281741142
0.0768739283084869
0.0704521685838699
0.0647118613123893
0.0596024096012115
0.0547993592917919
0.0497095920145511
0.0435461848974227
0.0354690253734588
0.0247628763318061
0.0110062509775161
-0.0058167055249214
-0.0252861306071281
-0.0465904362499713
-0.0686214119195938
-0.0901037082076072
-0.1097461730241775
-0.1263969838619232
-0.1391803324222564
-0.1475953906774521
-0.1515621542930603
-0.1514066904783249
-0.147794023156166
-0.1416272968053817
-0.1339276134967804
-0.1257051825523376
-0.1178390979766845
-0.1109881922602653
-0.1055470257997512
-0.1016406267881393
-0.0991443991661071
-0.0977281406521797
-0.0969256982207298
-0.0962176844477653
-0.0951111242175102
-0.09321029484272
-0.0902824997901916
-0.0863244384527206
-0.0816177651286125
-0.0767426192760467
-0.0725263208150863
-0.0699242576956749
-0.0698484256863594
-0.072984792292118
-0.0796466171741485
-0.0896897166967392
-0.1024993434548378
-0.1170517653226852
-0.1320416778326034
-0.1460511088371276
-0.1577275097370147
-0.1659443974494934
-0.1699277311563491
-0.1693334877490997
-0.1642643213272094
-0.1552260369062423
-0.1430366039276123
-0.128704696893692
-0.113296702504158
-0.0978147312998771
-0.0831033065915107
-0.0697863698005676
-0.0582293272018432
-0.0485271215438842
-0.0405246689915657
-0.0338711440563201
-0.0280989632010459
-0.0227114707231521
-0.0172657296061515
-0.0114452019333839
-0.0051287561655044
0.0015406608581542
0.0081125050783157
0.013851910829544
0.01784548163414
0.0191663652658462
0.0170594900846481
0.0111116170883178
0.0013719871640205
-0.0116073414683341
-0.0268222689628601
-0.0429419204592704
-0.0584779493510723
-0.0719718784093856
-0.0821761041879654
-0.0881990119814872
-0.0895920768380165
-0.0863729417324066
-0.0789890959858894
-0.0682309418916702
-0.0551077239215374
-0.0407117530703544
-0.0260990820825099
-0.0121937170624732
0.000291422009468
0.0109118744730949
0.0195132121443748
0.026210606098175
0.0313321501016616
0.0353405401110649
0.0387481898069381
0.0420352146029472
0.0455752834677696
0.049569047987461
0.0539840534329414
0.0585131049156188
0.0625748559832573
0.0653752237558364
0.0660319179296493
0.0637444406747818
0.0579702854156494
0.0485595762729644
0.0358197018504142
0.0205044820904731
0.0037334114313125
-0.0131453573703765
-0.0287254638969898
-0.0417181476950645
-0.0511064641177654
-0.056253645569086
-0.0569514371454715
-0.0534093268215656
-0.0461940057575702
-0.0361378118395805
-0.0242340322583913
-0.0115227568894624
0.0010249987244606
0.0126067250967025
0.0226595066487789
0.030895859003067
0.0372980162501335
0.042073830962181
0.045587383210659
0.0482795685529708
0.0505899004638195
0.0528867244720459
0.0554109141230583
0.0582328662276268
0.0612195879220962
0.0640161335468292
0.0660570636391639
0.0666281878948211
0.0649837404489517
0.060497585684061
0.0528089702129364
0.0419233329594135
0.0282488316297531
0.0125678554177284
-0.0040492117404937
-0.0203711055219173
-0.0351518876850605
-0.0472774393856525
-0.0558909773826599
-0.0604763031005859
-0.0608920380473136
-0.0573672652244567
-0.0504679977893829
-0.041028656065464
-0.0300427973270416
-0.018530536442995
-0.0074130706489086
0.0025853589177131
0.010998461395502
0.0176377724856138
0.0225747395306825
0.0260911807417869
0.0286063700914382
0.0305967219173908
0.0325263291597366
0.0347954258322715
0.0376961305737495
0.041356224566698
0.0456705354154109
0.0502564199268817
0.0544731318950653
0.0575088858604431
0.058516688644886
0.0567725487053394
0.0518208965659141
0.043577242642641
0.0323706865310668
0.0189180113375186
0.0042338259518146
-0.0105034727603197
-0.0241021942347288
-0.0354983657598495
-0.0438701286911964
-0.0487200543284416
-0.049921877682209
-0.0477169640362262
-0.0426550768315792
-0.0354992970824241
-0.0271171070635318
-0.018371133133769
-0.0100229196250438
-0.0026608407497406
0.003343366086483
0.0078487414866685
0.010929511860013
0.0128333438187837
0.0139238331466913
0.0146189853549003
0.0153326168656349
0.016417097300291
0.0181069634854793
0.0204732716083526
0.0233960337936878
0.026554200798273
0.0294402092695236
0.0314121767878532
0.0317867808043956
0.029959462583065
0.0255269110202789
0.018385075032711
0.0087806656956672
-0.0026970580220222
-0.0151822082698345
-0.027637992054224
-0.0389844961464405
-0.0482389368116855
-0.0546466074883937
-0.0577691942453384
-0.0575168319046497
-0.0541309155523777
-0.048126470297575
-0.040206279605627
-0.0311636477708816
-0.0217869989573955
-0.0127765890210866
-0.0046820435672998
0.0021354351192712
0.0075158700346946
0.0114890970289707
0.0142442751675844
0.016086783260107
0.0173818990588188
0.0184884369373321
0.0196995101869106
0.0212037656456232
0.023063039407134
0.025196585804224
0.0273714140057563
0.0292113739997148
0.030237928032875
0.0299449581652879
0.0278972443193197
0.0238283425569534
0.0177097469568252
0.0097760092467069
0.0005087926983833
-0.0094099473208189
-0.0191760696470737
-0.0279713105410337
-0.0350746624171733
-0.0399487614631652
-0.0422933511435985
-0.0420645028352737
-0.0394639186561107
-0.0349058918654918
-0.0289612039923667
-0.0222822725772857
-0.0155259827151894
-0.0092851975932717
-0.0040310565382242
-7.060542702674866e-05
0.0024749562144279
0.003668624907732
0.0037297699600458
0.0029835831373929
0.0018022507429122
0.0005513075739145
-0.0004550274461507
-0.0009892201051115
-0.0009404886513948
-0.0003463998436927
0.0005801375955343
0.0014492301270365
0.0017350604757666
0.0008591832593083
-0.0017011268064379
-0.0063022654503583
-0.0130428504198789
-0.021713875234127
-0.0318105481564998
-0.0426031649112701
-0.0532391034066677
-0.0628505051136016
-0.0706547200679779
-0.0760366916656494
-0.0786048844456672
-0.0782184824347496
-0.0749875083565712
-0.0692481994628906
-0.0615135505795478
-0.0524041429162025
-0.0425729677081108
-0.032634038478136
-0.0230975784361362
-0.0143192932009696
-0.0064793862402439
0.0004022493958473
0.0064311921596527
0.0118019729852676
0.0167612098157405
0.0215666890144348
0.0264429003000259
0.0315356738865375
0.0368678793311119
0.0422996468842029
0.0475056208670139
0.0519897863268852
0.0551484413444995
0.0563714243471622
0.0551624149084091
0.0512531027197837
0.0446753017604351
0.0357676111161708
0.0251289252191782
0.0135452561080455
0.001901414245367
-0.0089159272611141
-0.0181098096072673
-0.0250504575669765
-0.0293326377868652
-0.0308031924068927
-0.0295600593090057
-0.0259299799799919
-0.0204220563173294
-0.0136561840772628
-0.0062780752778053
0.0011229813098907
0.0080774500966072
0.0142698474228382
0.0195501744747161
0.0239305719733238
0.0275641828775405
0.0307052694261074
0.0336597301065921
0.0367344357073307
0.0401845052838325
0.0441570281982421
0.0486367456614971
0.0534028373658657
0.0580137223005294
0.0618411004543304
0.0641619116067886
0.0642928332090377
0.0617287717759609
0.0562473721802234
0.0479652360081672
0.0373439639806747
0.0251443907618522
0.012336142361164
-2.1733343601226807e-05
-0.0109107159078121
-0.0194704979658126
-0.025086123496294
-0.0274393297731876
-0.0265233106911182
-0.0226221680641174
-0.0162620954215526
-0.0081367194652557
0.0009900704026222
0.0103792622685432
0.0193868614733219
0.0275141224265098
0.0344452559947967
0.0400631465017795
0.0444351360201835
0.0477744489908218
0.050389289855957
0.0526261031627655
0.054808285087347
0.057176798582077
0.059841301292181
0.0627422630786895
0.0656240731477737
0.068033255636692
0.0693611502647399
0.0689311921596527
0.0661131963133812
0.0604486726224422
0.0517668277025222
0.0402584858238697
0.0264837741851806
0.0113115571439266
-0.0041917208582162
-0.018897408619523
-0.0317528992891311
-0.0419036224484443
-0.0487804785370826
-0.0521443709731102
-0.0520873069763183
-0.0489922650158405
-0.0434613600373268
-0.0362307764589786
-0.028086420148611
-0.0197804719209671
-0.0119503075256943
-0.005056545138359
0.0006455667316913
0.0051036193035542
0.0084395697340369
0.0109010282903909
0.0128057189285755
0.0144891086965799
0.0162565968930721
0.0183409564197063
0.0208652820438146
0.0238103717565536
0.0269866101443767
0.0300112571567296
0.0323059000074863
0.0331478416919708
0.0317889004945755
0.0276104714721441
0.0202684439718723
0.0097899474203586
-0.0033988300710916
-0.0185126140713691
-0.0345033220946788
-0.0501947738230228
-0.0644269213080406
-0.0761845633387565
-0.0846985355019569
-0.0895105674862861
-0.0904982388019561
-0.0878685936331749
-0.0821247771382331
-0.0739945843815803
-0.0643238872289657
-0.0539647191762924
-0.0436819419264793
-0.034084890037775
-0.0255868546664714
-0.0183914080262184
-0.0125010591000318
-0.0077461274340748
-0.0038318836595863
-0.0003973976708948
0.002925079781562
0.0064615556038916
0.0104605741798877
0.0150540303438901
0.0202024243772029
0.0256450064480304
0.0308872554451227
0.0352422036230564
0.0379267893731594
0.0381985604763031
0.0355026349425315
0.0295938067138195
0.0206062607467174
0.0090594915673136
-0.0041964715346693
-0.0180851984769105
-0.0314375460147857
-0.0431297570466995
-0.0522056818008422
-0.0579756461083889
-0.060088861733675
-0.0585618689656257
-0.0537464842200279
-0.0462524481117725
-0.0368540175259113
-0.0263934172689914
-0.0156847219914197
-0.0054276227019727
0.0038553341291844
0.0118498690426349
0.0184511095285415
0.0237405896186828
0.0279431734234094
0.0313719511032104
0.0343742966651916
0.0372812002897262
0.0403560996055603
0.0437520891427993
0.0474841259419918
0.0514081493020057
0.0552020445466041
0.0583601146936416
0.0602241083979606
0.0600673519074916
0.0572241023182868
0.0512307584285736
0.0419406294822692
0.029588671401143
0.0147967748343944
-0.0014815609902143
-0.0180694181472063
-0.0337126553058624
-0.0472421757876873
-0.0577172599732875
-0.0645194947719574
-0.0673939138650894
-0.0664482712745666
-0.0621155053377151
-0.0550818592309951
-0.0461898520588874
-0.0363317355513572
-0.0263492483645677
-0.0169512145221233
-0.008656958118081
-0.0017685927450656
0.0036310106515884
0.0076588233932852
0.0105882156640291
0.0127828801050782
0.0146285248920321
0.0164812020957469
0.0186299253255128
0.0212642755359411
0.0244430433958768
0.0280642956495285
0.0318421013653278
0.0353019163012504
0.0378127247095108
0.0386683829128742
0.0372095927596092
0.0329586043953895
0.0257348679006099
0.0157261006534099
0.0034929905086755
-0.0100983772426843
-0.0239920448511838
-0.0370733812451362
-0.048296108841896
-0.0567920058965683
-0.0619545802474021
-0.0634920224547386
-0.0614433251321315
-0.0561515018343925
-0.0481983050704002
-0.0383185558021068
-0.0273110084235668
-0.0159528423100709
-0.0049234200268983
0.0052543766796588
0.0142433689907193
0.0218850336968898
0.0281699895858764
0.0332071855664253
0.0371940582990646
0.0403793081641197
0.0430208034813404
0.0453486181795597
0.0475363060832023
0.0496754944324493
0.0517477542161941
0.0535937324166297
0.0548928529024124
0.0551777482032775
0.0539003834128379
0.0505416691303253
0.0447307005524635
0.0363394692540168
0.0255403071641922
0.0128193385899066
-0.001061949878931
-0.0151538159698247
-0.0284381713718175
-0.0399582013487815
-0.0489330552518367
-0.0548423454165458
-0.0574753805994987
-0.056940346956253
-0.0536326430737972
-0.0481725484132766
-0.0413228645920753
-0.0338929593563079
-0.026646377518773
-0.0202303789556026
-0.0151248378679156
-0.0116043966263532
-0.0097225531935691
-0.0093253031373023
-0.0100895278155803
-0.0115799494087696
-0.0133195323869585
-0.0148586509749293
-0.0158301070332527
-0.0159926358610391
-0.0152688222005963
-0.013776384294033
-0.0118413278833031
-0.0099757583811879
-0.008816490881145
-0.0090307667851448
-0.0111953597515821
-0.015672780573368
-0.0225206781178712
-0.0314545780420303
-0.041868656873703
-0.0529098436236381
-0.0635882169008255
-0.072902113199234
-0.0799599438905716
-0.0840852782130241
-0.0848931148648262
-0.0823258310556411
-0.0766433477401733
-0.0683706998825073
-0.0582186207175254
-0.0469974055886268
-0.0355278626084327
-0.0245516207069158
-0.0146571137011051
-0.0062313955277204
0.0005618818104267
0.0057746097445487
0.0096376035362482
0.0125072840601205
0.0148052740842103
0.0169543251395225
0.0193199794739484
0.0221654847264289
0.0256125777959823
0.0296012591570615
0.0338549017906188
0.0378694236278533
0.040954865515232
0.0423436164855957
0.0413432866334915
0.0374889373779296
0.0306537300348281
0.0210968665778636
0.0094455946236848
-0.0033813118934631
-0.0162922069430351
-0.0281614549458026
-0.0379664190113544
-0.0449026934802532
-0.0484622865915298
-0.0484675541520118
-0.0450689904391765
-0.0387159436941146
-0.0300918743014335
-0.0200137272477149
-0.0093196034431457
0.0012324899435043
0.0110451504588127
0.0197376944124698
0.0271795205771923
0.033501774072647
0.0390816256403923
0.0444956570863723
0.0504498966038227
0.057702150195837
0.0669925510883331
0.0789829269051551
0.0941787809133529
0.1128045544028282
0.1346486210823059
0.1589523404836654
0.1844190061092376
0.2093601077795028
0.2319397777318954
0.2504599690437317
0.2636241912841797
0.2707152962684631
0.2716461718082428
0.2668892741203308
0.2573369741439819
0.2441537976264953
0.2286444008350372
0.2121255248785019
0.1957869976758957
0.1805478632450103
0.166947603225708
0.1551112830638885
0.1447897255420684
0.1354573965072631
0.1264464706182479
0.1170852780342102
0.10681614279747
0.0952808111906051
0.0823611170053482
0.0681681483983993
0.0529943704605102
0.0372520238161087
0.0214108079671859
0.0059314966201782
-0.0088109821081161
-0.0225965678691864
-0.0353880077600479
-0.0473257899284362
-0.0587235242128372
-0.0700517445802688
-0.0818814635276794
-0.0947977006435394
-0.1093064919114112
-0.1257482767105102
-0.1442235857248306
-0.1645332723855972
-0.1861447393894195
-0.2082018852233886
-0.2295850962400436
-0.2490197122097015
-0.2652317881584167
-0.2771340012550354
-0.2839979231357574
-0.285561740398407
-0.282034695148468
-0.2740060985088348
-0.2623261213302612
-0.2480219602584839
-0.2322481125593185
-0.2162259966135025
-0.2011456489562988
-0.1880401521921157
-0.1776592284440994
-0.1703679263591766
-0.1660976558923721
-0.1643717437982559
-0.1644056886434555
-0.1652536988258361
-0.1659614145755767
-0.1656998097896576
-0.1638728231191635
-0.1601939052343368
-0.1547324955463409
-0.1479339003562927
-0.1405995488166809
-0.1338138878345489
-0.1288221180438995
-0.1268706619739532
-0.1290271878242492
-0.1360093504190445
-0.1480457782745361
-0.1647886633872985
-0.1853112280368805
-0.2082126587629318
-0.2318083494901657
-0.2543565034866333
-0.2742747068405151
-0.2903081178665161
-0.3016186952590942
-0.3077840209007263
-0.3087254762649536
-0.3046122789382934
-0.2957870364189148
-0.2827259302139282
-0.2660090327262878
-0.2462742328643798
-0.2241603434085846
-0.2002587616443634
-0.175085112452507
-0.1490664929151535
-0.1225304305553436
-0.0956925749778747
-0.0686558187007904
-0.0414309799671173
-0.0139762759208679
0.0137525200843811
0.0417464077472686
0.0698862373828888
0.0978935956954956
0.1253095269203186
0.1515275239944458
0.1758838444948196
0.1977770179510116
0.2167824506759643
0.2327310442924499
0.2457304894924163
0.2561360895633697
0.2644978761672973
0.2714987993240356
0.277885377407074
0.2843959331512451
0.2916999459266662
0.3003588318824768
0.3108097612857818
0.3233615756034851
0.3381743431091308
0.3552044630050659
0.3741363883018493
0.3943513929843902
0.4149680733680725
0.4349379241466522
0.4531441330909729
0.4684815406799316
0.4799363911151886
0.4866876006126404
0.4882249236106872
0.48444664478302
0.4756927490234375
0.4626963138580322
0.4464701414108276
0.4281656146049499
0.4089385271072387
0.3898270726203918
0.3716120719909668
0.3546075522899627
0.3384071290493011
0.3217763900756836
0.3029003143310547
0.2799660265445709
0.251810073852539
0.2183290421962738
0.180531233549118
0.1402972042560577
0.0999830514192581
0.061986681073904
0.0283726286143064
0.0006267242133617
-0.0204318314790725
-0.0346032977104187
-0.0421756729483604
-0.043764479458332
-0.0401746928691864
-0.0323212854564189
-0.0212125685065984
-0.0079663470387458
0.0061821080744266
0.0199131742119789
0.0319063775241375
0.0409593433141708
0.0461199507117271
0.0468021035194397
0.0428476631641387
0.0345131084322929
0.0223890841007232
0.0072765797376632
-0.009952574968338
-0.028482586145401
-0.0476458668708801
-0.0669765844941139
-0.0862271413207054
-0.1053348407149314
-0.1243372708559036
-0.1432684659957885
-0.1620718240737915
-0.1805464476346969
-0.1983331888914108
-0.214941143989563
-0.2298041731119156
-0.242353618144989
-0.2520990371704101
-0.2587035596370697
-0.2620359659194946
-0.2621893286705017
-0.2594648003578186
-0.2543297410011291
-0.2473656088113784
-0.2392110377550125
-0.2305001020431518
-0.2218016237020492
-0.2135687917470932
-0.2061052322387695
-0.1995489448308944
-0.1938762217760086
-0.1889244765043258
-0.1844318062067031
-0.1800895631313324
-0.1755974292755127
-0.1707106232643127
-0.1652743518352508
-0.1592481136322021
-0.1527321338653564
-0.1459945142269134
-0.1394695937633514
-0.1337064504623413
-0.1292814165353775
-0.1266993731260299
-0.1262992322444915
-0.1281764358282089
-0.132137268781662
-0.1376932859420776
-0.1440994441509246
-0.1504369229078292
-0.1557287722826004
-0.159065306186676
-0.1597170829772949
-0.1572201699018478
-0.1514267176389694
-0.1425204873085022
-0.1309898197650909
-0.1175542175769805
-0.1030612960457801
-0.0883794203400611
-0.0743006318807601
-0.0614586099982261
-0.0502674728631973
-0.040893979370594
-0.0332702547311782
-0.0271373782306909
-0.0221043787896633
-0.0177138932049274
-0.0135074974969029
-0.0090782269835472
-0.0041080769151449
0.0015930524095892
0.0080418791621923
0.0150494445115327
0.0222244132310152
0.0290196128189563
0.0348130762577056
0.0390083044767379
0.0411375015974044
0.0409500934183597
0.038468949496746
0.0340008847415447
0.0281023941934108
0.021513145416975
0.0150676760822534
0.0095962174236774
0.0058269873261451
0.0043000690639019
0.0053059495985507
0.0088614486157894
0.0147251337766647
0.0224426500499248
0.0314102508127689
0.040951695293188
0.0504031814634799
0.0591911375522613
0.0668892487883567
0.073251761496067
0.0782225802540779
0.0819201841950416
0.084605261683464
0.0866394639015197
0.0884314849972724
0.0903683230280876
0.0927507728338241
0.0957467630505561
0.099353976547718
0.1033704280853271
0.1073895990848541
0.1108393743634224
0.1130681633949279
0.1134595945477485
0.111549511551857
0.1071215718984603
0.1002613455057144
0.0913577005267143
0.0810547620058059
0.0701712220907211
0.0595984235405921
0.0501847639679908
0.0426311902701854
0.037424199283123
0.0348078049719333
0.034781128168106
0.0371134504675865
0.0413790084421634
0.04701454564929
0.0533930137753486
0.0598974376916885
0.0659829899668693
0.0712247490882873
0.0753484815359115
0.0782434195280075
0.0799607262015342
0.0806933417916297
0.0807299837470054
0.0803945586085319
0.0799895450472831
0.0797469466924667
0.0797848030924797
0.0800704210996627
0.0803963392972946
0.0803847983479499
0.0795312523841857
0.0772833079099655
0.0731444954872131
0.0667828693985939
0.0581176280975341
0.0473626814782619
0.0350178107619285
0.021807923913002
0.0085833752527832
-0.0037915534339845
-0.0145394504070281
-0.0230526216328144
-0.0289547517895698
-0.0321361422538757
-0.0327572524547576
-0.0312167778611183
-0.0280849933624267
-0.0240145623683929
-0.0196513384580612
-0.0155608057975769
-0.0121734915301203
-0.0097505347803235
-0.0083717349916696
-0.0079501960426568
-0.0082729775458574
-0.0090518500655889
-0.0099682323634624
-0.0107129123061895
-0.0110275279730558
-0.0107514727860689
-0.0098697766661643
-0.0085471235215663
-0.0071314834058284
-0.0061174891889095
-0.0060712546110153
-0.0075315162539482
-0.010904237627983
-0.0163670480251312
-0.0238079652190208
-0.0328229218721389
-0.0427734032273292
-0.0528772473335266
-0.0623062774538993
-0.0702828243374824
-0.0761687308549881
-0.0795325338840484
-0.0801872909069061
-0.0782013311982154
-0.0738806501030922
-0.0677202939987182
-0.0603327080607414
-0.0523679070174694
-0.0444373898208141
-0.0370471812784671
-0.0305457543581724
-0.0251017101109027
-0.0207190960645675
-0.0172725059092044
-0.0145437903702259
-0.0122615061700344
-0.0101444721221923
-0.0079430490732193
-0.0054767057299613
-0.0026747062802314
0.0003825202584266
0.003443282097578
0.0061033330857753
0.0078611299395561
0.0082027427852153
0.0067074336111545
0.003150600939989
-0.0024305582046508
-0.0097290948033332
-0.018205814063549
-0.0271539278328418
-0.03578657284379
-0.0433355942368507
-0.0491420701146125
-0.0527295842766761
-0.0538552179932594
-0.0525299273431301
-0.0490060523152351
-0.0437358319759368
-0.0373056195676326
-0.0303544998168945
-0.0234877355396747
-0.017197610810399
-0.0118126068264245
-0.0074888840317726
-0.0042309109121561
-0.001917365938425
-0.0003265962004661
0.0008288025856018
0.0018552150577306
0.0030258018523454
0.0045282468199729
0.0064161010086536
0.0085737686604261
0.0107118990272283
0.0124042760580778
0.0131637807935476
0.0125429835170507
0.0102329887449741
0.0061314646154642
0.0003679078072309
-0.0067051742225885
-0.0145452339202165
-0.0224776025861501
-0.0297770518809556
-0.0357589125633239
-0.0398626700043678
-0.041716493666172
-0.0411749929189682
-0.0383288152515888
-0.03348970413208
-0.0271504800766706
-0.0199190974235534
-0.0124338418245315
-0.0052736727520823
0.0011140340939164
0.0064478856511414
0.0106135625392198
0.0136517994105815
0.0157388672232627
0.0171515941619873
0.0182155147194862
0.019245259463787
0.0204883255064487
0.0220788735896348
0.0240037739276886
0.0260861366987228
0.0279952976852655
0.0292897820472717
0.0294960644096136
0.0282132532447576
0.0252107121050357
0.0204845387488603
0.0142658343538641
0.0069917826913297
-0.0007482733926735
-0.0082827918231487
-0.0149386208504438
-0.0201223865151405
-0.0233892146497964
-0.0244928151369094
-0.0234125070273876
-0.020348822697997
-0.015686897560954
-0.0099370758980512
-0.0036622295156121
0.0025986414402723
0.0083920173346996
0.0133827123790979
0.0173666048794984
0.020277202129364
0.0221849475055933
0.0232784878462553
0.023824818432331
0.0241200514137744
0.0244413763284683
0.0250004380941391
0.02589787915349
0.027086716145277
0.02835782058537
0.0293596666306257
0.0296601578593254
0.0288399569690227
0.0265829935669899
0.0227382741868495
0.0173534266650676
0.01068308763206
0.0031675207428634
-0.0046175932511687
-0.0120320413261652
-0.0184507220983505
-0.02333914488554
-0.02631601318717
-0.0271962769329547
-0.0260088648647069
-0.0229852143675088
-0.0185194127261638
-0.0131072979420423
-0.0072733741253614
-0.0015024095773696
0.0038062389940023
0.0083660082891583
0.0120220445096492
0.0147551540285348
0.0166657008230686
0.0179429929703474
0.0188284516334533
0.0195774622261524
0.0204185843467712
0.0215096548199653
0.0228962060064077
0.0244823172688484
0.0260254647582769
0.0271644126623868
0.0274810753762722
0.0265799183398485
0.0241622552275657
0.0200872719287872
0.0144154429435729
0.0074227908626198
-0.0004207147285342
-0.0085073271766304
-0.0161730274558067
-0.022784024477005
-0.02781243622303
-0.0308949463069438
-0.0318661928176879
-0.0307625774294137
-0.0278041269630193
-0.0233611762523651
-0.0179042313247919
-0.0119440034031867
-0.0059753488749265
-0.0004257373511791
0.0043909177184104
0.0083032064139842
0.0112841390073299
0.013428115285933
0.0149165717884898
0.0159830097109079
0.0168776996433734
0.0178336128592491
0.0190350580960512
0.0205826293677091
0.0224564597010612
0.0244979262351989
0.0264225788414478
0.0278544221073389
0.0283713862299919
0.027567084878683
0.0251301359385252
0.0209228545427322
0.015034032985568
0.0077893277630209
-0.0002839907538145
-0.0085287429392337
-0.0162484180182218
-0.0228000674396753
-0.027674987912178
-0.0305527187883853
-0.0313234291970729
-0.0300841629505157
-0.0271132607012987
-0.0228269323706626
-0.0177259352058172
-0.0123366639018058
-0.0071484432555735
-0.0025544096715748
0.0011911932379007
0.0039877369999885
0.00587709993124
0.007018422242254
0.0076535111293196
0.0080642066895961
0.0085277715697884
0.0092780869454145
0.0104760881513357
0.0121861128136515
0.0143541833385825
0.0167894177138805
0.0191595256328582
0.0210206750780344
0.0218894816935062
0.0213375240564346
0.0190801862627267
0.0150393666699528
0.0093702031299471
0.0024523364845663
-0.0051524387672543
-0.0127724893391132
-0.0197132378816604
-0.0253419652581214
-0.0291640292853117
-0.030880831182003
-0.0304164346307516
-0.0279161501675844
-0.0237249601632356
-0.0183383207768201
-0.0123257376253604
-0.0062507055699825
-0.0006068515358492
0.0042267511598765
0.0080129522830247
0.0106673557311296
0.0122506991028785
0.012942312285304
0.0130002936348319
0.0127168875187635
0.0123777771368622
0.0122306142002344
0.0124607495963573
0.0131624937057495
0.0142984986305236
0.0156670715659856
0.0169060360640287
0.0175400637090206
0.0170616526156663
0.0150278620421886
0.0111500509083271
0.0053588533774018
-0.002166552003473
-0.011008858680725
-0.0205563940107822
-0.0300725325942039
-0.0387848764657974
-0.0459794849157333
-0.0510819964110851
-0.0537195056676864
-0.0537633560597896
-0.0513435266911983
-0.0468258187174797
-0.0407551005482673
-0.033774483948946
-0.0265374220907688
-0.0196297392249107
-0.0135088413953781
-0.0084634013473987
-0.0045976596884429
-0.0018418207764625
1.76173634827137e-05
0.0012947949580848
0.0023506865836679
0.0035359654575586
0.0051403222605586
0.0073476238176226
0.0101989060640335
0.0135698365047574
0.0171614382416009
0.0205106660723686
0.0230400525033473
0.0241513885557651
0.0233414452522993
0.0203065164387226
0.0150111261755228
0.0077095245942473
-0.0010785022750496
-0.0106263607740402
-0.0200840681791305
-0.0285783391445875
-0.0353194251656532
-0.0397036597132682
-0.0413912832736969
-0.0403368547558784
-0.0367704667150974
-0.0311468001455068
-0.0240769740194082
-0.0162486545741558
-0.0083395130932331
-0.0009370557963848
0.0055206567049026
0.0107760010287165
0.0147560024634003
0.0175577662885189
0.0194185972213745
0.0206693522632122
0.021673223003745
0.0227594152092933
0.0241724625229835
0.0260493904352188
0.028409095481038
0.0311361886560916
0.0339657142758369
0.0364876985549926
0.0381842032074928
0.0385015159845352
0.0369477719068527
0.0331933349370956
0.0271496064960956
0.0190094616264104
0.0092418529093265
-0.0014564283192157
-0.0122444592416286
-0.0222451481968164
-0.0306533239781856
-0.0368208102881908
-0.0403149239718914
-0.0409549437463283
-0.0388211570680141
-0.0342274159193038
-0.0276640150696039
-0.0197281204164028
-0.0110540557652711
-0.0022513382136821
0.0061481744050979
0.0137364594265818
0.0202617943286895
0.0256357472389936
0.0299109034240245
0.033237800002098
0.0358182564377784
0.0378699153661727
0.0396035872399807
0.0412050187587738
0.0428123697638511
0.0444812774658203
0.0461386442184448
0.0475471876561641
0.0483083054423332
0.0479141399264335
0.0458410829305648
0.0416639000177383
0.0351632460951805
0.0264007747173309
0.0157405957579612
0.0038108255248516
-0.0085753425955772
-0.0205136910080909
-0.0311092529445886
-0.0395790487527847
-0.0453435555100441
-0.0480897538363933
-0.0477958656847476
-0.0447174459695816
-0.0393409468233585
-0.0323144607245922
-0.0243660770356655
-0.0162166580557823
-0.0084934523329138
-0.0016607102006673
0.004009751137346
0.0084266467019915
0.0116531299427151
0.0138822775334119
0.0154037922620773
0.0165568422526121
0.0176787637174129
0.0190601125359535
0.0209096539765596
0.0233220513910055
0.0262387488037347
0.0294110961258411
0.0323951281607151
0.0345990471541881
0.0353783294558525
0.034155324101448
0.0305301770567893
0.0243581384420394
0.0157936532050371
0.0053018708713352
-0.0063788117840886
-0.0183272138237953
-0.02955855242908
