bvp
0.0021733525209128
0.0013938215561211
0.0011208136565983
0.0014596346300095
0.0024446533061563
0.0040317857638001
0.0060790185816586
0.0083198379725217
0.0103491824120283
0.0116429030895233
0.0116202151402831
0.009745399467647
0.0056518870405852
-0.0007461155764758
-0.0091978358104825
-0.0191346481442451
-0.0297469515353441
-0.0400939732789993
-0.0492278970777988
-0.056315578520298
-0.0607407577335834
-0.0621716752648353
-0.0605844631791114
-0.0562419891357421
-0.0496374554932117
-0.0414152294397354
-0.0322814472019672
-0.0229201167821884
-0.0139240846037864
-0.0057397820055484
0.0013638529926538
0.007290743291378
0.0120915453881025
0.0159331858158111
0.0190630331635475
0.0217654258012771
0.0243170261383056
0.0269502773880958
0.0298293828964233
0.0330382846295833
0.0365795418620109
0.040376927703619
0.0442679673433303
0.047982707619667
0.0511255636811256
0.0531808920204639
0.0535491965711116
0.0516203194856643
0.0468884855508804
0.0390816256403923
0.0282570794224739
0.0148363765329122
-0.000425137579441
-0.0165240243077278
-0.0323282480239868
-0.0467090457677841
-0.0586661286652088
-0.0674275532364845
-0.0725147798657417
-0.0737730786204338
-0.0713668018579483
-0.0657393634319305
-0.057549625635147
-0.047595664858818
-0.036721222102642
-0.025711316615343
-0.0152037814259529
-0.005636878311634
0.0027645975351333
0.0099725611507892
0.0161176845431327
0.0214361324906349
0.0262090396136045
0.0307088661938905
0.0351602472364902
0.0397154465317726
0.0444454662501812
0.0493347719311714
0.0542561188340187
0.058928620070219
0.0628933832049369
0.0655369013547897
0.0661719888448715
0.0641625672578811
0.0590604022145271
0.0507195368409156
0.0393631942570209
0.0255904793739318
0.0103201977908611
-0.0053173936903476
-0.0201166570186615
-0.032936904579401
-0.0428257584571838
-0.0491075329482555
-0.0514379926025867
-0.0498295538127422
-0.0446330346167087
-0.0364703200757503
-0.0261364616453647
-0.0144952163100242
-0.0023854114115238
0.009454108774662
0.0204407833516597
0.0301814228296279
0.038475178182125
0.0452916361391544
0.0507360398769378
0.0550093874335289
0.0583706274628639
0.0611040443181991
0.0634833425283432
0.0657302811741828
0.0679820030927658
0.0702708065509796
0.0725020468235015
0.074425607919693
0.0756185799837112
0.0755056366324424
0.0734326690435409
0.0687882900238037
0.0611478313803672
0.0503989644348621
0.0368092134594917
0.0210194420069456
0.003973658196628
-0.0131934909150004
-0.0292951371520757
-0.0432376414537429
-0.0541418828070163
-0.0614212043583393
-0.064818225800991
-0.0644036754965782
-0.060541920363903
-0.053832821547985
-0.0450372509658336
-0.034991942346096
-0.0245237369090318
-0.0143746007233858
-0.005142655223608
0.0027599155437201
0.0091309333220124
0.0139798112213611
0.0174969919025897
0.0199943110346794
0.0218404531478881
0.0234097875654697
0.0250423848628997
0.0270068980753421
0.0294623970985412
0.0324164293706417
0.035680629312992
0.0388391017913818
0.0412544533610343
0.0421349927783012
0.0406680516898632
0.0361887514591217
0.0283370930701494
0.0171650853008031
0.0031628757715225
-0.0128037128597497
-0.0296130646020174
-0.0460274890065193
-0.0608357265591621
-0.0729880183935165
-0.0817075371742248
-0.0865600258111953
-0.0874721482396125
-0.084704041481018
-0.0787883996963501
-0.0704480856657028
-0.0605024844408035
-0.0497707426548004
-0.0389827340841293
-0.0287107340991497
-0.0193340741097927
-0.0110435355454683
-0.0038754418492317
0.0022471882402896
0.0074797440320253
0.0120241995900869
0.0160958971828222
0.0198934581130743
0.0235763676464557
0.0272467136383056
0.0309279784560203
0.0345376059412956
0.0378588065505027
0.040525659918785
0.0420413240790367
0.0418461263179779
0.0394250564277172
0.0344181209802627
0.0267084874212741
0.0164789222180843
0.0042236596345901
-0.0092915743589401
-0.0231137946248054
-0.0362152233719825
-0.0476145669817924
-0.0564880296587944
-0.0622557774186134
-0.0646335333585739
-0.0636432319879531
-0.059584841132164
-0.0529775321483612
-0.044481910765171
-0.0348233170807361
-0.0247302912175655
-0.0148789752274751
-0.0058349631726741
0.001994751393795
0.0083839558064937
0.0132806468755006
0.0167796276509761
0.019084570929408
0.0204648040235042
0.021210903301835
0.0215966552495956
0.0218495950102806
0.0221233963966369
0.0224690809845924
0.0228086896240711
0.0229179598391056
0.022432655096054
0.0208965837955474
0.0178524143993854
0.012953981757164
0.0060694925487041
-0.0026519149541854
-0.0127691570669412
-0.0235967058688402
-0.0342949777841568
-0.0439814254641532
-0.0518436953425407
-0.0572399199008941
-0.0597737058997154
-0.0593313798308372
-0.0560755878686904
-0.0504100248217582
-0.0429320484399795
-0.0343662127852439
-0.0254745427519083
-0.0169642753899097
-0.0094146579504013
-0.003230819478631
0.001374514773488
0.0043741725385189
0.0059017241001129
0.0062183625996112
0.0056749135255813
0.0046662185341119
0.003580417484045
0.0027556624263525
0.0024529229849576
0.0028314944356679
0.0039103841409087
0.0055288206785917
0.0073361583054065
0.0088258916512131
0.0094091491773724
0.0085166841745376
0.0057151913642883
0.0008128816261887
-0.0060781366191804
-0.014542456716299
-0.0239184349775314
-0.033388078212738
-0.0420804619789123
-0.0491765178740024
-0.0540025383234024
-0.0561071522533893
-0.0553165636956691
-0.0517493560910224
-0.0457814000546932
-0.0379776507616043
-0.0290111936628818
-0.019580015912652
-0.0103287464007735
-0.0017842724919319
0.0056850751861929
0.0118839014321565
0.0167831294238567
0.0204972326755523
0.0232480950653553
0.0253235399723052
0.0270392820239067
0.0286982581019401
0.0305423364043235
0.0327135771512985
0.0352351889014244
0.0379993692040443
0.0407564975321292
0.0431176424026489
0.0445839427411556
0.044609785079956
0.0426952764391899
0.0384888052940368
0.031874980777502
0.0230265371501445
0.0124045833945274
0.0007084645330905
-0.0112070944160223
-0.0224360860884189
-0.0321369618177413
-0.0396328940987587
-0.0444729775190353
-0.0464560873806476
-0.0456285923719406
-0.0422587804496288
-0.0367889814078807
-0.0297740027308464
-0.021815687417984
-0.0134976990520954
-0.0053263306617736
0.0023131221532821
0.0091795995831489
0.0151802692562341
0.0203573983162641
0.0248549655079841
0.0288667026907205
0.0325881503522396
0.0361900962889194
0.0398033671081066
0.0434998981654644
0.0472644865512847
0.0509587936103343
0.0542909279465675
0.0568140856921672
0.0579703822731971
0.057179357856512
0.0539571046829223
0.048034880310297
0.0394412539899349
0.0285315606743097
0.0159592907875776
0.0025911480188369
-0.0106081236153841
-0.0226907860487699
-0.0328278690576553
-0.0403893962502479
-0.0449931994080543
-0.0465195849537849
-0.0450989380478858
-0.0410787761211395
-0.0349712707102298
-0.0273865535855293
-0.0189615786075592
-0.0102918222546577
-0.001872319728136
0.0059456843882799
0.0129705537110567
0.0191501341760158
0.0245334804058074
0.0292368344962596
0.0334152281284332
0.0372359566390514
0.0408549308776855
0.0443934649229049
0.0479105710983276
0.0513694956898689
0.0545992963016033
0.0572620034217834
0.058854978531599
0.0587699078023433
0.0563991740345954
0.0512651354074478
0.0431407168507576
0.0321260243654251
0.0186640582978725
0.0035023214295506
-0.0123861273750662
-0.0279095768928527
-0.0419787690043449
-0.0536264963448047
-0.0621089413762092
-0.06697628647089
-0.0681059211492538
-0.065694011747837
-0.0602087639272213
-0.0523175597190856
-0.0427991300821304
-0.0324501506984233
-0.022001901641488
-0.0120620168745517
-0.0030778404325246
0.0046867039054632
0.0111532602459192
0.0164048075675964
0.0206447057425975
0.024148404598236
0.0272124391049146
0.0301084890961647
0.0330470167100429
0.0361429005861282
0.0393734872341156
0.0425349697470665
0.0452210754156112
0.04684903845191
0.0467361770570278
0.0442126914858818
0.0387573987245559
0.0301331337541341
0.0184804629534482
0.0043382132425904
-0.0114098191261291
-0.0276418104767799
-0.0431353859603405
-0.0567133426666259
-0.0673758164048194
-0.0744028091430664
-0.0774163231253624
-0.0763963982462883
-0.071655124425888
-0.0637795776128768
-0.0535543523728847
-0.0418717600405216
-0.029635090380907
-0.0176621321588754
-0.0066041108220815
0.0031040171161293
0.0112579679116606
0.0178683511912822
0.0231193788349628
0.0273127239197492
0.0308102741837501
0.0339793935418129
0.0371419824659824
0.0405310839414596
0.0442518070340156
0.0482412874698638
0.0522286929190158
0.0557089075446128
0.0579622387886047
0.0581466518342494
0.055452786386013
0.0492809079587459
0.0393921583890914
0.0259974766522645
0.0097653605043888
-0.0082503035664558
-0.0267416089773178
-0.0443056039512157
-0.0596057288348674
-0.0715190395712852
-0.0792486146092414
-0.0823851823806762
-0.0809241905808448
-0.0752504616975784
-0.0660831406712532
-0.0543727688491344
-0.0411696806550025
-0.0274950545281171
-0.0142353288829326
-0.0020698932930827
0.0085648689419031
0.0174771472811698
0.0246921423822641
0.0304045528173446
0.0349207818508148
0.038599893450737
0.0418050065636634
0.0448666028678417
0.0480426847934722
0.0514716506004333
0.0551314689218997
0.0588110201060771
0.0620940327644348
0.0643689706921577
0.0648870095610618
0.0628765746951103
0.0576925128698349
0.0489636957645416
0.0367071740329265
0.0213787779211998
0.0038467375561594
-0.014698477461934
-0.0328782200813293
-0.0492826551198959
-0.0626335963606834
-0.0719381496310234
-0.0766021013259887
-0.0764763578772544
-0.071839801967144
-0.063336580991745
-0.0518802069127559
-0.0385339893400669
-0.0243840850889682
-0.0104252099990844
0.0025273789651691
0.0138938631862401
0.0233527980744838
0.0308324359357357
0.0364745631814003
0.0405786857008934
0.043532595038414
0.0457365065813064
0.0475379414856433
0.0491931959986686
0.0508542507886886
0.0525638423860073
0.0542400106787681
0.0556514784693717
0.0564043298363685
0.0559617727994918
0.0537132695317268
0.049091950058937
0.0417098216712474
0.0314706154167652
0.0186381004750728
0.0038479827344417
-0.0119523480534553
-0.0276341885328292
-0.0420465730130672
-0.0541562214493751
-0.0631556510925293
-0.0685422271490097
-0.0701596066355705
-0.0681978240609169
-0.0631580352783203
-0.0557831972837448
-0.0469604581594467
-0.0376139394938945
-0.0286056511104106
-0.0206503961235284
-0.0142475292086601
-0.0096408575773239
-0.0068228151649236
-0.0055824480950832
-0.0055716335773468
-0.0063680168241262
-0.0075306463986635
-0.0086470562964677
-0.0093711894005537
-0.009453983977437
-0.008770614862442
-0.0073499493300914
-0.0054025650024414
-0.0033337660133838
-0.0017286762595176
-0.0012950636446475
-0.0027524679899215
-0.00668416172266
-0.0134006384760141
-0.0228577032685279
-0.0346387773752212
-0.0479936823248863
-0.0619251579046249
-0.0753077268600463
-0.0870198905467987
-0.0960738435387611
-0.1017268747091293
-0.103558674454689
-0.1015035212039947
-0.0958364829421043
-0.0871212631464004
-0.0761295109987258
-0.0637395232915878
-0.0508255027234554
-0.0381588637828826
-0.0263407249003648
-0.0157668720930814
-0.0066178981214761
0.0011286530643701
0.0076641435734927
0.01329458784312
0.0183764975517988
0.0232583098113536
0.0282348953187465
0.0335128270089626
0.0391806028783321
0.0451770946383476
0.0512575507164001
0.0569702573120594
0.0616667531430721
0.0645626783370971
0.0648473799228668
0.0618272684514522
0.0550773218274116
0.044562429189682
0.0306942053139209
0.0143114048987627
-0.0034087263047695
-0.0210921913385391
-0.0373365208506584
-0.0508735999464988
-0.0607055500149726
-0.0662011206150055
-0.0671416446566581
-0.0637125223875045
-0.0564457699656486
-0.0461315773427486
-0.0337187498807907
-0.0202071294188499
-0.0065348669886589
0.0065165981650352
0.0183828826993703
0.0287447199225425
0.0375235192477703
0.0448420569300651
0.0509634986519813
0.056226797401905
0.0609865672886371
0.065560832619667
0.0701907202601432
0.0750126987695694
0.0800324231386184
0.0850849747657775
0.0897880643606185
0.0935244038701057
0.0954906642436981
0.0948164314031601
0.0907236039638519
0.0826907083392143
0.0705907493829727
0.0547692105174064
0.0360389910638332
0.0155965276062488
-0.005117742344737
-0.0245888158679008
-0.0414009690284729
-0.0543901473283767
-0.0627556890249252
-0.0661283060908317
-0.064594954252243
-0.0586672313511371
-0.0491881892085075
-0.0372035726904869
-0.0238275285810232
-0.0101169906556606
0.0030325707048177
0.0149564100429415
0.0252511333674192
0.0337694585323333
0.0405850186944007
0.0459367409348487
0.0501622296869754
0.0536333322525024
0.0567060410976409
0.0596812181174755
0.0627671852707862
0.0660477802157402
0.0694589167833328
0.0727656334638595
0.0755404010415077
0.0771608725190162
0.0768515765666961
0.0737857967615127
0.0672393664717674
0.056760087609291
0.0423051491379737
0.0243083462119102
0.0036639366298913
-0.0183585062623024
-0.0402476862072944
-0.0604240074753761
-0.0774348601698875
-0.090128868818283
-0.0977725982666015
-0.1001031547784805
-0.0973240733146667
-0.0900506004691124
-0.0792134702205658
-0.0659360736608505
-0.0514000952243804
-0.0367154702544212
-0.0228131040930748
-0.0103725548833608
0.0002121860161423
0.0088283577933907
0.0156056117266416
0.0208498500287532
0.0249588452279567
0.0283408313989639
0.0313572287559509
0.0342913419008255
0.0373338833451271
0.040576122701168
0.0440007112920284
0.0474601984024047
0.0506430715322494
0.0530464686453342
0.0539828538894653
0.0526416301727294
0.0482156835496425
0.0400771647691726
0.0279521048069
0.0120329968631267
-0.007001020014286
-0.02804521843791
-0.0496886633336544
-0.0703756660223007
-0.0885872393846511
-0.1030147522687912
-0.1127025634050369
-0.1171413362026214
-0.1163009777665138
-0.1106038689613342
-0.1008475422859191
-0.0880871191620826
-0.0734926685690879
-0.0582030527293682
-0.0431992411613464
-0.0292217098176479
-0.016742892563343
-0.0059789018705487
0.0030782520771026
0.0106135234236717
0.016928119584918
0.0223730467259883
0.027289692312479
0.0319652929902076
0.036606840789318
0.0413341373205184
0.0461847707629203
0.0511185340583324
0.0560106486082077
0.0606299340724945
0.0646101012825965
0.0674270614981651
0.068401962518692
0.0667635798454284
0.0617820136249065
0.0529394745826721
0.0400865748524665
0.0235377810895442
0.0040810965001583
-0.0170911476016044
-0.0385113097727298
-0.0586057156324386
-0.0758783221244812
-0.0890804603695869
-0.0973420217633247
-0.100245177745819
-0.0978366509079933
-0.0905937775969505
-0.0793589130043983
-0.065238356590271
-0.0494658574461936
-0.0332545489072799
-0.0176675636321306
-0.003524993546307
0.0086447643116116
0.0186081305146217
0.026392800733447
0.0322314724326133
0.0364925302565097
0.0396040305495262
0.0419839993119239
0.0439926050603389
0.0459080934524536
0.0479147918522357
0.050093188881874
0.0524123981595039
0.0547261983156204
0.0567674487829208
0.058141142129898
0.0583303645253181
0.0567365065217018
0.0527654290199279
0.0459479838609695
0.0360662154853343
0.0232501216232776
0.0080152079463005
-0.008770179003477
-0.0259796641767025
-0.0423663333058357
-0.0567194744944572
-0.0680168867111206
-0.0755456238985061
-0.0789698511362075
-0.0783426314592361
-0.0740717500448226
-0.0668500512838363
-0.0575593523681163
-0.0471603870391845
-0.0365834832191467
-0.0266334190964698
-0.0179183855652809
-0.0108083579689264
-0.0054250359535217
-0.0016634836792945
0.0007595214992761
0.0022381134331226
0.0031997542828321
0.0040385518223047
0.0050781397148966
0.0065550720319151
0.0086083095520734
0.0112763075158
0.0145019898191094
0.0181350596249103
0.0219198428094387
0.0254680700600147
0.0282381866127252
0.0295558534562587
0.0286943335086107
0.0250032842159271
0.0180558003485202
0.007769813761115
-0.0055365422740578
-0.0211592745035886
-0.0380750782787799
-0.0550522543489933
-0.070792980492115
-0.0840825587511062
-0.0939273089170456
-0.0996646210551261
-0.1010244786739349
-0.0981342568993568
-0.0914728268980979
-0.0817845091223716
-0.0699717253446579
-0.0569816306233406
-0.0436966829001903
-0.0308482199907302
-0.0189682636409997
-0.0083731655031442
0.0008313134312629
0.0087222158908844
0.0155116394162178
0.0214915163815021
0.0269812643527984
0.0322818979620933
0.0376374572515487
0.0432060360908508
0.049043945968151
0.055104024708271
0.061238657683134
0.0671908259391784
0.0725719034671783
0.0768417865037918
0.07931450009346
0.0792216211557388
0.0758442804217338
0.0686773955821991
0.0575743690133094
0.0428329817950725
0.0251999888569116
0.0057984478771686
-0.0139999333769083
-0.03273656219244
-0.0490368530154228
-0.0617597997188568
-0.0701080113649368
-0.073689579963684
-0.0725286602973938
-0.0670360326766967
-0.0579484701156616
-0.0462303981184959
-0.0329436883330345
-0.019114751368761
-0.0056262761354446
0.0068547055125236
0.0179106779396533
0.0273724514991045
0.0352893359959125
0.0418798848986625
0.0474718697369098
0.0524364337325096
0.0571226067841053
0.0618073754012584
0.0666747540235519
0.0718145370483398
0.0772197246551513
0.0827752649784088
0.0882376581430435
0.0932033956050872
0.0970814228057861
0.0991061180830001
0.0984184518456459
0.0942099317908287
0.0858942195773124
0.0732624754309654
0.0565864667296409
0.0366425216197967
0.0146443108096718
-0.0078964391723275
-0.0293464735150337
-0.0481414273381233
-0.0629694461822509
-0.0729157924652099
-0.077541634440422
-0.0768943578004837
-0.0714638531208038
-0.0620967075228691
-0.0498774424195289
-0.0359928235411644
-0.0215975735336542
-0.0076983347535133
0.0049312338232994
0.01579693518579
0.0246880166232585
0.0316446907818317
0.0369043573737144
0.0408338606357574
0.0438510254025459
0.0463530234992504
0.0486717298626899
0.0510537438094615
0.0536502972245216
0.0565144605934619
0.0596050731837749
0.0627792552113533
0.065758004784584
0.068080335855484
0.0690849423408508
0.0679540336132049
0.0638281106948852
0.0559752695262432
0.0439771115779876
0.0278705991804599
0.0081998147070407
-0.0140182357281446
-0.037391573190689
-0.0603057071566581
-0.081114076077938
-0.0983310341835022
-0.1107962131500244
-0.117794781923294
-0.119119718670845
-0.1150651574134826
-0.1063589081168174
-0.0940535962581634
-0.0793908014893531
-0.0636511594057083
-0.0480099432170391
-0.0334220565855503
-0.0205555967986583
-0.0097731379792094
-0.001146069727838
0.005503355525434
0.0105330664664506
0.0143981026485562
0.0175727512687444
0.0204899795353412
0.0234976485371589
0.0268285125494003
0.0305879041552543
0.0347592048346996
0.0392120853066444
0.0436956137418746
0.0478134378790855
0.050994873046875
0.0524918437004089
0.0514392852783203
0.0469925440847873
0.0385114327073097
0.0257365871220827
0.0089080315083265
-0.0112067218869924
-0.033380102366209
-0.0560626685619354
-0.0775619745254516
-0.0962435901165008
-0.1107270568609237
-0.1200381442904472
-0.1236936300992965
-0.1217172443866729
-0.1146010309457779
-0.1032265424728393
-0.0887484475970268
-0.07244773209095
-0.0555760525166988
-0.0392176955938339
-0.0241932794451713
-0.0110169993713498
9.821471758186816e-05
0.0091990772634744
0.0165274757891893
0.0224465318024158
0.0273659415543079
0.0316784046590328
0.035720307379961
0.0397536754608154
0.0439521260559558
0.048387411981821
0.0530301295220851
0.0577614456415176
0.0623716302216053
0.0665347278118133
0.0697786584496498
0.0714833512902259
0.0709317475557327
0.0674190819263458
0.0604021400213241
0.0496511980891227
0.0353612191975116
0.0181886479258537
-0.0007957648485898
-0.0202234927564859
-0.0385929308831691
-0.0544559881091117
-0.0665885657072067
-0.074118785560131
-0.0766078308224678
-0.0740777850151062
-0.0669835060834884
-0.0561361871659755
-0.0425900295376777
-0.0275096241384744
-0.01203896664083
0.0028121925424784
0.0162511337548494
0.0277480985969305
0.0370504036545753
0.0441672168672084
0.049319889396429
0.0528647676110267
0.0552145577967166
0.0567778497934341
0.0579170510172843
0.058919720351696
0.059982668608427
0.061210099607706
0.0626202821731567
0.0641473829746246
0.0656288415193557
0.0667825266718864
0.0671908557415008
0.066314660012722
0.0635537281632423
0.0583534240722656
0.0503307580947876
0.0393808633089065
0.0257400646805763
0.0099997073411941
-0.0069355070590972
-0.0239460803568363
-0.0398343689739704
-0.053470741957426
-0.0639275535941124
-0.0705852657556533
-0.0731960088014602
-0.0718951448798179
-0.0671657770872116
-0.0597683377563953
-0.0506399013102054
-0.0407709740102291
-0.0310896690934896
-0.0223781466484069
-0.0152121186256408
-0.0099170207977294
-0.0065558049827814
-0.0049545839428901
-0.0047582183033227
-0.005504336208105
-0.0066994819790124
-0.007881760597229
-0.0086644999682903
-0.0087642408907413
-0.0080186706036329
-0.0063959844410419
-0.0039929803460836
-0.0010295268148183
0.002142870798707
0.005024891346693
0.0069841966032981
0.0073254816234111
0.0054034739732742
0.0007525421679019
-0.0067970361560583
-0.0170469917356967
-0.0294220019131898
-0.0430241860449314
-0.056740403175354
-0.0693859308958053
-0.0798578858375549
-0.0872652977705001
-0.0910155177116394
-0.0908604934811592
-0.0869129002094268
-0.0796270370483398
-0.0697347894310951
-0.0581428557634353
-0.0458122231066226
-0.0336441993713378
-0.0223895274102687
-0.0125846210867166
-0.0045176688581705
0.0017687608487904
0.006442567333579
0.0098291737958788
0.0123501513153314
0.0144575238227844
0.0165745019912719
0.0190545413643121
0.0221533291041851
0.0260027032345533
0.0305933952331542
0.0357736684381961
0.0412513017654418
0.0465881489217281
0.0512002445757389
0.0543889850378036
0.0554174408316612
0.0536245927214622
0.0485549755394458
0.0400735884904861
0.0284342989325523
0.0142811480909585
-0.0014148745685815
-0.0174678526818752
-0.0326235145330429
-0.0457164607942104
-0.0558024197816848
-0.0622452981770038
-0.0647597908973693
-0.0634122639894485
-0.0585808828473091
-0.0508834719657897
-0.0410879328846931
-0.0300157647579908
-0.0184450726956129
-0.0070251263678073
0.0037821438163518
0.0137250199913978
0.0227524898946285
0.0309800188988447
0.0386284925043582
0.0459406673908233
0.0531037747859954
0.0602030977606773
0.0672070831060409
0.0739725232124328
0.0802599191665649
0.085754707455635
0.0900874137878418
0.0928425416350364
0.0935565009713172
0.0917226076126098
0.0868272483348846
0.0784285590052604
0.0662680193781852
0.0503858849406242
0.0311960931867361
0.0094896340742707
-0.01362378988415
-0.0368105992674827
-0.0586320385336875
-0.0776790380477905
-0.0927119627594947
-0.1027850806713104
-0.1073330715298652
-0.1062115356326103
-0.0996950641274452
-0.0884356871247291
-0.0733801573514938
-0.0556510612368583
-0.0364107936620712
-0.0167377702891826
0.0024564824998378
0.0204641595482826
0.0367907285690307
0.0511472299695014
0.0634248405694961
0.0736594274640083
0.0819945558905601
0.0886432453989982
0.0938490778207779
0.0978524088859558
0.1008695811033248
0.1030829399824142
0.1046265363693237
0.1055529490113258
0.1057848781347274
0.1050711572170257
0.1029647067189216
0.0988434627652168
0.0919986367225647
0.0817874521017074
0.0678110048174858
0.050060112029314
0.0289882309734821
0.0055242795497179
-0.0189384091645479
-0.0426003895699977
-0.0634388029575347
-0.0795281827449798
-0.0893888175487518
-0.0922252461314201
-0.088003933429718
-0.0773939937353134
-0.0616157315671443
-0.0422353558242321
-0.0209286492317914
0.000756274908781
0.0215883310884237
0.0407587960362434
0.0578993111848831
0.0730356723070144
0.086500808596611
0.0988106951117515
0.110508769750595
0.1220043003559112
0.1334391087293625
0.1446156799793243
0.1550028026103973
0.1638041734695434
0.17005655169487
0.1727370172739029
0.1708824336528778
0.1637075692415237
0.1506857126951217
0.1315849125385284
0.1064870283007621
0.0758096426725387
0.0403231680393219
0.0011409372091293
-0.040328525006771
-0.0824645683169364
-0.1235483139753341
-0.1618996411561966
-0.1960226595401764
-0.2247371077537536
-0.247278407216072
-0.263359397649765
-0.2731750011444092
-0.277334451675415
-0.2767406702041626
-0.2724499702453613
-0.2655352056026459
-0.2569732666015625
-0.2475698143243789
-0.2379221618175506
-0.2284146398305893
-0.2192356288433075
-0.2104043066501617
-0.2018048614263534
-0.1932272315025329
-0.184407353401184
-0.175067514181137
-0.1649607121944427
-0.1539089381694793
-0.1418262124061584
-0.1287333816289901
-0.1147742792963981
-0.100231297314167
-0.0855310335755348
-0.0712291300296783
-0.0579643212258815
-0.0463799014687538
-0.037027034908533
-0.0302774626761674
-0.026269132271409
-0.0248886533081531
-0.0257841348648071
-0.0284103266894817
-0.0321020632982254
-0.0361519083380699
-0.0398740619421005
-0.0426565930247306
-0.0440065264701843
-0.0435846373438835
-0.0412236377596855
-0.0369264334440231
-0.0308444947004318
-0.0232405364513397
-0.0144445896148681
-0.00480617582798
0.0053575336933135
0.015808530151844
0.0264170616865158
0.0371623635292053
0.0481004044413566
0.0593135580420494
0.0708662718534469
0.0827730670571327
0.0949769765138626
0.1073406264185905
0.1196425557136535
0.1315669864416122
0.1426902562379837
0.1524773836135864
0.1603019088506698
0.1655027717351913
0.1674837917089462
0.1658371239900589
0.1604524105787277
0.1515724062919616
0.1397792994976043
0.1259315013885498
0.1110777854919433
0.0963571965694427
0.0828883051872253
0.0716578215360641
0.0634205564856529
0.0586236342787742
0.0573673695325851
0.059410847723484
0.064219981431961
0.0710464268922805
0.0790258646011352
0.0872853398323059
0.0950440317392349
0.1016850247979164
0.1067876815795898
0.1101350858807563
0.1117087304592132
0.1116705983877182
0.1103334128856659
0.1081180274486541
0.1054987534880638
0.1029455363750457
0.100870169699192
0.099572516977787
0.0991825759410858
0.099609188735485
0.1005151495337486
0.1013376116752624
0.1013648957014083
0.0998518094420433
0.0961373299360275
0.089748278260231
0.0804838389158248
0.0684657990932464
0.0541426911950111
0.0382470935583114
0.0217120982706546
0.0055626109242439
-0.0091998353600502
-0.0217049680650234
-0.0313012190163135
-0.0376128815114498
-0.0405634082853794
-0.040364384651184
-0.0374758765101432
-0.0325484201312065
-0.0263523496687412
-0.0196918547153472
-0.0133088938891887
-0.0077985320240259
-0.003552452661097
-0.0007339240983128
0.0007172627374529
0.0010549183934926
0.0006725466810166
2.545543975429609e-05
-0.0004573904443532
-0.000457290560007
0.0001559723168611
0.0012590643018484
0.0024457918480038
0.0030530393123626
0.0022529978305101
-0.0007878430187702
-0.0067137219011783
-0.0158068723976612
-0.0278867818415164
-0.0423021763563156
-0.0580089837312698
-0.0737117677927017
-0.0880404859781265
-0.0997288525104522
-0.1077661737799644
-0.1115060299634933
-0.1107201650738716
-0.1055929511785507
-0.0966613069176673
-0.0847188830375671
-0.0707113444805145
-0.0556328818202018
-0.0404248684644699
-0.0258884169161319
-0.0126254074275493
-0.0010117832571268
0.0088003296405076
0.0168531611561775
0.0233332458883523
0.0285138934850692
0.0326988436281681
0.0361745916306972
0.0391760021448135
0.0418621636927127
0.0442977733910083
0.0464287437498569
0.0480460487306118
0.0487631037831306
0.0480408482253551
0.0452669411897659
0.0398738719522953
0.0314735658466815
0.0199778154492378
0.0056691765785217
-0.0108000263571739
-0.0284771434962749
-0.0462273955345153
-0.0628791004419326
-0.0773721411824226
-0.0888800844550132
-0.0968851670622825
-0.1012068092823028
-0.1019922569394111
-0.0996695309877395
-0.0948649495840072
-0.0883014053106308
-0.0807004272937774
-0.0727051496505737
-0.0648320689797401
-0.0574499443173408
-0.0507803335785865
-0.0449130907654762
-0.0398278310894966
-0.0354165658354759
-0.0315090268850326
-0.0278982855379581
-0.024360042065382
-0.020671198144555
-0.0166407637298107
-0.0121555458754301
-0.0072361417114734
-0.0020904839038848
0.0028593204915523
0.0069956444203853
0.0095753259956836
0.0098482966423034
0.007206629961729
0.0013281553983688
-0.0077230427414178
-0.0194639433175325
-0.0330327674746513
-0.0472867153584957
-0.0609337985515594
-0.0726831033825874
-0.0813977271318435
-0.086222693324089
-0.0866640135645866
-0.0826137587428093
-0.0743309035897255
-0.0623914375901222
-0.0476138927042484
-0.0309653505682945
-0.0134606342762708
0.0039323326200246
0.0203721951693296
0.0352011024951934
0.0479747653007507
0.0584695041179657
0.0666704550385475
0.0727379098534584
0.0769540295004844
0.0796663463115692
0.0812406986951828
0.0820189118385315
0.0822693556547164
0.082128494977951
0.0815510228276252
0.0802949666976928
0.0779587104916572
0.0740689411759376
0.06820048391819
0.0600966140627861
0.0497548729181289
0.0374597869813442
0.0237639807164669
0.0094197653234004
-0.0047287847846746
-0.0178571827709674
-0.0292393360286951
-0.0382897332310676
-0.0445869714021682
-0.0478919632732868
-0.0481601133942604
-0.0455437302589416
-0.0403808467090129
-0.0331635624170303
-0.024485521018505
-0.0149781145155429
-0.005246796645224
0.0041880132630467
0.012942629866302
0.0207982901483774
0.0276896860450506
0.033667754381895
0.0388635173439979
0.043455421924591
0.0476302690804004
0.0515373274683952
0.0552343539893627
0.0586257390677928
0.0614126063883304
0.063085488975048
0.0629795640707016
0.0603911951184272
0.0547312311828136
0.0456784889101982
0.0332964062690734
0.0180780962109565
0.0009085088968276
-0.0170345045626163
-0.0344165228307247
-0.0499057471752166
-0.0623348988592624
-0.0708428025245666
-0.074974201619625
-0.0747183486819267
-0.0704833790659904
-0.0630207359790802
-0.0533138699829578
-0.0424462929368019
-0.0314693376421928
-0.02128417044878
-0.012550177052617
-0.0056376364082098
-0.0006314814090728
0.0026307497173547
0.0045042056590318
0.005470223724842
0.006064498797059
0.0068103019148111
0.0081636123359203
0.0104658212512731
0.0138953030109405
0.0184211209416389
0.0237705893814563
0.0294248908758163
0.0346592143177986
0.038636140525341
0.0405383370816707
0.0397048331797122
0.0357412546873092
0.0285943988710641
0.0185842476785182
0.0063821300864219
-0.007064526900649
-0.0206462107598781
-0.0332263745367527
-0.0437765195965766
-0.0514916516840457
-0.0558731481432914
-0.0567677021026611
-0.0543617010116577
-0.0491400808095932
-0.0418108701705932
-0.0331997945904731
-0.0241410881280899
-0.0153886079788208
-0.0075472192838788
-0.0010198559612035
0.004023378714919
0.0076459404081106
0.010109394788742
0.0118022542446851
0.0131516195833683
0.0145440772175788
0.0162698235362768
0.018489871174097
0.0212193541228771
0.0243215486407279
0.0275127533823251
0.0303791612386703
0.0324092581868171
0.0330504737794399
0.0317930430173873
0.0282680075615644
0.0223348438739776
0.0141345765441656
0.0040943566709756
-0.0071176663041114
-0.0186765491962432
-0.0297058559954166
-0.0393866822123527
-0.0470545329153537
-0.0522702261805534
-0.0548556074500083
-0.0548883005976676
-0.0526617802679538
-0.0486313849687576
-0.0433586090803146
-0.0374484248459339
-0.0314771644771099
-0.0259231589734554
-0.0211161486804485
-0.017213150858879
-0.0141987651586532
-0.0119070932269096
-0.0100639574229717
-0.0083431424573063
-0.0064260954968631
-0.0040539670735597
-0.0010646726004779
0.0025825197808444
0.0067885015159845
0.0112987076863646
0.0156935192644596
0.0194032862782478
0.0217685252428054
0.022140510380268
0.0199964698404073
0.01504438649863
0.0072996322996914
-0.0028846738860011
-0.0148464133962988
-0.0276942923665046
-0.0404184609651565
-0.0520124845206737
-0.0615868009626865
-0.068457044661045
-0.0721991807222366
-0.0726748704910278
-0.0700328424572944
-0.0646773800253868
-0.0571984089910984
-0.0482809208333492
-0.0386129170656204
-0.0288031455129385
-0.0193236172199249
-0.0104860588908195
-0.0024442039430141
0.0047889314591884
0.011308329179883
0.0172708444297313
0.0228489693254232
0.0281963720917701
0.0334263443946838
0.0385917834937572
0.0436594299972057
0.0484890937805175
0.0528265796601772
0.0563085786998271
0.0584845282137393
0.0588662028312683
0.0570057407021522
0.0525882132351398
0.0455169379711151
0.0359705500304698
0.0244185384362936
0.0115926023572683
-0.0015822350978851
-0.0140832252800464
-0.0248949378728866
-0.0331208519637584
-0.0380942821502685
-0.0394584387540817
-0.0371941365301609
-0.031600471585989
-0.0232423990964889
-0.0128754861652851
-0.0013555809855461
0.0104542449116706
0.0217649266123771
0.0319249480962753
0.040465734899044
0.0471287779510021
0.0518730655312538
0.0548608861863613
0.0564238727092742
0.0570089928805828
0.0571048595011234
0.057164579629898
0.0575477555394172
0.0584880337119102
0.0600725002586841
0.062216468155384
0.0646345615386962
0.0668299794197082
0.0681295543909072
0.0677757859230041
0.0650622025132179
0.0594813153147697
0.0508477687835693
0.0393657349050045
0.0256256833672523
0.0105317672714591
-0.004823338240385
-0.0193040054291486
-0.0318689420819282
-0.0416865348815918
-0.0482170544564724
-0.0512517094612121
-0.0509102009236812
-0.0476043447852134
-0.0419716648757457
-0.034785196185112
-0.0268534570932388
-0.0189280398190021
-0.0116326473653316
-0.0054161101579666
-0.0005262978374958
0.0029874257743358
0.0052386745810508
0.0064548403024673
0.0069341212511062
0.0070083066821098
0.007007461041212
0.0072283707559108
0.0079056918621063
0.0091789131984114
0.0110510531812906
0.0133503694087266
0.0157171431928873
0.0176318455487489
0.0184917040169239
0.0177335571497678
0.0149801261723041
0.0101652592420578
0.0035979524254798
-0.0040459129959344
-0.0117926253005862
-0.0184880755841732
-0.0229494757950305
-0.0241260752081871
-0.0212382990866899
-0.0138685693964362
-0.0019898265600204
0.01406358089298
0.033665981143713
0.0559932328760623
0.0801210030913353
0.10511414706707
0.1300996989011764
0.1543139219284057
0.1771129071712494
0.1979560256004333
0.2163837105035781
0.2319981008768081
0.2444520592689514
0.2534549236297607
0.2587936222553253
0.26035937666893
0.2581735253334045
0.2524037361145019
0.2433581054210662
0.2314536273479461
0.2171651571989059
0.2009683698415756
0.1832913607358932
0.1644768565893173
0.1447534412145614
0.1242341250181198
0.1029542684555053
0.0809329003095626
0.0582343786954879
0.0350159406661987
0.0115533173084259
-0.0117599219083786
-0.0344393998384475
-0.0559584647417068
-0.0758081823587417
-0.0935576856136322
-0.1089057028293609
-0.1217138916254043
-0.1320123523473739
-0.1399845331907272
-0.145949125289917
-0.1503321379423141
-0.1536125987768173
-0.1562544554471969
-0.158648207783699
-0.1610719859600067
-0.1636780053377151
-0.1665075868368148
-0.1695228219032287
-0.1726382672786712
-0.175747275352478
-0.178743839263916
-0.1815380901098251
-0.184060126543045
-0.1862527132034301
-0.1880648583173751
-0.1894558072090149
-0.1904037892818451
-0.1909088343381881
-0.1909902393817901
-0.1906867325305938
-0.190059632062912
-0.1891898214817047
-0.1881626397371292
-0.1870424449443817
-0.1858449131250381
-0.1845187246799469
-0.1829423904418945
-0.1809375286102295
-0.178295686841011
-0.174815833568573
-0.1703494191169738
-0.1648394614458084
-0.1583354473114013
-0.1509789079427719
-0.1429722309112548
-0.134546160697937
-0.1259326785802841
-0.117343783378601
-0.1089558601379394
-0.1009004935622215
-0.093259647488594
-0.0860593765974044
-0.0792650431394577
-0.072791114449501
-0.0665247812867164
-0.0603473670780658
-0.0541527532041072
-0.0478743687272071
-0.0415141880512237
-0.0351580306887626
-0.0289799645543098
-0.0232492163777351
-0.0183383598923683
-0.0147204063832759
-0.0129467993974685
-0.0136020742356777
-0.0172335021197795
-0.0242620036005973
-0.0348948128521442
-0.049063928425312
-0.0663935989141464
-0.0861923098564148
-0.1074872836470604
-0.1291126161813736
-0.1498233526945114
-0.1684086769819259
-0.1837996840476989
-0.1951648592948913
-0.2019809186458587
-0.2040677666664123
-0.2015816122293472
-0.1949671804904937
-0.1848765015602111
-0.172071948647499
-0.1573338806629181
-0.1413834989070892
-0.1248238980770111
-0.1081031113862991
-0.0915064364671707
-0.0751792341470718
-0.059164822101593
-0.0434418618679046
-0.0279543995857238
-0.0126373767852783
0.0025552213191986
0.0176235437393188
0.032504916191101
0.0470669418573379
0.061109721660614
0.0743803083896637
0.0866011977195739
0.0975115746259689
0.1069167256355285
0.114733338356018
0.1210138350725174
0.1259431093931198
0.1298198401927948
0.1330326795578003
0.1360274851322174
0.1392649263143539
0.1431742161512375
0.1481070220470428
0.1542949378490448
0.161821112036705
0.1706146746873855
0.1804655194282531
0.1910509616136551
0.2019724696874618
0.2128048837184906
0.2231515049934387
0.2326836884021759
0.2411524057388305
0.2483895272016525
0.254315435886383
0.2589426338672638
0.2623650133609772
0.2647381126880646
0.2662545442581177
0.2671156823635101
0.2675002813339233
0.2675290703773498
0.2672321200370788
0.2665348351001739
0.2652671933174133
0.263186901807785
0.2600117921829223
0.2554602324962616
0.2492954134941101
0.2413720488548278
0.231681078672409
0.2203773409128189
0.2077809572219848
0.1943541318178177
0.1806544363498687
0.1672715544700622
0.1547603905200958
0.1435786038637161
0.1340348422527313
0.126259297132492
0.1202045381069183
0.1156736016273498
0.1123654618859291
0.1099215596914291
0.1079576909542083
0.1060902401804924
0.1039754152297973
0.1013503968715667
0.0980546772480011
0.0940321236848831
0.0893227085471153
0.0840459689497947
0.0783763974905014
0.0725144445896148
0.0666564404964447
0.0609601773321628
0.0555076748132705
0.0502781495451927
0.0451383776962757
0.0398458503186702
0.0340644046664238
0.0274039339274168
0.0194894149899482
0.0100430976599454
-0.0010464391671121
-0.013685630634427
-0.0275709852576255
-0.0422145910561084
-0.0569938123226165
-0.0712182372808456
-0.0842079222202301
-0.0953719615936279
-0.1042748987674713
-0.1106807962059974
-0.1145654171705246
-0.1161029636859893
-0.1156433373689651
