bvp
0.0049719652161002
0.0090547148138284
0.0123093854635953
0.0148635990917682
0.0168929658830165
0.0185814201831817
0.0200971700251102
0.0215808264911174
0.023136731237173
0.0248249284923076
0.0266508050262928
0.0285494774580001
0.0303705111145973
0.0318756736814975
0.0327603965997695
0.0326981917023658
0.0313970260322093
0.0286575332283973
0.0244247149676084
0.0188171751797199
0.0121211903169751
0.0047586695291101
-0.0027565476484596
-0.0098723955452442
-0.016058474779129
-0.0208614505827426
-0.0239519197493791
-0.0251588206738233
-0.0244811028242111
-0.0220748670399189
-0.0182239916175603
-0.0133002782240509
-0.0077187260612845
-0.0018936153501272
0.0038034580647945
0.0090772109106183
0.0137212537229061
0.0176142659038305
0.0207154564559459
0.0230588056147098
0.0247406214475631
0.0259019434452056
0.0267076380550861
0.0273255780339241
0.0279081538319587
0.0285751391202211
0.0293967463076114
0.0303765349090099
0.0314359590411186
0.0324068255722522
0.0330402255058288
0.0330309867858886
0.032052356749773
0.0298067461699247
0.0260897763073444
0.0208446402102708
0.0141897667199373
0.0064180493354797
-0.0020297816954553
-0.0106121180579066
-0.0187457799911499
-0.0258696544915437
-0.0315036848187446
-0.0352967977523803
-0.0370608828961849
-0.0367844924330711
-0.0346216410398483
-0.0308650825172662
-0.0259144157171249
-0.0202334076166152
-0.0142946718260645
-0.0085274539887905
-0.0032793993595987
0.0012087863869965
0.0048143262974917
0.0075271786190569
0.0094330739229917
0.0106895854696631
0.011497613042593
0.0120699731633067
0.0126014426350593
0.0132493888959288
0.014128427952528
0.0153076322749257
0.0167981330305337
0.0185354594141244
0.0203688219189643
0.0220633912831544
0.0233168452978134
0.0237912312150001
0.0231588575989007
0.0211564805358648
0.0176380351185798
0.0126122254878282
0.006255192682147
-0.0011013532057404
-0.0090023344382643
-0.0169137977063655
-0.0242726746946573
-0.030545949935913
-0.0352969169616699
-0.0382387638092041
-0.0392605662345886
-0.0384255051612854
-0.0359472073614597
-0.0321519151329994
-0.0274339020252227
-0.0222098901867866
-0.0168768167495727
-0.0117770144715905
-0.0071743559092283
-0.003240558784455
-5.082786083221436e-05
0.0024099424481391
0.0042337677441537
0.0055678719654679
0.0065816482529044
0.007435068488121
0.0082617998123168
0.0091635957360267
0.0102087566629052
0.0114317582920193
0.0128314290195703
0.014368612319231
0.0159637536853551
0.0174880623817443
0.0187518130987882
0.0195069778710603
0.0194739867001771
0.0183900948613882
0.0160665772855281
0.0124296164140105
0.0075308103114366
0.0015434343367815
-0.0052400538697838
-0.0124185970053076
-0.0195132065564394
-0.026017177850008
-0.0314578525722026
-0.0354549139738082
-0.0377599969506263
-0.0382734239101409
-0.0370436646044254
-0.0342546664178371
-0.0302009265869855
-0.0252489373087883
-0.0197898112237453
-0.0141988703981041
-0.0088125802576541
-0.0039108055643737
0.0003068991645704
0.0037401900626719
0.0063874414190649
0.0083292629569768
0.0097070997580885
0.0106991380453109
0.011494274251163
0.012268547900021
0.0131665272638201
0.0142885781824588
0.0156838875263929
0.0173483528196811
0.0192246586084365
0.0211966149508953
0.0230759754776954
0.0245999097824096
0.0254575069993734
0.0253383312374353
0.0239833183586597
0.0212288405746221
0.0170421339571476
0.011540625244379
0.0049888868816196
-0.0022230809554457
-0.0096154753118753
-0.0166662652045488
-0.0228657759726047
-0.0277701094746589
-0.0310455821454525
-0.0325027033686637
-0.0321190431714057
-0.0300409123301506
-0.0265573803335428
-0.0220538321882486
-0.0169568210840225
-0.0116821220144629
-0.0065930597484111
-0.001969996606931
0.0020060171373188
0.0052530439570546
0.0077755050733685
0.009645165875554
0.0109818410128355
0.0119388289749622
0.0126896938309073
0.0134048741310834
0.0142191769555211
0.0152092715725302
0.0163925215601921
0.0177392456680536
0.0191857814788818
0.0206391997635364
0.0219701398164033
0.0230023209005594
0.0235137920826673
0.0232577715069055
0.022001389414072
0.0195725783705711
0.0159004833549261
0.0110414074733853
0.0051891678012907
-0.00133857736364
-0.0081409346312284
-0.014781535603106
-0.0208277944475412
-0.0258863810449838
-0.0296391397714614
-0.0318743102252483
-0.0325071513652801
-0.031586617231369
-0.0292858146131038
-0.0258767623454332
-0.0216929074376821
-0.0170863661915063
-0.012390605174005
-0.0078917946666479
-0.003805600805208
-0.0002674253191798
0.0026574549265205
0.0049587511457502
0.0066741313785314
0.0078841298818588
0.0087005970999598
0.0092514287680387
0.0096678249537944
0.0100727602839469
0.0105680311098694
0.0112233897671103
0.0120673133060336
0.0130741186439991
0.0141482269391417
0.0151151567697525
0.0157322697341442
0.0157178435474634
0.0147863188758492
0.0126910842955112
0.0092766005545854
0.0045239264145493
-0.0014276483561843
-0.0082862861454486
-0.0156351141631603
-0.0229751355946064
-0.0297781825065612
-0.0355450473725795
-0.0398613661527633
-0.0424412675201892
-0.0431520119309425
-0.0420162342488765
-0.0391944572329521
-0.0349605493247509
-0.0296774562448263
-0.0237642005085945
-0.0176475867629051
-0.0117124915122985
-0.0062667028978466
-0.0015212474390864
0.002416219562292
0.0055373180657625
0.0079198442399501
0.0097038969397544
0.011062879115343
0.0121788643300533
0.0132233370095491
0.0143434461206197
0.0156553275883197
0.0172321163117885
0.0190762542188167
0.0210920982062816
0.023077106103301
0.0247345119714736
0.0257076993584632
0.025633305311203
0.0242027044296264
0.0212184935808181
0.0166351124644279
0.0105791743844747
0.0033494997769594
-0.0046044094488024
-0.012726092711091
-0.0204101707786321
-0.027065360918641
-0.0321822166442871
-0.0353978872299194
-0.0365360118448734
-0.0356119684875011
-0.032811839133501
-0.0284545309841632
-0.0229450426995754
-0.0167260374873876
-0.0102325845509767
-0.0038543045520782
0.0020915772765874
0.0073770266026258
0.0118723437190055
0.0155457407236099
0.0184521153569221
0.0207152795046567
0.0225043967366218
0.0240036211907863
0.0253833495080471
0.0267831292003393
0.0283052194863557
0.0300110839307308
0.0319127440452575
0.0339529961347579
0.0359808057546615
0.0377404652535915
0.0388886928558349
0.0390402972698211
0.0378326028585433
0.0349945873022079
0.0304080732166767
0.0241474378854036
0.0164843909442424
0.0078574959188699
-0.0011780438944697
-0.0100059118121862
-0.018007718026638
-0.0246270187199115
-0.0294288452714681
-0.0321397818624973
-0.0326648689806461
-0.0310884490609169
-0.0276604406535625
-0.0227633584290742
-0.0168624091893434
-0.0104488711804151
-0.0039854329079389
0.0021393429487943
0.0076361261308193
0.0123172514140605
0.0160913243889808
0.0189587138593196
0.0210019908845424
0.0223679952323436
0.0232460629194974
0.0238455962389707
0.0243711378425359
0.0249948631972074
0.0258341319859027
0.026938360184431
0.0282753445208072
0.0297120995819568
0.0310066081583499
0.0318270288407802
0.0317934118211269
0.0305292904376983
0.0277220997959375
0.023190401494503
0.0169398803263902
0.0091867120936512
0.0003417342668399
-0.0090340981259942
-0.0182889811694622
-0.0267488472163677
-0.0337926968932151
-0.0389234200119972
-0.0418202020227909
-0.0423668287694454
-0.0406528674066066
-0.0369466766715049
-0.0316526442766189
-0.0252672713249921
-0.0183315556496381
-0.0113743096590042
-0.0048563946038484
0.0008706401567906
0.0055878912098705
0.009215292520821
0.0117981741204857
0.013479427434504
0.0144703201949596
0.0150200817734003
0.0153797073289752
0.0157684776932001
0.0163549445569515
0.0172523446381092
0.0185124985873699
0.0201059468090534
0.0218983851373195
0.0236401744186878
0.0249773561954498
0.025488756597042
0.0247486997395753
0.0224036667495965
0.0182449184358119
0.0122595708817243
0.0046475194394588
-0.0041951006278395
-0.0137149225920438
-0.02325483225286
-0.0321189984679222
-0.0396456345915794
-0.0452824831008911
-0.0486565008759498
-0.0496202148497104
-0.0482571870088577
-0.0448466390371322
-0.0398062691092491
-0.0336333103477954
-0.0268507953733205
-0.0199582166969776
-0.0133893257007002
-0.0074832844547927
-0.002472136169672
0.0015171486884355
0.0044528227299451
0.0063887676224112
0.0074537359178066
0.0078327348455786
0.0077421749010682
0.0074059786275029
0.0070367492735385
0.0068217562511563
0.0069091515615582
0.007387557066977
0.0082568069919943
0.009397997520864
0.0105587383732199
0.0113683557137846
0.0113891987130045
0.0101973041892051
0.007471359334886
0.003065169788897
-0.0029511842876672
-0.0102903703227639
-0.0184860825538635
-0.0269517675042152
-0.0350441746413707
-0.0421297512948513
-0.0476512052118778
-0.0511854961514472
-0.0524823255836963
-0.0514789670705795
-0.0482960157096385
-0.0432177186012268
-0.0366551280021667
-0.0290928520262241
-0.0210307259112596
-0.0129319839179515
-0.0051823444664478
0.0019312766380608
0.0082179112359881
0.0135700646787881
0.0179575644433498
0.0214265696704387
0.0240938384085893
0.026129737496376
0.027730144560337
0.0290842689573764
0.0303472094237804
0.0316211432218551
0.0329452231526374
0.0342924557626247
0.0355669632554054
0.0365983620285987
0.0371440723538398
0.0369101800024509
0.0355898886919021
0.0329164899885654
0.0287229809910058
0.0229917988181114
0.0158828720450401
0.0077354665845632
-0.0009581297636032
-0.0096030905842781
-0.0175681710243225
-0.0242576468735933
-0.0291772671043872
-0.0319858342409133
-0.0325277745723724
-0.0308417528867721
-0.0271441545337438
-0.0217958427965641
-0.0152619266882538
-0.0080627268180251
-0.0007135656196624
0.0063313981518149
0.0127135291695594
0.0181858427822589
0.0226208828389644
0.0260070879012346
0.0284295678138732
0.030040506273508
0.0310278013348579
0.0315875113010406
0.0319009721279144
0.0321192368865013
0.0323594212532043
0.0327034071087837
0.0331815518438816
0.0337423756718635
0.03422237560153
0.0343287847936153
0.0336548201739788
0.0317442119121551
0.028190029785037
0.0227292105555534
0.0153103303164243
0.0061292871832847
-0.0043773204088211
-0.0155838783830404
-0.0267562121152877
-0.0371382124722003
-0.046029195189476
-0.0528523549437522
-0.057216465473175
-0.0589539185166358
-0.0581203252077102
-0.0549658089876174
-0.0498926788568496
-0.0434053018689155
-0.0360572300851345
-0.0284005310386419
-0.0209397450089454
-0.014093012548983
-0.0081656901165843
-0.0033391672186553
0.000328691676259
0.0028935903683304
0.0045059407129883
0.0053839050233364
0.0057781869545578
0.0059343110769987
0.0060635758563876
0.0063292542472481
0.0068438472226262
0.0076639112085103
0.0087703308090567
0.0100378077477216
0.0112145254388451
0.0119342012330889
0.0117685636505484
0.0103093637153506
0.0072546517476439
0.0024764873087406
-0.0039390157908201
-0.0116867525503039
-0.0202767103910446
-0.029091227799654
-0.0374468676745891
-0.0446597598493099
-0.0501167438924312
-0.0533442683517932
-0.0540629997849464
-0.0522175133228302
-0.0479729324579238
-0.0416820459067821
-0.0338380187749862
-0.0250197332352399
-0.0158285349607467
-0.006822982802987
0.0015364284627139
0.0089201377704739
0.0151351075619459
0.0201152935624122
0.0239101387560367
0.0266705062240362
0.028624203056097
0.0300381109118461
0.0311771482229232
0.0322721116244792
0.0334984213113784
0.0349626243114471
0.0366911739110946
0.0386141836643219
0.0405445508658885
0.042170975357294
0.0430868864059448
0.0428511723875999
0.0410609431564807
0.0374274924397468
0.0318441912531852
0.0244281087070703
0.0155262956395745
0.0056850733235478
-0.0044109020382165
-0.0140173360705375
-0.0224156323820352
-0.028991961851716
-0.0333012044429779
-0.0351125821471214
-0.0344280675053596
-0.0314640514552593
-0.0266030170023441
-0.0203375332057476
-0.0132209174335002
-0.0058174054138362
0.0013533348683267
0.0078650135546922
0.0134167578071355
0.0178493615239858
0.0211440995335578
0.0234010424464941
0.0248044952750206
0.0255872011184692
0.0259972494095563
0.0262680668383836
0.0265951715409755
0.0271229334175586
0.0279360525310039
0.0290402974933385
0.0303246192634105
0.0315248407423496
0.0322210863232612
0.0318865291774272
0.029985312372446
0.0260913334786891
0.0199828371405601
0.0116915795952081
0.0015126448124647
-0.010023171082139
-0.0222106575965881
-0.034249223768711
-0.0453276708722114
-0.0547045841813087
-0.0617730841040611
-0.0661128237843513
-0.0675334334373474
-0.0660920590162277
-0.0620704442262649
-0.0559251680970191
-0.0482305139303207
-0.0396173112094402
-0.030708098784089
-0.0220585316419601
-0.0141139309853315
-0.0071825203485786
-0.0014267604565247
0.0031277942471206
0.0065726516768336
0.0090922508388757
0.010937470011413
0.0123904161155223
0.0137189533561468
0.0151380114257335
0.016789611428976
0.0187332909554243
0.020936656743288
0.0232608560472726
0.025446193292737
0.0271210838109254
0.0278508458286523
0.0272140335291624
0.0248828679323196
0.0206897798925638
0.0146683361381292
0.0070668635889887
-0.0016624367563053
-0.0109049109742045
-0.0199584122747182
-0.0281216856092214
-0.0347727350890636
-0.0394322164356708
-0.0418089404702186
-0.0418194383382797
-0.0395814627408981
-0.0353888198733329
-0.0296718291938304
-0.0229433346539735
-0.0157361440360546
-0.0085459314286708
-0.0017875013872981
0.0042356275953352
0.0093473503366112
0.0134960217401385
0.0167325995862483
0.0191834159195423
0.0210273303091526
0.0224722921848297
0.0237293317914009
0.0249890554696321
0.0264033675193786
0.0280734822154045
0.0300403274595737
0.0322691015899181
0.0346275642514228
0.036868467926979
0.0386337414383888
0.0394968874752521
0.0390395112335681
0.0369330234825611
0.0329991467297077
0.0272446330636739
0.0198747105896472
0.0112841259688138
0.0020233609247952
-0.0072557628154754
-0.0158687699586153
-0.0231747776269912
-0.028647843748331
-0.031932171434164
-0.032875757664442
-0.0315371491014957
-0.0281663071364164
-0.0231656655669212
-0.0170337650924921
-0.0103027839213609
-0.0034863699693232
0.0029625031165778
0.0086885802447795
0.0134599339216947
0.0171771943569183
0.0198678933084011
0.0216666664928197
0.0227835904806852
0.0234672054648399
0.0239698830991983
0.0245191175490617
0.0252933669835329
0.0264035705476999
0.0278843864798545
0.0296903066337108
0.0316815860569477
0.0336003825068473
0.0350680872797966
0.0356298610568046
0.0348363518714904
0.0323328375816345
0.0279296841472387
0.0216404628008604
0.0136885065585374
0.0044884644448757
-0.0053948499262332
-0.0153060778975486
-0.024568410590291
-0.0325542837381362
-0.0387472361326217
-0.0427860133349895
-0.0444963052868843
-0.0439131781458854
-0.0412772670388221
-0.0369948036968708
-0.0315758772194385
-0.0255669392645359
-0.0194857567548751
-0.0137690119445323
-0.0087394695729017
-0.004590855911374
-0.0013872440904378
0.0009233858436346
0.0024826750159263
0.0034865848720073
0.0041510593146085
0.0046883318573236
0.0052878577262163
0.0060951691120862
0.0071970634162425
0.0086153466254472
0.0102994292974472
0.0121118687093257
0.0138132683932781
0.0150671601295471
0.0154804550111293
0.0146680753678083
0.0123155750334262
0.008223932236433
0.0023408439010381
-0.005211429670453
-0.0141192805022001
-0.0238895546644926
-0.0338978059589862
-0.0434679724276065
-0.0519621595740318
-0.0588539093732833
-0.0637745484709739
-0.0665340647101402
-0.0671194046735763
-0.0656768977642059
-0.062483824789524
-0.0579109564423561
-0.0523807033896446
-0.0463253371417522
-0.0401478745043277
-0.0341879613697528
-0.028695834800601
-0.0238188207149505
-0.0196042563766241
-0.0160178393125534
-0.0129673443734645
-0.010322293266654
-0.0079302173107862
-0.0056332489475607
-0.00328587484546
-0.000772192608565
0.0019763000309467
0.0049572419375181
0.0080711403861641
0.0111062210053205
0.0137472432106733
0.0156159959733486
0.0163413099944591
0.0156376585364341
0.0133643103763461
0.0095518343150615
0.0044017517939209
-0.0017291205003857
-0.0083555616438388
-0.0149061493575572
-0.0207818187773227
-0.0254232063889503
-0.0283769257366657
-0.0293487142771482
-0.0282311122864484
-0.025102961808443
-0.02020606957376
-0.0139049906283617
-0.0066361054778099
0.0011455491185188
0.0090094543993473
0.0165766775608062
0.0235382206737995
0.0296712256968021
0.0348499119281768
0.0390473194420337
0.0423271432518959
0.0448261275887489
0.0467269420623779
0.048226498067379
0.0495102182030677
0.0507339313626289
0.0520066730678081
0.0533703789114952
0.0547780692577362
0.0560790225863456
0.0570190623402595
0.0572607964277267
0.0564310401678085
0.0541909374296665
0.0503069311380386
0.0447046160697937
0.037497155368328
0.0289844796061515
0.0196268893778324
0.010000791400671
0.0007396880537271
-0.0075401291251182
-0.0143220750615
-0.01926064863801
-0.0222173631191253
-0.0232505723834037
-0.0225767027586698
-0.0205255448818206
-0.0174945537000894
-0.0139059321954846
-0.0101708015426993
-0.0066540604457259
-0.0036388840526342
-0.001301328651607
0.0002975957468152
0.0012020720168948
0.001538285985589
0.0014858031645417
0.0012512039393186
0.0010457225143909
0.0010637473315
0.0014621522277593
0.0023389495909214
0.0037051406688988
0.0054540894925594
0.0073451958596706
0.0090151233598589
0.0100198499858379
0.0099014239385724
0.0082651432603597
0.004852176643908
-0.0004050824791193
-0.0073573281988501
-0.0156461335718631
-0.0247373133897781
-0.033972855657339
-0.0426371470093727
-0.0500305742025375
-0.0555471889674663
-0.0587493479251861
-0.0594177469611167
-0.0575637966394424
-0.05341137945652
-0.0473553612828254
-0.03990388661623
-0.031618807464838
-0.0230615772306919
-0.0147425737231969
-0.0070756860077381
-0.0003467444330453
0.0052970759570598
0.0098401540890336
0.0133845992386341
0.0161318778991699
0.0183491054922342
0.0203193705528974
0.0222964324057102
0.0244775228202343
0.0269867293536663
0.0298568923026323
0.0330047272145748
0.0362056531012058
0.0390878058969974
0.0411648079752922
0.0419111996889114
0.04086185246706
0.0377045832574367
0.032345250248909
0.0249396748840808
0.015891769900918
0.0058155162259936
-0.0045364424586296
-0.0143597070127725
-0.0228838250041008
-0.0294524263590574
-0.0335916578769683
-0.0350552350282669
-0.0338375605642795
-0.0301544405519962
-0.0243998318910598
-0.0170904826372861
-0.0088057108223438
-0.0001272074878215
0.0084143485873937
0.0163844320923089
0.0234805680811405
0.0295435357838869
0.0345347225666046
0.0385010093450546
0.0415490418672561
0.0438252538442611
0.0454964935779571
0.0467335879802703
0.047694906592369
0.0485086888074874
0.0492566861212253
0.049955166876316
0.0505287125706672
0.0507848337292671
0.0504089184105396
0.0489973165094852
0.0461272671818733
0.041439164429903
0.0347077101469039
0.0258958581835031
0.0151880839839577
0.0029914546757936
-0.0101004838943481
-0.0233688987791538
-0.0360407792031765
-0.0473659597337245
-0.056697741150856
-0.0635642558336258
-0.0677149668335914
-0.0691356286406517
-0.0680321753025055
-0.064787670969963
-0.0599025823175907
-0.0539351440966129
-0.0474506542086601
-0.0409705862402915
-0.0349197387695312
-0.0295891594141721
-0.0251257885247468
-0.0215442664921283
-0.0187496300786733
-0.0165602788329124
-0.014734037220478
-0.0130041483789682
-0.011117766611278
-0.0088670793920755
-0.0061094560660421
-0.0027739878278225
0.0011392827145755
0.0055495360866189
0.0102669121697545
0.0149668836966156
0.019199775531888
0.0224453173577785
0.0241965968161821
0.024050984531641
0.0217889044433832
0.0174269899725914
0.0112350899726152
0.003711835714057
-0.0044717863202095
-0.0125435721129179
-0.0197084080427885
-0.0252306200563907
-0.0285108964890241
-0.029151763767004
-0.0270088035613298
-0.0222127940505743
-0.0151466559618711
-0.0063844048418104
0.0033867941237986
0.0134488251060247
0.0231314487755298
0.0318775996565818
0.0392881631851196
0.0451431795954704
0.0493966937065124
0.0521469712257385
0.0535939261317253
0.0540000535547733
0.0536594837903976
0.0528642758727073
0.0518661923706531
0.050851471722126
0.0499354414641857
0.0491685345768928
0.0485496707260608
0.0480395071208477
0.0475589148700237
0.0469681620597839
0.0460425615310668
0.0444703996181488
0.0418853387236595
0.0379261374473571
0.0323089808225631
0.02489710226655
0.0157538503408432
0.0051620975136756
-0.0064012296497821
-0.0183224081993103
-0.0299180708825588
-0.0405048094689846
-0.0494674183428287
-0.0563174858689308
-0.0607388205826282
-0.0626169443130493
-0.0620474442839622
-0.0593191534280777
-0.0548725500702858
-0.0492425709962844
-0.042995698750019
-0.0366662628948688
-0.030700484290719
-0.0254238992929458
-0.0210380628705024
-0.0176306944340467
-0.0151856876909732
-0.0135953705757856
-0.012678200379014
-0.0122022647410631
-0.0119131598621606
-0.0115624256432056
-0.0109339971095323
-0.009867176413536
-0.0082736145704984
-0.0061458572745323
-0.0035545490682125
-0.0006364397704601
0.0024152435362339
0.0053458772599697
0.0078250467777252
0.0094504952430725
0.0097918473184108
0.0084652341902256
0.0052134431898593
-3.258511424064636e-05
-0.0071244947612285
-0.0157018229365348
-0.0252276845276355
-0.0350452288985252
-0.0444436110556125
-0.0527277216315269
-0.0592895410954952
-0.0636710599064827
-0.0656055957078933
-0.0650372207164764
-0.0621205903589725
-0.0571959652006626
-0.0507408343255519
-0.0433080829679966
-0.0354594029486179
-0.0277044102549552
-0.0204560831189155
-0.0140067273750901
-0.0085233617573976
-0.0040572825819253
-0.0005615064874291
0.0020883176475763
0.0040723122656345
0.0056042093783617
0.0069083767011761
0.0081927813589572
0.0096169728785753
0.0112691400572657
0.0131640741601586
0.0152563443407416
0.0174568798393011
0.019642025232315
0.0216484051197767
0.0232590939849615
0.0242017321288585
0.0241764597594738
0.0229071751236915
0.020196221768856
0.0159694999456405
0.0103075131773948
0.0034583709202706
-0.0041748811490833
-0.0120752342045307
-0.019671669229865
-0.0264030769467353
-0.0317749045789241
-0.0354070141911506
-0.0370718613266944
-0.0367131680250167
-0.0344403460621833
-0.0305060520768165
-0.0252725891768932
-0.0191687382757663
-0.0126432990655303
-0.0061212563887238
3.753509372472763e-05
0.0055717378854751
0.0103288572281599
0.014250636100769
0.0173543635755777
0.0197215303778648
0.0214853137731552
0.0228137876838445
0.0238913614302873
0.0248966328799724
0.0259789321571588
0.0272411722689867
0.0287315472960472
0.0304398313164711
0.0322925932705402
0.0341439619660377
0.0357686579227447
0.0368728451430797
0.0371264331042766
0.0362079143524169
0.0338635519146919
0.0299798548221588
0.0246391966938972
0.0181305985897779
0.0109198903664946
0.0035886717960238
-0.0032510701566934
-0.0090452479198575
-0.0133652407675981
-0.0159493815153837
-0.016726916655898
-0.0158248804509639
-0.0135442558676004
-0.0103033855557441
-0.0065767280757427
-0.0028547905385494
0.0003860853612422
0.0027256906032562
0.0038505550473928
0.003594173118472
0.0019523669034242
-0.0009263530373573
-0.0047652143985033
-0.0091906767338514
-0.0137698091566562
-0.0180504545569419
-0.0215966198593378
-0.0240154545754194
-0.0249761063605546
-0.0242229811847209
-0.0215956047177314
-0.0170618817210197
-0.0107483025640249
-0.002953540533781
0.0058535318821668
0.0150585174560546
0.0239572096616029
0.0318306535482406
0.0380205996334552
0.0419994294643402
0.0434315279126167
0.0422141179442405
0.038490779697895
0.0326408706605434
0.0252464693039655
0.017034750431776
0.0087937973439693
0.0012717265635728
-0.0049148350954055
-0.0093416385352611
-0.0118028260767459
-0.0123059228062629
-0.0110434461385011
-0.0083517357707023
-0.0046621728688478
-0.0004437565803527
0.0038591660559177
0.0078816898167133
0.0113741075620055
0.0142168262973427
0.016419056802988
0.01810297742486
0.0194730758666992
0.0207774210721254
0.0222724378108978
0.0241940133273601
0.0267265029251575
0.0299650356173515
0.0338850244879722
0.0383338257670402
0.0430348329246044
0.047592893242836
0.0515143424272537
0.0542564094066619
0.055301796644926
0.0542405247688293
0.0508370399475097
0.0450675636529922
0.0371229611337184
0.0273821540176868
0.0163722950965166
0.004726598970592
-0.0068649435415863
-0.017716621980071
-0.0272146500647068
-0.0348789021372795
-0.0404065698385238
-0.0436929687857627
-0.0448275655508041
-0.0440641045570373
-0.0417731739580631
-0.0383921675384044
-0.0343783572316169
-0.0301653295755386
-0.0261309556663036
-0.0225794725120067
-0.0197247453033924
-0.017667181789875
-0.0163763724267482
-0.0156992990523576
-0.0153983887284994
-0.0152011308819055
-0.014845386147499
-0.0141190811991691
-0.0128896990790963
-0.0111156571656465
-0.0088429786264896
-0.0061981114558875
-0.0033837652299553
-0.000677216798067
0.0015736366622149
0.0029675080440938
0.0030955309048295
0.0016143191605806
-0.0016798195429146
-0.0068018259480595
-0.0135623756796121
-0.0215818770229816
-0.0303252525627613
-0.039152517914772
-0.0473840683698654
-0.0543743222951889
-0.0595833994448185
-0.0626358613371849
-0.0633540302515029
-0.0617585405707359
-0.0580441541969776
-0.0525433495640754
-0.0456779561936855
-0.0379047654569149
-0.029672710224986
-0.0213950593024492
-0.0134263895452022
-0.006041882559657
0.0005742628127336
0.0063281971961259
0.0112088220193982
0.0152776492759585
0.0186572689563035
0.0215190351009368
0.0240655690431594
0.026505259796977
0.0290213264524936
0.0317371785640716
0.0346831418573856
0.0377705544233322
0.0407770201563835
0.0433525294065475
0.045057263225317
0.0454284064471721
0.0440606921911239
0.0406840071082115
0.0352237485349178
0.0278324075043201
0.0188877377659082
0.0089595112949609
-0.001248107291758
-0.0109676280990242
-0.0194484144449234
-0.0260451287031173
-0.0302972421050071
-0.0319769270718097
-0.031099671497941
-0.027903338894248
-0.0228025205433368
-0.0163254905492067
-0.0090454015880823
-0.0015189182013273
0.005763329565525
0.0124132400378584
0.0181628912687301
0.0228645633906126
0.0264864973723888
0.0291089154779911
0.03090600669384
0.0321063101291656
0.0329490266740322
0.0336550176143646
0.0344097763299942
0.0353506505489349
0.0365568436682224
0.0380371361970901
0.0397114306688308
0.0413938127458095
0.0427916646003723
0.0435330606997013
0.043224811553955
0.0415283590555191
0.038233071565628
0.0333101451396942
0.0269326791167259
0.0194580424576997
0.0113850999623537
0.0032973741181194
-0.0042018257081508
-0.0105529706925153
-0.0152956014499068
-0.0181137956678867
-0.0188686642795801
-0.0176093932241201
-0.0145582146942615
-0.0100759528577327
-0.0046172374859452
0.0013202521950006
0.0072491103783249
0.0127410348504781
0.0174569897353649
0.0211534053087234
0.0236823018640279
0.0249978806823492
0.0251598581671714
0.024323409423232
0.0227139797061681
0.0205901060253381
0.0182061046361923
0.0157871674746274
0.0135151613503694
0.0115161798894405
0.0098459776490926
0.0084716696292161
0.0072588436305522
0.005982156842947
0.0043578073382377
0.0020833387970924
-0.0011166185140609
-0.0054415948688983
-0.0109771061688661
-0.0176740437746047
-0.0253447759896516
-0.0336750894784927
-0.0422516465187072
-0.050606433302164
-0.0582743883132934
-0.0648455247282981
-0.0699923112988472
-0.0734731703996658
-0.0751254931092262
-0.0748561397194862
-0.0726387053728103
-0.0685280635952949
-0.0626783147454261
-0.0553324408829212
-0.0467742159962654
-0.0372666642069816
-0.027013236656785
-0.0161580741405487
-0.0048050191253423
0.0069748815149068
0.0191492978483438
0.0317263081669807
0.0447474867105484
0.0582810714840889
0.0724173933267593
0.0872547701001167
0.1028595119714737
0.1192049980163574
0.1361207067966461
0.1532820612192154
0.1702597439289093
0.1866229772567749
0.2020483165979385
0.2163730412721634
0.2295736372470855
0.2417007982730865
0.2528202533721924
0.2629861831665039
0.2722376585006714
0.2805958986282348
0.2880435585975647
0.2944680452346802
0.2995694875717163
0.3027958273887634
0.3033983111381531
0.3006106913089752
0.293849229812622
0.2828308045864105
0.2675740718841553
0.2483035027980804
0.2253080606460571
0.1988272666931152
0.1690333783626556
0.1361151337623596
0.1003882884979248
0.0623574256896972
0.0227124691009521
-0.0177192986011505
-0.0580430328845977
-0.0973683893680572
-0.134874552488327
-0.1698743551969528
-0.2018793523311615
-0.230647400021553
-0.2561907768249511
-0.2787394225597381
-0.298671543598175
-0.3164342045783996
-0.3324728310108185
-0.3471758663654327
-0.3608336150646209
-0.3736122846603393
-0.3855443298816681
-0.396537572145462
-0.4064055979251861
-0.4149106740951538
-0.4218012392520904
-0.4268399178981781
-0.4298339486122131
-0.430663526058197
-0.4292899966239929
-0.4257454574108124
-0.4201207756996155
-0.4125610291957855
-0.4032649397850036
-0.3924782872200012
-0.380472719669342
-0.3675141036510467
-0.3538286685943603
-0.3395698070526123
-0.3248014152050018
-0.3095182478427887
-0.2936893701553345
-0.2772943377494812
-0.2603459656238556
-0.242902860045433
-0.225072756409645
-0.2070205807685852
-0.1889872699975967
-0.1712998449802398
-0.1543525457382202
-0.1385615766048431
-0.124310590326786
-0.1118984296917915
-0.1014931872487068
-0.0931009650230407
-0.0865646451711654
-0.0815929844975471
-0.0777972564101219
-0.0747221633791923
-0.071879081428051
-0.0687889903783798
-0.0650315582752227
-0.0602826476097106
-0.0543252974748611
-0.0470443964004516
-0.0384212583303451
-0.0285276472568511
-0.0175126940011978
-0.0055803060531616
0.0070426762104034
0.0201440751552581
0.0335526019334793
0.0471414029598236
0.060824230313301
0.074557363986969
0.0883407890796661
0.1022107601165771
0.1162253469228744
0.130444586277008
0.1449014395475387
0.1595641821622848
0.1743001639842987
0.1888550072908401
0.2028636485338211
0.2158969938755035
0.2275274246931076
0.237394168972969
0.2452568560838699
0.2510263323783874
0.2547661960124969
0.2566720247268677
0.2570410370826721
0.2562402486801147
0.2546767294406891
0.252768874168396
0.2509161531925201
0.249466672539711
0.2486866265535354
0.2487396746873855
0.2496829330921173
0.2514770627021789
0.253999799489975
0.257059246301651
0.2604120075702667
0.2637938559055328
0.2669602036476135
0.2697194814682007
0.2719508111476898
0.2736071944236755
0.2747024893760681
0.2752841711044311
0.2753995358943939
0.2750708758831024
0.2742954194545746
0.2730582654476166
0.2713222801685333
0.2689874172210693
0.2658560574054718
0.2616395652294159
0.2559968531131744
0.2485767155885696
0.2390560060739517
0.2271791398525238
0.2128012031316757
0.1959339380264282
0.1767830848693847
0.1557584255933761
0.1334492266178131
0.1105685979127883
0.0878735184669494
0.0660756081342697
0.0457649379968643
0.0273603796958923
0.0110888704657554
-0.0030031651258468
-0.0150101333856582
-0.0251229405403137
-0.0336009338498115
-0.0407512485980987
-0.0468933321535587
-0.0523105971515178
-0.0572119280695915
-0.06171415746212
-0.0658415853977203
-0.0695377588272094
-0.0726887807250022
-0.0751579850912094
-0.0768264830112457
-0.0776295512914657
-0.0775789991021156
-0.0767724588513374
-0.0754062160849571
-0.0737941563129425
-0.0723621845245361
-0.0715933889150619
-0.0719435289502143
-0.0737665444612503
-0.0772650092840194
-0.0824595317244529
-0.0891772508621215
-0.0970638692378997
-0.105620801448822
-0.1142656803131103
-0.1224054843187332
-0.129508301615715
-0.135160282254219
-0.1390960216522216
-0.1412101089954376
-0.141560211777687
-0.1403501629829406
-0.1378873288631439
-0.1345281302928924
-0.1306236386299133
-0.1264682859182357
-0.1222595572471618
-0.1180823892354965
-0.1139225214719772
-0.1097012311220169
-0.1053162291646003
-0.1006707623600959
-0.095686562359333
-0.0903071761131286
-0.0844992697238922
-0.0782662630081176
-0.0716808438301086
-0.064917579293251
-0.0582640692591667
-0.052102580666542
-0.0468625091016292
-0.0429546758532524
-0.040704146027565
-0.0402934774756431
-0.0417246147990226
-0.0448053106665611
-0.0491593740880489
-0.0542578734457492
-0.0594732239842414
-0.064152643084526
-0.0676929727196693
-0.0696061849594116
-0.0695757493376731
-0.0674920007586479
-0.0634537413716316
-0.0577390827238559
-0.0507554411888122
-0.0429811440408229
-0.0349095985293388
-0.0269994139671325
-0.0196295566856861
-0.0130659975111484
-0.0074500162154436
-0.0028058849275112
0.0009440779685974
0.0039635226130485
0.0064770858734846
0.0087217837572097
0.0108814686536788
0.0130388140678405
0.0151632409542799
0.0171122681349515
0.018624959513545
0.0193264186382293
0.0187775734812021
0.0165694653987884
0.0124207194894552
0.0062380656599998
-0.0018662251532077
-0.0115820355713367
-0.0224215984344482
-0.0337502732872962
-0.0448279976844787
-0.0548706278204917
-0.0631365105509758
-0.0690146535634994
-0.0720856040716171
-0.0721503868699073
-0.0692328661680221
-0.0635587573051452
-0.0555200204253196
-0.0456309616565704
-0.0344750508666038
-0.0226460620760917
-0.0106931403279304
0.0009248554706573
0.0118729025125503
0.0219582915306091
0.0311300382018089
0.0394509322941303
0.0470477417111396
0.0540657192468643
0.0606449395418167
0.0669113993644714
0.0729665532708168
0.078864112496376
0.0845715552568435
0.0899284556508064
0.0946278721094131
0.098242163658142
0.1002945378422737
0.1003555804491043
0.0981330275535583
0.0935365036129951
0.0867166370153427
0.0780711472034454
0.068207174539566
0.0578704699873924
0.0478603616356849
0.0389414951205253
0.0317652598023414
0.0268119536340236
0.0243546403944492
0.0244437605142593
0.0269148871302604
0.0314198732376098
0.0374769978225231
0.0445318110287189
0.0520191378891468
0.0594215020537376
0.0663190856575965
0.0724196806550026
0.0775638148188591
0.0817130580544471
0.0849306285381317
0.0873582363128662
0.0891889929771423
0.0906345918774604
0.0918891504406929
0.0930974334478378
0.0943300575017929
0.0955586731433868
0.0966257527470588
0.0972211807966232
0.0968915522098541
0.0951003283262252
0.0913290008902549
0.0851808041334152
0.0764517560601234
0.0651701986789703
0.0516204312443733
0.0363414138555526
0.0200859773904085
0.0037444662302732
-0.0117543376982212
-0.0255503244698047
-0.0369492769241333
-0.0454928651452064
-0.0509924814105033
-0.0535306185483932
-0.0534356795251369
-0.0512283444404602
-0.0475455708801746
-0.0430666543543338
-0.0384527593851089
-0.0342856794595718
-0.031004674732685
-0.0288638565689325
-0.0279253162443637
-0.0280822142958641
-0.0290954373776912
-0.0306350588798522
-0.0323270112276077
-0.0338012687861919
-0.0347348004579544
-0.0348857417702674
-0.0341141037642955
-0.0323917753994464
-0.0298175439238548
-0.0266451686620712
-0.0233053043484687
-0.020386915653944
-0.018561877310276
-0.018472284078598
-0.0206161811947822
-0.0252561159431934
-0.0323652178049087
-0.0416202582418918
-0.0524381436407566
-0.0640415549278259
-0.0755420476198196
-0.0860347896814346
-0.0946946367621421
-0.1008587703108787
-0.1040862500667572
-0.1041939929127693
-0.1012696847319603
-0.0956519842147827
-0.0878749191761016
-0.078592300415039
-0.0684963092207908
-0.0582373030483722
-0.0483575798571109
-0.0392521619796752
-0.0311573818325996
-0.0241592451930046
-0.0182148963212966
-0.0131838135421276
-0.0088636688888072
-0.0050215721130371
-0.0014173164963722
0.0021705403923988
0.0059107318520545
0.0098921917378902
0.0141158401966094
0.0184947215020656
0.0228458084166049
0.0268770195543766
0.0301914364099502
0.03232441842556
0.0328111052513122
0.0312679037451744
0.0274674743413925
0.0213926807045936
0.0132596492767333
0.0035072639584541
-0.00723871961236
-0.0182257443666458
-0.0286591127514839
-0.0377930365502834
-0.0450077950954437
-0.0498660430312156
-0.0521451644599437
-0.0518450364470481
-0.0491725355386734
-0.0445031896233558
-0.0383262932300567
-0.0311841983348131
-0.023614052683115
-0.0160990878939628
-0.0090327523648738
-0.0026930086314678
0.0027714185416698
0.0073330923914909
0.0110562667250633
0.0140636563301086
0.0165109150111675
0.0185638330876827
0.0203767158091068
0.02207687869668
0.0237561874091625
0.0254656486213207
0.0272080525755882
0.0289252921938896
0.0304801575839519
0.0316393449902534
0.0320758372545242
0.0314084403216838
0.0292741060256958
0.0254044868052005
0.0196798183023929
0.0121573843061923
0.0030821412801742
-0.007120382040739
-0.0178716517984867
-0.0284897778183221
-0.0382621549069881
-0.0465311780571937
-0.0527723655104637
-0.056650087237358
-0.0580454617738723
-0.0570537038147449
-0.0539549030363559
-0.0491654500365257
-0.0431767702102661
-0.0364982411265373
-0.0296154040843248
-0.0229537896811962
-0.0168456174433231
-0.0115092620253562
-0.0070441626012325
-0.0034404247999191
-0.0006000231951475
0.0016391370445489
0.0034793391823768
0.0051371939480304
0.006817216053605
0.0086864717304706
0.0108526535332202
0.0133490189909935
0.0161212664097547
0.019007546827197
0.0217190124094486
0.0238476786762475
0.0249191839247941
0.024477519094944
0.0221753492951393
0.0178482048213481
0.0115563841536641
0.0035900538787245
-0.0055563738569617
-0.0152359548956155
-0.0247214715927839
-0.0332851186394691
-0.0402738191187381
-0.0451741069555282
-0.047658696770668
-0.0476119928061962
-0.0451364703476429
-0.040533147752285
-0.0342512801289558
-0.0268188938498497
-0.018774127587676
-0.0106110433116555
-0.002741765230894
0.0045272288843989
0.0110054183751344
0.0166177731007337
0.0213925000280141
0.0254336297512054
0.0288876146078109
0.0319191962480545
0.034696988761425
0.0373766310513019
0.0400783792138099
0.0428690090775489
0.0457474738359451
0.0486230067908763
0.0512904599308967
0.0534256398677825
0.0546173304319381
0.0544319972395896
0.0524918064475059
0.0485467091202735
0.0425306744873523
0.0345944799482822
0.0251051150262355
0.0146129271015524
0.0037986999377608
-0.0065948478877544
-0.0158456265926361
-0.0233348719775676
-0.0286122076213359
-0.0314352922141552
-0.0317814238369464
-0.0298281330615282
-0.0259107407182455
-0.0204734411090612
-0.0140197221189737
-0.0070615485310554
-7.36340880393982e-05
0.0065418137237429
