bvp
-0.0302957128733396
-0.0299196206033229
-0.0289901457726955
-0.0280091501772403
-0.0274163540452718
-0.0275411177426576
-0.0285700317472219
-0.0305362269282341
-0.0333320014178752
-0.0367405861616134
-0.0404800660908222
-0.0442503467202186
-0.0477727316319942
-0.0508184358477592
-0.0532280653715133
-0.0549215152859687
-0.0559010133147239
-0.0562598332762718
-0.0562049001455307
-0.0560771040618419
-0.0563384108245372
-0.0575141459703445
-0.0601051039993763
-0.0644905269145965
-0.0708416551351547
-0.0790661498904228
-0.0887992233037948
-0.0994427949190139
-0.1102403998374939
-0.1203729212284088
-0.1290580034255981
-0.135634183883667
-0.1396217048168182
-0.1407656818628311
-0.1390629410743713
-0.1347599029541015
-0.128311812877655
-0.1203124895691871
-0.111414335668087
-0.1022555232048034
-0.0933982878923416
-0.0852783322334289
-0.0781727582216262
-0.0721910968422889
-0.0672867372632026
-0.0632865130901336
-0.0599326975643634
-0.0569251142442226
-0.0539558455348014
-0.0507426522672176
-0.0470654666423797
-0.0427942126989364
-0.0379030779004097
-0.0324864275753498
-0.0267837420105934
-0.0211954154074192
-0.0162633247673511
-0.0126039292663335
-0.010804247111082
-0.0113082341849803
-0.0143210059031844
-0.0197506248950958
-0.0272006690502166
-0.0360107198357582
-0.0453303456306457
-0.0542182102799415
-0.061757568269968
-0.0671670511364936
-0.0698837786912918
-0.069609023630619
-0.0663200169801712
-0.0602549538016319
-0.0518740229308605
-0.0417972803115844
-0.0307250581681728
-0.0193531922996044
-0.0082991793751716
0.0019484683871269
0.011058360338211
0.0188660956919193
0.025366635993123
0.0306926015764474
0.0350795909762382
0.038820531219244
0.042221687734127
0.0455697886645793
0.0491054952144622
0.0529974177479743
0.0573138743638992
0.0619868151843547
0.0667726323008537
0.0712323784828186
0.0747579783201217
0.0766547247767448
0.0762637257575988
0.0730948895215988
0.0669408664107322
0.0579429119825363
0.0465918146073818
0.0336698293685913
0.0201539471745491
0.0071023255586624
-0.0044603124260902
-0.0136486776173114
-0.0198052935302257
-0.0225614458322525
-0.0218639783561229
-0.0179651491343975
-0.0113776288926601
-0.0028018504381179
0.0069640688598155
0.0171205028891563
0.0269537605345249
0.0358959734439849
0.0435500219464302
0.0496946200728416
0.0542827695608139
0.0574288181960582
0.0593782290816307
0.0604649521410465
0.0610665678977966
0.0615603104233741
0.062279000878334
0.063472606241703
0.0652775838971138
0.0676825195550918
0.0704851001501083
0.0732641443610191
0.0753993541002273
0.0761455446481704
0.0747469067573547
0.0705749318003654
0.0632644146680831
0.0528110489249229
0.0396042317152023
0.0243920814245939
0.0081940703094005
-0.0078187175095081
-0.022460401058197
-0.0346689894795417
-0.0436246916651725
-0.0488293468952178
-0.0501422248780727
-0.0477714017033577
-0.0422235392034053
-0.0342283584177494
-0.0246544294059276
-0.0144173428416252
-0.0043797260150313
0.0047422149218618
0.0124449599534273
0.0184672176837921
0.0227843206375837
0.025573955848813
0.0271620750427246
0.0279585849493742
0.0283957030624151
0.0288773234933614
0.0297364015132188
0.0312024671584367
0.033386044204235
0.0362659357488155
0.0396578088402748
0.043177805840969
0.046241357922554
0.0481198765337467
0.048046663403511
0.0453488454222679
0.0395802743732929
0.0306260176002979
0.0187517441809177
0.0045923143625259
-0.0109120327979326
-0.0266234502196311
-0.0413435846567153
-0.0539558231830596
-0.0635492503643035
-0.069513663649559
-0.0716002136468887
-0.0699328482151031
-0.0649647861719131
-0.057398747652769
-0.0480919629335403
-0.0379570573568344
-0.0278665535151958
-0.018569990992546
-0.0106328427791595
-0.004401858896017
1.993030309677124e-06
0.0026633888483047
0.0038321129977703
0.0038755051791667
0.0032305233180522
0.0023478344082832
0.0016288720071315
0.001376487314701
0.0017682574689388
0.0028408654034137
0.00447229295969
0.0063599161803722
0.0080141872167587
0.0087937377393245
0.0079891942441463
0.0049462392926216
-0.0007968917489051
-0.0093956291675567
-0.0206394605338573
-0.0339551866054534
-0.0484661385416984
-0.0630968660116195
-0.0767081752419471
-0.0882366746664047
-0.096814677119255
-0.1018583998084068
-0.1031186580657959
-0.1006911769509315
-0.0949875563383102
-0.0866701155900955
-0.0765582919120788
-0.0655238553881645
-0.0543952658772468
-0.0438808277249336
-0.0345132797956466
-0.0266175530850887
-0.0203012432903051
-0.0154717713594436
-0.0118824522942304
-0.0091926734894514
-0.0070232488214969
-0.005002275109291
-0.0028037335723638
-0.0001814048737287
0.0029991287738084
0.00672865845263
0.0108211524784564
0.0148894563317298
0.0183578636497259
0.020531341433525
0.0207120459526777
0.0183369107544422
0.013106632977724
0.0050717275589704
-0.0053468979895114
-0.0173979438841342
-0.0300864223390817
-0.0422933548688888
-0.0529076233506202
-0.0609536804258823
-0.0657045990228653
-0.0667617172002792
-0.0640850216150283
-0.0579778924584388
-0.0490377619862556
-0.0380776859819889
-0.0260246824473142
-0.0138097926974296
-0.0022650612518191
0.0079595074057579
0.0164459813386201
0.0230242498219013
0.0277619808912277
0.0309318844228982
0.0329549312591552
0.0343259051442146
0.0355378091335296
0.0370186120271682
0.03908471763134
0.0419142954051494
0.0455336943268775
0.0497955754399299
0.0543479993939399
0.0586294084787368
0.0619194284081459
0.0634394809603691
0.0624791868031024
0.0585287921130657
0.051393873989582
0.0412631183862686
0.0287109240889549
0.0146349221467971
0.0001457510516047
-0.01356918271631
-0.0253884550184011
-0.0343823581933975
-0.0399047657847404
-0.0416478104889392
-0.0396555513143539
-0.0342930071055889
-0.0261797569692134
-0.0161093063652515
-0.0049674976617097
0.006354946643114
0.0170550588518381
0.0264979545027017
0.0342692248523235
0.0401938073337078
0.0443229079246521
0.0468939915299415
0.0482731461524963
0.0488920882344245
0.0491879135370254
0.0495503470301628
0.0502816289663314
0.0515715628862381
0.0534775108098983
0.0558888837695121
0.0584830306470394
0.0607175529003143
0.0618908256292343
0.0612599775195121
0.0581828244030475
0.0522500649094581
0.0433827936649322
0.031874269247055
0.0183650758117437
0.0037640933878719
-0.0108608128502964
-0.0244056917726993
-0.0358558595180511
-0.0443991050124168
-0.0495098419487476
-0.0509958267211914
-0.0490072071552276
-0.0440045222640037
-0.0366860032081604
-0.0278880596160888
-0.018478188663721
-0.0092578353360295
-0.0008855070918798
0.0061752102337777
0.0116774775087833
0.0155834686011075
0.0180364996194839
0.0193207953125238
0.0198114588856697
0.0199192240834236
0.0200383961200714
0.0205011088401079
0.0215362608432769
0.0232385676354169
0.0255504995584487
0.0282463785260915
0.0309198200702667
0.0329999104142189
0.0338154509663581
0.0327004939317703
0.0291192587465047
0.022783376276493
0.0137318056076765
0.0023523084819316
-0.0106566622853279
-0.0243689995259046
-0.0377387516200542
-0.0497193187475204
-0.059385810047388
-0.066042423248291
-0.069292739033699
-0.0690645277500152
-0.0655949711799621
-0.0593858286738395
-0.051133994013071
-0.0416437312960624
-0.0317331627011299
-0.0221480317413806
-0.0134923793375492
-0.0061843991279602
-0.0004379786550998
0.003735838457942
0.00650748424232
0.0081842131912708
0.0091468673199415
0.0097847897559404
0.0104474406689405
0.0114154852926731
0.0128810256719589
0.0149290040135383
0.0175153780728578
0.0204405430704355
0.0233301427215337
0.025649107992649
0.0267663113772869
0.026062473654747
0.0230546556413173
0.017506131902337
0.0094967149198055
-0.0005654580891132
-0.0119938887655735
-0.0239140912890434
-0.0353698916733264
-0.0454316847026348
-0.0532962754368782
-0.0583680123090744
-0.0603134632110595
-0.0590870939195156
-0.054925188422203
-0.0483061075210571
-0.0398838147521019
-0.0304062478244304
-0.0206301212310791
-0.0112417181953787
-0.0027889246121048
0.0043658018112182
0.0100593175739049
0.0143101587891578
0.0172827132046222
0.0192447267472744
0.0205232091248035
0.0214611999690532
0.0223794113844633
0.023544019088149
0.025139681994915
0.0272483043372631
0.0298287961632013
0.0326921716332435
0.0354838408529758
0.0377010703086853
0.0387604013085365
0.0380962789058685
0.03526022285223
0.0300080515444278
0.022368311882019
0.0126729886978864
0.0015366971492767
-0.0102119743824005
-0.0216342099010944
-0.031802449375391
-0.039915308356285
-0.0453853085637092
-0.0478934720158577
-0.0474113374948501
-0.0441882275044918
-0.0387024469673633
-0.0315863937139511
-0.0235473494976758
-0.0152973737567663
-0.0074889073148369
-0.000654699280858
0.004838865250349
0.008815336972475
0.0112860966473817
0.0124276001006364
0.0125418733805418
0.0120009072124958
0.0111851934343576
0.0104340724647045
0.0100136138498783
0.0100956000387668
0.0107390936464071
0.0118662361055612
0.013231910765171
0.0144089665263891
0.0148236937820911
0.0138517785817384
0.0109462831169366
0.0057573039084672
-0.0017848461866378
-0.011434675194323
-0.022647388279438
-0.03464125841856
-0.0464929491281509
-0.0572492331266403
-0.0660395622253418
-0.0721735060214996
-0.0752101987600326
-0.0749958157539367
-0.0716696977615356
-0.065639391541481
-0.0575279295444488
-0.0480948984622955
-0.0381384864449501
-0.0284006483852863
-0.0194933991879224
-0.0118471290916204
-0.0056809973903
-0.0010031778365373
0.0023595714010298
0.0047144265845417
0.0064438367262482
0.0079422071576118
0.0095640644431114
0.011592062190175
0.0142104616388678
0.0174702238291502
0.0212531592696905
0.0252498928457498
0.0289665926247835
0.0317762158811092
0.0330147780478
0.0321016162633895
0.0286557413637638
0.0225836616009473
0.0141198607161641
0.0038122748956084
-0.0075405444949865
-0.0189849641174078
-0.0295248888432979
-0.038236416876316
-0.0443709418177604
-0.0474371090531349
-0.0472480729222297
-0.0439244769513607
-0.0378604792058467
-0.0296625159680843
-0.0200674422085285
-0.0098530054092407
0.0002469345927238
0.0096141844987869
0.0177976042032241
0.024538641795516
0.0297717303037643
0.0336067080497741
0.036298356950283
0.0382031872868537
0.0397216975688934
0.0412310175597667
0.0430280603468418
0.0452968329191207
0.0480885542929172
0.0512989573180675
0.0546451434493064
0.0576618500053882
0.0597399212419986
0.0602138713002204
0.0584830902516841
0.0541383028030395
0.047061800956726
0.0374769195914268
0.0259385015815496
0.0132713560014963
0.0004681535065174
-0.0114389695227146
-0.0215081460773944
-0.0289921499788761
-0.0334063433110713
-0.0345616079866886
-0.0325649939477443
-0.0277900919318199
-0.0208214707672595
-0.0123804584145545
-0.0032407641410827
0.0058561414480209
0.014277009293437
0.021555945277214
0.0274273380637168
0.0318301916122436
0.0348849296569824
0.036843467503786
0.0380291566252708
0.0387869104743003
0.0394439920783042
0.0402763485908508
0.0414823926985263
0.0431607589125633
0.0452809147536754
0.0476470850408077
0.049877792596817
0.0514272078871727
0.0516565665602684
0.0499438196420669
0.0458093099296093
0.0390303917229175
0.0297113228589296
0.0182851646095514
0.0054582799784839
-0.0078745484352111
-0.0207303203642368
-0.0321486704051494
-0.0413004532456398
-0.0475765354931354
-0.0506458431482315
-0.0504782907664775
-0.0473303198814392
-0.0416989512741565
-0.034255713224411
-0.0257648080587387
-0.0169899556785821
-0.0086051784455776
-0.0011306721717119
0.0050944308750331
0.009911959990859
0.0133336298167705
0.015520742163062
0.0167501047253608
0.0173697005957365
0.0177499260753393
0.0182338654994964
0.019094543531537
0.0205060746520757
0.0225192476063966
0.0250284746289253
0.0277409981936216
0.0301782339811325
0.0317282155156135
0.0317399352788925
0.0296344086527824
0.0250141192227602
0.0177569724619388
0.0080706924200057
-0.0035114716738462
-0.0161901488900184
-0.0289983190596103
-0.0409221425652504
-0.0510263592004776
-0.0585633218288421
-0.063047856092453
-0.0642915442585945
-0.0624005272984504
-0.0577443242073059
-0.050899613648653
-0.0425744578242301
-0.0335272476077079
-0.0244906097650527
-0.0160993989557027
-0.0088286977261304
-0.0029568523168563
0.0014410894364118
0.0044730696827173
0.0063884705305099
0.0075264759361743
0.0082644680514931
0.0089700017124414
0.0099587151780724
0.0114615531638264
0.0136027531698346
0.0163828637450933
0.0196551885455846
0.0230977907776832
0.0262103136628866
0.0283637139946222
0.0289001371711492
0.0272562578320503
0.0230773240327835
0.0162978991866111
0.0071758553385734
-0.0037271045148372
-0.0156113803386688
-0.0275358613580465
-0.0385307669639587
-0.0477116927504539
-0.0543770231306552
-0.0580756813287735
-0.0586438551545143
-0.056213304400444
-0.0511857867240905
-0.0441711992025375
-0.0359015204012393
-0.0271365903317928
-0.0185746066272258
-0.0107807321473956
-0.0041438434273004
0.0011379970237612
0.0050505502149462
0.0077396128326654
0.0094696199521422
0.0105720302090048
0.0113986320793628
0.0122836483642458
0.0135067738592624
0.0152564411982893
0.017605559900403
0.020503656938672
0.0237705670297145
0.0270850881934165
0.0299876742064952
0.0319201797246933
0.0323052704334259
0.0306487698107957
0.026641285046935
0.020235575735569
0.0116801504045724
0.0015009474009275
-0.0095599135383963
-0.0206304918974638
-0.0308093838393688
-0.0392749458551406
-0.0453851744532585
-0.0487420260906219
-0.049215443432331
-0.0469381436705589
-0.0422738268971443
-0.0357611440122127
-0.0280438363552093
-0.0197940375655889
-0.0116362022235989
-0.0040868618525564
0.0024821907281875
0.0078613683581352
0.012004155665636
0.0150110255926847
0.0170944463461637
0.0185285173356533
0.019600186496973
0.0205768831074237
0.0216877497732639
0.0231066606938838
0.0249345786869525
0.0271873734891414
0.0297837704420089
0.0325244441628456
0.0350770242512226
0.0369917042553424
0.0377549305558204
0.0368728935718536
0.0339696332812309
0.0288765709847211
0.02168476767838
0.0127446856349706
0.002624474465847
-0.0079539027065038
-0.0181908197700977
-0.027295920997858
-0.0345804020762443
-0.0395375490188598
-0.0418947339057922
-0.0416322499513626
-0.038972370326519
-0.0343420468270778
-0.028311351314187
-0.0215170085430145
-0.0145863965153694
-0.0080703431740403
-0.0023918487131595
0.0021783234551548
0.0055215982720255
0.0076603535562753
0.0087387841194868
0.0089926198124885
0.0087116369977593
0.0082020852714777
0.0077512208372354
0.0075955241918563
0.0078963562846183
0.0087214736267924
0.010024300776422
0.0116191655397415
0.01317042671144
0.014219257980585
0.0142483217641711
0.0127651961520314
0.0093910321593284
0.0039436165243387
-0.0035048108547925
-0.0126121342182159
-0.0227966923266649
-0.033305250108242
-0.0433055460453033
-0.0519876331090927
-0.0586567670106887
-0.0628071725368499
-0.0641738474369049
-0.0627563148736953
-0.058804452419281
-0.0527688674628734
-0.0452354773879051
-0.0368599742650985
-0.0283010583370924
-0.0201506298035383
-0.0128721063956618
-0.0067612528800964
-0.0019349167123436
0.0016561327502131
0.004197881091386
0.0059733372181653
0.007315972354263
0.0085617061704397
0.0100075844675302
0.0118808839470148
0.0143159572035074
0.0173338893800973
0.0208137668669223
0.0244578123092651
0.0277881845831871
0.0302034839987754
0.0310778133571147
0.0298752076923847
0.0262587219476699
0.0201699025928974
0.0118606621399521
0.0018737027421593
-0.0090208631008863
-0.019920015707612
-0.0298987496644258
-0.0381185561418533
-0.043916281312704
-0.0468625053763389
-0.0467916540801525
-0.0438138097524642
-0.0383007861673831
-0.0308316741138696
-0.0221079140901565
-0.0128629058599472
-0.0037810429930686
0.0045694075524806
0.0117854513227939
0.0176536962389946
0.0221457686275243
0.0253926888108253
0.0276503041386604
0.0292553752660751
0.0305727217346429
0.0319473445415496
0.0336649976670742
0.0359146073460578
0.0387585535645484
0.0421128794550895
0.0457289218902587
0.0491872169077396
0.0519281961023807
0.0533255636692047
0.0527864843606948
0.0498560778796672
0.0443075597286224
0.0362036079168319
0.0259157940745353
0.0140970423817634
0.0016152579337358
-0.0105412602424621
-0.0213816724717617
-0.0300406198948621
-0.0358858779072761
-0.0385796129703521
-0.0380913764238357
-0.0346756465733051
-0.0288233682513237
-0.0211915001273155
-0.0125184282660484
-0.0035386122763156
0.0050920508801937
0.0128538887947797
0.0194003954529762
0.024572804570198
0.0283944029361009
0.0310469344258308
0.0328264869749546
0.0340808555483818
0.0351493544876575
0.0363238714635372
0.037824910134077
0.0397836044430732
0.0422282665967941
0.0450648106634616
0.0480456985533237
0.0507500059902668
0.0526050701737403
0.0529584661126136
0.0511876419186592
0.0468233339488506
0.0396600104868412
0.0298282317817211
0.0178059544414281
0.0043625812977552
-0.0095415469259023
-0.0228706412017345
-0.0346302837133407
-0.0439750924706459
-0.0502919033169746
-0.0532531142234802
-0.0528414770960807
-0.0493398606777191
-0.0432824790477752
-0.0353779941797256
-0.026419848203659
-0.0171963907778263
-0.0084076579660177
-0.0005956403911113
0.0058971894904971
0.0109320515766739
0.0145515939220786
0.0169470943510532
0.01841876283288
0.0193272437900304
0.0200415253639221
0.020893869921565
0.0221481062471866
0.0239767841994762
0.0264383144676685
0.0294521059840917
0.032773345708847
0.035975843667984
0.0384688414633274
0.0395681746304035
0.0386063829064369
0.0350474715232849
0.0285907201468944
0.0192558392882347
0.007422661408782
-0.0061960844323039
-0.0206387024372816
-0.0348116271197795
-0.0476186163723468
-0.0580832175910472
-0.0654533132910728
-0.0692793577909469
-0.0694536119699478
-0.0662039965391159
-0.0600465349853038
-0.0517044961452484
-0.0420108325779438
-0.0318148583173751
-0.021898852661252
-0.0129040703177452
-0.005277435760945
0.00075209653005
0.0051696458831429
0.0081470170989632
0.0099984686821699
0.0111264027655124
0.0119605734944343
0.012898588553071
0.0142582859843969
0.0162489097565412
0.0189614258706569
0.0223653968423604
0.0262927580624818
0.0304057206958532
0.0341776125133037
0.0369246378540992
0.0378987379372119
0.0364188887178897
0.0320064425468444
0.0244933031499385
0.0140817016363143
0.0013451557606458
-0.0128303319215774
-0.0273526087403297
-0.0410550609230995
-0.0528353154659271
-0.0617823898792266
-0.0672690048813819
-0.0690031498670578
-0.067047119140625
-0.0617975071072578
-0.0539180785417556
-0.0442416705191135
-0.0336650013923645
-0.0230489652603864
-0.0131331775337457
-0.0044740131124854
0.0025920267216861
0.0079589365050196
0.0117316534742712
0.0141804432496428
0.015681903809309
0.0166598819196224
0.0175339020788669
0.0186707489192485
0.0203382670879364
0.022677632048726
0.0257015936076641
0.0293023362755775
0.0332506597042083
0.0371835306286811
0.0405978746712207
0.0428773872554302
0.0433625467121601
0.0414553172886371
0.0367397964000701
0.0290875118225812
0.0187155101448297
0.0061858110129833
-0.0076460121199488
-0.0217267982661724
-0.034939095377922
-0.0462432131171226
-0.0547951646149158
-0.060027927160263
-0.0616951063275337
-0.059879258275032
-0.0549653433263301
-0.0475788787007331
-0.0384985357522964
-0.028560085222125
-0.0185663569718599
-0.009211759082973
-0.0010248702019453
0.0056672533974051
0.0107506765052676
0.0143098291009664
0.0165847092866897
0.0179134663194417
0.0186782460659742
0.019256517291069
0.0199791397899389
0.0211021713912487
0.022791288793087
0.0251115038990974
0.0280142314732074
0.0313165634870529
0.0346791893243789
0.0376001633703708
0.039447546005249
0.0395478829741478
0.037314236164093
0.0323688387870788
0.0246268603950738
0.0143338683992624
0.002057958394289
-0.0113634364679455
-0.0249166581779718
-0.0375316366553306
-0.0482104383409023
-0.056142158806324
-0.0607862025499343
-0.0619188658893108
-0.0596408993005752
-0.0543453395366668
-0.0466546155512332
-0.0373369306325912
-0.0272108782082796
-0.0170555356889963
-0.0075413226149976
0.0008179564028978
0.0076955202966928
0.0129633266478776
0.0166835691779851
0.019077518954873
0.0204750653356313
0.0212594866752624
0.0218181107193231
0.0224989019334316
0.0235751792788505
0.0252231284976005
0.0275089405477046
0.0303784273564815
0.0336437672376632
0.0369656756520271
0.0398475490510463
0.0416724234819412
0.0417924597859382
0.0396508052945137
0.0349037162959575
0.0275081880390644
0.0177535898983478
0.0062376838177442
-0.0062030162662267
-0.0185954645276069
-0.0299478024244308
-0.0393653959035873
-0.0461502596735954
-0.0498692318797111
-0.0503838583827018
-0.0478486269712448
-0.042684830725193
-0.0355260744690895
-0.0271348468959331
-0.0183069910854101
-0.0097816139459609
-0.002164707519114
0.0041236337274312
0.0088699972257018
0.012058918364346
0.0138444025069475
0.0145090445876121
0.0144153777509927
0.0139556191861629
0.0135054569691419
0.0133868316188454
0.013837806880474
0.0149822663515806
0.0168033763766288
0.0191281251609325
0.0216216202825307
0.023797208443284
0.0250593554228544
0.0247863829135894
0.0224393941462039
0.0176701433956623
0.0104021951556205
0.0008683800697326
-0.0104028964415192
-0.0226460061967372
-0.0349445678293705
-0.046332336962223
-0.0559032782912254
-0.0629220977425575
-0.0669097900390625
-0.0676829069852829
-0.0653516799211502
-0.060289554297924
-0.0530780293047428
-0.0444316007196903
-0.0351130999624729
-0.0258516296744346
-0.0172714535146951
-0.0098372008651494
-0.0038218975532799
0.0006980173056945
0.0038248060736805
0.0058087911456823
0.0070040831342339
0.0078058033250272
0.0085856411606073
0.009647318162024
0.0112019013613462
0.0133514888584613
0.0160694308578968
0.0191725045442581
0.0223017279058694
0.0249378308653831
0.0264619514346122
0.0262551829218864
0.0238184183835983
0.0188827309757471
0.0114818299189209
0.0019710659980773
-0.0090088564902544
-0.0206126756966114
-0.0318957194685936
-0.0419229269027709
-0.0498695522546768
-0.0551067180931568
-0.0572642534971237
-0.0562628284096717
-0.0523109845817089
-0.0458667203783988
-0.0375698134303092
-0.0281606931239366
-0.0183979850262403
-0.0089781023561954
-0.0004617422819137
0.006782067939639
0.0125972963869571
0.0170208793133497
0.020238984376192
0.0225388146936893
0.0242620538920164
0.0257617812603712
0.0273626074194908
0.0293244589120149
0.031812235713005
0.034867413341999
0.0383753627538681
0.04203612357378
0.045362327247858
0.0477270856499671
0.048465147614479
0.0470012053847312
0.042963869869709
0.0362609773874282
0.0271154232323169
0.0160612929612398
0.0038939770311117
-0.008422726765275
-0.0198755376040935
-0.0295242443680763
-0.0366078913211822
-0.040622528642416
-0.04136473685503
-0.0389369651675224
-0.0337176360189914
-0.0263048037886619
-0.0174371302127838
-0.0078976340591907
0.0015796050429344
0.0103781092911958
0.0180419906973838
0.0243019461631774
0.0290816146880388
0.0324795246124267
0.0347326062619686
0.0361714363098144
0.0371711440384388
0.038099966943264
0.0392725579440593
0.0409126877784729
0.0431225560605526
0.0458531640470027
0.0488755218684673
0.0517696216702461
0.0539548955857753
0.0547658577561378
0.0535586103796958
0.0498315431177616
0.0433370471000671
0.0341561511158943
0.022717647254467
0.0097565306350588
-0.0037780813872814
-0.016841571778059
-0.0284178033471107
-0.0376351773738861
-0.0438602566719055
-0.0467582866549491
-0.0463147088885307
-0.0428128838539123
-0.0367790311574935
-0.0289140939712524
-0.0200156103819608
-0.0108859911561012
-0.0022391993552446
0.0053736483678221
0.0116072846576571
0.0163316931575536
0.0196137949824333
0.0216800179332494
0.0228654518723487
0.0235583260655403
0.0241471193730831
0.0249721053987741
0.0262890793383121
0.0282490979880094
0.0308772716671228
0.0340367779135704
0.0373957529664039
0.040429551154375
0.0424756370484828
0.0428350791335105
0.0408947840332984
0.0362420938909053
0.0287547353655099
0.0186507925391197
0.0064843674190342
-0.0069144242443144
-0.0205424986779689
-0.0333479195833206
-0.0443510524928569
-0.0527475029230117
-0.0579895824193954
-0.0598427355289459
-0.0584015287458896
-0.0540543422102928
-0.0474120266735553
-0.0392236523330211
-0.0302880369126796
-0.0213641561567783
-0.0130895739421248
-0.0059210835024714
-0.0001105598639696
0.0042861909605562
0.0073837833479046
0.0094314748421311
0.0107665043324232
0.0117641631513834
0.0127873420715332
0.0141351241618394
0.0160043928772211
0.0184744000434875
0.021505631506443
0.0249382108449935
0.0284808538854122
0.0317011326551437
0.0340446457266807
0.0349001102149486
0.0336996763944625
0.0300274603068828
0.023711510002613
0.0148812793195247
0.0039789639413356
-0.0082792602479457
-0.0209872461855411
-0.0331634953618049
-0.0438722558319568
-0.0523268803954124
-0.0579650849103927
-0.0604965761303901
-0.0599225461483001
-0.0565232932567596
-0.0508110448718071
-0.04345428571105
-0.0351899117231369
-0.026736432686448
-0.0187165513634681
-0.0115994233638048
-0.0056687202304601
-0.0010173665359616
0.0024290308356285
0.0048678666353225
0.0065729208290576
0.007854969240725
0.0090266540646553
0.0103681553155183
0.0120978727936744
0.0143535239621996
0.0171807780861854
0.0205234456807374
0.024210225790739
0.0279378220438957
0.0312655270099639
0.0336442105472087
0.0344905331730842
0.0332958251237869
0.0297352634370327
0.0237406585365533
0.0155272930860519
0.0055813491344451
-0.0053891204297542
-0.0165341142565011
-0.0269593857228755
-0.0358272120356559
-0.0424488261342048
-0.0463586822152137
-0.047359861433506
-0.0455330498516559
-0.0412097983062267
-0.0349173843860626
-0.0273039788007736
-0.0190563946962356
-0.0108276102691888
-0.0031819893047213
0.003447588533163
0.0087914168834686
0.0127550400793552
0.0154085978865623
0.0169576685875654
0.0177021529525518
0.0179894212633371
0.0181669630110263
0.0185390338301658
0.0193316396325826
0.020670810714364
0.0225739292800426
0.0249445270746946
0.0275628212839365
0.0300753265619277
0.0320004113018512
0.0327751860022544
0.0318468622863292
0.0287788361310958
0.0233450606465339
0.0155963189899921
0.0058782882988452
-0.005203740671277
-0.0168583244085311
-0.0282024331390857
-0.0383644998073577
-0.0465862266719341
-0.0523101985454559
-0.0552337169647216
-0.0553211867809295
-0.0527898743748664
-0.0480804517865181
-0.0418056175112724
-0.0346723273396492
-0.0273890998214483
-0.0205792654305696
-0.0147160310298204
-0.0100850388407707
-0.0067767919972538
-0.0047071352601051
-0.003655394539237
-0.0033095795661211
-0.0033149104565382
-0.0033226078376173
-0.0030310209840536
-0.0022129788994789
-0.0007350128144025
0.0014208108186721
0.0041332375258207
0.0071275699883699
0.0099800582975149
0.012150265276432
0.0130519326776266
0.012154372408986
0.0090851001441478
0.003707617521286
-0.0038357991725206
-0.0131204193457961
-0.0234799906611442
-0.034087911248207
-0.0440570190548896
-0.0525375939905643
-0.0588111355900764
-0.0623757131397724
-0.0630013346672058
-0.0607428252696991
-0.0559163093566894
-0.0490456745028495
-0.0407860577106475
-0.0318382903933525
-0.0228704046458005
-0.0144549673423171
-0.0070225400850176
-0.0008343011140823
0.0040221316739916
0.0076194130815565
0.0101669859141111
0.011977176181972
0.0134153040125966
0.014836136251688
0.0165276899933815
0.0186812654137611
0.0213825739920139
0.0246051773428916
0.0281952731311321
0.031854897737503
0.0351434908807277
0.0375158786773681
0.0383992344141006
0.0372947193682193
0.0338791012763977
0.028081577271223
0.0201225467026233
0.0105090430006384
-1.9859522581100464e-05
-0.0105917323380708
-0.0203132536262273
-0.028370514512062
-0.0341142863035202
-0.0371260158717632
-0.0372530594468116
-0.0346103459596633
-0.0295519605278968
-0.022615723311901
-0.0144482925534248
-0.0057248175144195
0.0029247738420963
0.0109760034829378
0.0180521961301565
0.0239466652274131
0.0286204908043146
0.0321749486029148
0.0348108187317848
0.0367877818644046
0.038387294858694
0.0398793071508407
0.0414933450520038
0.0433944277465343
0.0456620529294014
0.0482652112841606
0.0510298274457454
0.0536141246557235
0.0555196441709995
0.0561541691422462
0.0549395456910133
0.0514345504343509
0.045433834195137
0.0370201990008354
0.0265690721571445
0.0147115550935268
0.0022647660225629
-0.0098582562059164
-0.0207470916211605
-0.0295919869095087
-0.0357721112668514
-0.0389208868145942
-0.0389581955969333
-0.0360878407955169
-0.0307607464492321
-0.0236073229461908
-0.0153532121330499
-0.0067344922572374
0.0015765167772769
0.0090278293937444
0.0152283497154712
0.0199750959873199
0.0232616141438484
0.025260791182518
0.0262814629822969
0.0267072059214115
0.0269333086907863
0.0273148976266384
0.0281291846185922
0.0295494198799133
0.0316228941082954
0.0342434160411357
0.0371252261102199
0.0398022420704364
0.0416658669710159
0.042039431631565
0.0402886681258678
0.035953264683485
0.0288612768054008
0.0191914923489093
0.0074689518660306
-0.0054999450221657
-0.0187307763844728
-0.0311810951679945
-0.0418729968369007
-0.0500038266181945
-0.0550286844372749
-0.0567063130438327
-0.0551066361367702
-0.0505804941058158
-0.0437037087976932
-0.0352101437747478
-0.0259109959006309
-0.0165990926325321
-0.007957799360156
-0.0004958887584507
0.0054852347820997
0.0098947081714868
0.0128323920071125
0.0145527953281998
0.0154154039919376
0.0158267188817262
0.0161838419735431
0.0168267022818326
0.0180035959929227
0.0198506265878677
0.022370021790266
0.0253918096423149
0.0285406522452831
0.0312513187527656
0.0328429788351058
0.0326300859451293
0.0300481636077165
0.0247715823352336
0.0167954340577125
0.0064626578241586
-0.0055670775473117
-0.0183971561491489
-0.0310051124542951
-0.0423679538071155
-0.0515832677483558
-0.0579639561474323
-0.0611007660627365
-0.0609013624489307
-0.0575948618352413
-0.0516850277781486
-0.0438640601933002
-0.0349138751626014
-0.0256127454340457
-0.0166549831628799
-0.0085893934592604
-0.0017812605947256
0.0036021624691784
0.0075824563391506
0.0103380857035517
0.0121601680293679
0.0134078161790966
0.0144637459889054
0.0156835168600082
0.0173420701175928
0.0195965208113193
0.0224724169820547
0.0258560366928577
0.0294806621968746
0.0329197272658348
0.0356088206171989
0.0369104482233524
0.0362198241055011
0.0330859422683715
0.0273113679140806
0.0190101973712444
0.0086168926209211
-0.0031541874632239
-0.0153874205425381
-0.0270732287317514
-0.0372344031929969
-0.0450474694371223
-0.0499352030456066
-0.0516199469566345
-0.0501359812915325
-0.0458042249083519
-0.0391763001680374
-0.0309593584388494
-0.0219329986721277
-0.012863646261394
-0.0044224318116903
0.002881315536797
0.0087399939075112
0.013058896176517
0.015941597521305
0.0176482982933521
0.0185304898768663
0.0189647618681192
0.0193072147667408
0.0198643431067466
0.0208678320050239
0.0224510002881288
0.0246269349008798
0.0272652879357337
0.0300709679722785
0.0325831994414329
0.0342169851064682
0.0343475900590419
0.0324202179908752
0.0280644744634628
0.0211875587701797
0.0120168607681989
0.0010795947164297
-0.0108654573559761
-0.0229186788201332
-0.0341387391090393
-0.0436459481716156
-0.0507226437330246
-0.0548948273062706
-0.0559789612889289
-0.0540880598127841
-0.0496009364724159
-0.043102815747261
-0.0353078171610832
-0.0269730668514966
-0.0188106596469879
-0.0114088673144578
-0.0051816944032907
-0.0003533363342285
0.0030352678149938
0.0051081096753478
0.0061224279925227
0.0064232805743813
0.0063918037340044
0.0063971392810344
0.0067565161734819
0.0076996525749564
0.0093331979587674
0.0116057908162474
0.0142799643799662
0.0169274359941482
0.0189664773643016
0.0197452306747436
0.0186550132930278
0.0152454664930701
0.0093185063451528
0.0009889025241136
-0.0093030054122209
-0.0208362285047769
-0.0326984599232673
-0.0438951626420021
-0.0534649193286895
-0.0605953484773635
-0.0647221431136131
-0.0655871331691742
-0.0632492080330848
-0.0580561719834804
-0.0505826920270919
-0.0415441058576107
-0.0317091420292854
-0.0218261107802391
-0.012558071874082
-0.004423992242664
0.0022475160658359
0.0073425117880105
0.0109532931819558
0.0133368344977498
0.0148570444434881
0.015925919637084
0.0169471055269241
0.0182648170739412
0.0201232656836509
0.0226356498897075
0.0257558338344097
0.0292538739740848
0.0327077023684978
0.035527478903532
0.0370297580957412
0.0365604124963283
0.0336324535310268
0.0280369520187377
0.0199039112776517
0.0097047369927167
-0.0018016714602708
-0.0136657636612653
-0.0248665809631347
-0.0344334654510021
-0.0415574088692665
-0.0456820428371429
-0.0465573891997337
-0.0442435815930366
-0.0390775650739669
-0.0316239893436431
-0.0226111821830272
-0.0128466822206974
-0.0031198672950267
0.0058888010680675
0.0136742061004042
0.0199468228965997
0.0246459580957889
0.0279166363179683
0.0300540868192911
0.0314357504248619
0.0324581339955329
0.033486470580101
0.0348183996975421
0.0366590470075607
0.0390962474048137
0.0420615002512931
0.0452886968851089
0.048306293785572
0.0504833832383155
0.0511275790631771
0.0496167093515396
0.0455274656414985
0.0387267172336578
0.0294152330607175
0.0181221161037683
0.005646891426295
-0.0070407725870609
-0.0189210809767246
-0.0290425308048725
-0.0366250537335872
-0.0411427170038223
-0.0423797816038131
-0.0404453538358211
-0.0357402637600898
-0.028888588771224
-0.0206487141549587
-0.0118156801909208
-0.0031295455992221
0.004798780195415
0.0115380939096212
0.0168607980012893
0.0207412727177143
0.023330595344305
0.0249104984104633
0.0258369781076908
0.0264868959784507
0.0272105708718299
0.0282866023480892
0.029883861541748
0.0320360772311687
0.034621063619852
0.0373431518673896
0.0397377498447895
0.04121745377779
0.0411601737141609
0.0390196442604064
0.034433152526617
0.0273077543824911
0.017867324873805
0.0066449446603655
-0.005576086230576
-0.01785384491086
-0.0292021408677101
-0.0387192033231258
-0.0457023084163665
-0.0497216992080211
-0.0506496988236904
-0.0486484467983245
-0.0441222786903381
-0.0376511700451374
-0.0299186073243618
-0.0216359756886959
-0.0134681891649961
-0.0059696231037378
0.0004643318243324
0.0056232577189803
0.0094807967543601
0.0121737495064735
0.0139635037630796
0.0151794590055942
0.0161599591374397
0.0172051973640918
0.0185446385294199
0.0203196424990892
0.0225736312568187
0.025236714631319
0.028103694319725
0.0308199506253004
0.0328964851796627
0.0337662659585475
0.0328747443854808
0.0297850612550973
0.0242765694856643
0.0164151638746261
0.0065737189725041
-0.0046076802536845
-0.016305947676301
-0.0276151392608881
-0.037647858262062
-0.0456338785588741
-0.0510066114366054
-0.0534625016152858
-0.052982673048973
-0.0498161539435386
-0.0444312840700149
-0.0374451614916324
-0.0295433327555656
-0.0214019902050495
-0.0136193893849849
-0.0066586909815669
-0.0008133458904922
0.0037929723039269
0.007184537127614
0.0095085082575678
0.0110057219862937
0.0119732413440942
0.012723539955914
0.0135467145591974
0.0146786132827401
0.0162744596600532
0.0183881036937236
0.0209555514156818
0.0237778760492801
0.0265099965035915
0.0286803282797336
0.0297542698681354
0.0292215812951326
0.0266834441572427
0.0219306088984012
0.0150033067911863
0.0062159765511751
-0.0038652829825878
-0.0144883953034877
-0.0248070936650037
-0.0339833125472068
-0.0412870720028877
-0.0461788326501846
-0.0483643040060997
-0.0478168576955795
-0.0447655469179153
-0.0396504253149032
-0.0330521762371063
-0.0256147310137748
-0.0179784707725048
-0.0107213724404573
-0.0043028621003031
0.0009787352755665
0.005001962184906
0.0078100943937897
0.0095796072855591
0.0105790728703141
0.0111236041411757
0.011529017239809
0.012073915451765
0.012973922304809
0.0143642295151948
0.0162879358977079
0.018688466399908
0.0213970020413398
0.0241115428507328
0.0263914987444877
0.0277011692523956
0.0275021977722644
0.025361530482769
0.021044498309493
0.0145755652338266
0.0062539726495742
-0.0033746026456356
-0.0135807283222675
-0.0235414244234561
-0.0324426107108593
-0.0395750030875206
-0.0444123968482017
-0.0466607958078384
-0.0462765023112297
-0.0434612855315208
-0.0386318191885948
-0.0323595255613327
-0.0252910703420639
-0.018064696341753
-0.0112367924302816
-0.0052311918698251
-0.0003122650086879
0.0034241415560245
0.0060390401631593
0.0077153416350483
0.0087118996307253
0.0093228127807378
0.0098459618166089
0.0105530908331274
0.0116556622087955
0.0132758785039186
0.0154373012483119
0.0180673487484455
0.0209922064095735
0.0239249840378761
0.0264677423983812
0.0281461793929338
0.0284768268465995
0.0270511601120233
0.0236183516681194
0.0181479975581169
0.0108574423938989
0.0021970868110656
-0.0071998834609985
-0.0165887586772441
-0.0252007860690355
-0.0323431566357612
-0.0374861322343349
-0.0403130054473876
-0.0407361015677452
-0.0388897471129894
-0.0351026430726051
-0.0298514757305383
-0.0237018410116434
-0.0172437150031328
-0.0110264522954821
-0.0055001685395836
-0.0009752209298312
0.0023946613073349
0.0046101724728941
0.0058101862668991
0.0062405974604189
0.0062065352685749
0.0060186623595654
0.005951995961368
0.0062222690321505
0.006971325725317
0.0082565397024154
0.0100422538816928
0.0121860615909099
0.0144219808280467
0.0163589064031839
0.0175122171640396
0.0173733495175838
0.0155026772990822
0.0116222221404314
0.0056905695237219
-0.0020615449175238
-0.0111535768955945
-0.0209248568862676
-0.0306221935898065
-0.0394855178892612
-0.0468247979879379
-0.0520873703062534
-0.0549135990440845
-0.0551731325685977
-0.05297427251935
-0.0486418902873992
-0.0426653213798999
-0.035629566758871
-0.0281437933444976
-0.0207714587450027
-0.0139701962471008
-0.0080580804497003
-0.0032082330435514
0.0005438812077045
0.0032875463366508
0.0052146166563034
0.0065887523815035
0.0077093336731195
0.0088719688355922
0.0103308716788887
0.0122687397524714
0.0147744342684745
0.0178219079971313
0.0212440006434917
0.0247127097100019
0.0277537330985069
