bvp
-0.0089676901698112
-0.0109349293634295
-0.0146568771451711
-0.0200324729084968
-0.0267318524420261
-0.0342169143259525
-0.0417904667556285
-0.0486759729683399
-0.0541212260723114
-0.0574982240796089
-0.0583721250295639
-0.0565352998673915
-0.0520131923258304
-0.0450454130768775
-0.0360465571284294
-0.0255553666502237
-0.0141805056482553
-0.0025457497686147
0.0087654823437333
0.0192605592310428
0.0285758655518293
0.0365008041262626
0.0429849438369274
0.048121090978384
0.0521031282842159
0.0551760122179985
0.0575974434614181
0.0596111565828323
0.0614237003028392
0.0631795525550842
0.0649305582046508
0.0666049644351005
0.0679929107427597
0.068763643503189
0.0685163289308548
0.0668522417545318
0.0634491071105003
0.0581247061491012
0.0508848838508129
0.0419453866779804
0.0317187532782554
0.0207770839333534
0.0098051950335502
-0.0004568294389173
-0.009287036024034
-0.0160620436072349
-0.020325168967247
-0.0218298677355051
-0.0205572135746479
-0.0167091879993677
-0.0106807211413979
-0.0030143926851451
0.0056601366959512
0.0146956192329525
0.0234914030879735
0.0315387174487113
0.0384431444108486
0.0439314134418964
0.0478528589010238
0.0501789823174476
0.050994873046875
0.0504764840006828
0.0488572865724563
0.0463943257927894
0.0433412306010723
0.0399249196052551
0.0363183319568634
0.032608188688755
0.0287620294839143
0.0246063247323036
0.0198342204093933
0.0140458866953849
0.006804883480072
-0.0023008622229099
-0.0135975126177072
-0.0272776111960411
-0.043376550078392
-0.0617540329694747
-0.0820643007755279
-0.1037487089633941
-0.1260768771171569
-0.1481968760490417
-0.1691624224185943
-0.1879601329565048
-0.2035704106092453
-0.2150766253471374
-0.2218043506145477
-0.2234469354152679
-0.2201302498579025
-0.2123766094446182
-0.2009691447019577
-0.1867797076702118
-0.1706353574991226
-0.1532521545886993
-0.1352176815271377
-0.1169886291027069
-0.0988863706588745
-0.0810944437980651
-0.0636740997433662
-0.046609953045845
-0.0298733934760093
-0.0134767964482307
0.002495102584362
0.0178739130496978
0.0324185416102409
0.0458605252206325
0.0579696260392665
0.0685934424400329
0.0776482969522476
0.0850862115621566
0.0908776819705963
0.0950299501419067
0.097626693546772
0.0988565236330032
0.0990128368139267
0.0984761044383049
0.0976945012807846
0.097164548933506
0.0974049195647239
0.0989152491092681
0.1021219789981842
0.1073291003704071
0.1146843582391738
0.1241525113582611
0.1354961693286895
0.1482815444469452
0.1619189083576202
0.1757283508777618
0.1890054941177368
0.2010639011859893
0.2112554013729095
0.2189880311489105
0.223757654428482
0.2251947075128555
0.223114401102066
0.2175511568784713
0.2087588906288147
0.1971784085035324
0.1833842992782592
0.1680165231227874
0.1517049521207809
0.1349994391202926
0.1183147653937339
0.1018996313214302
0.0858384072780609
0.070085123181343
0.0545188076794147
0.039007518440485
0.0234709382057189
0.0079311057925224
-0.0074613988399505
-0.0224350076168775
-0.0366340316832065
-0.0496675074100494
-0.0611570328474044
-0.0707808509469032
-0.0783127322793006
-0.0836540535092353
-0.0868536457419395
-0.0881063044071197
-0.0877310186624527
-0.0861374735832214
-0.0837846100330352
-0.0811338499188423
-0.0786019787192344
-0.0765189230442047
-0.075095847249031
-0.0744122043251991
-0.0744269490242004
-0.075003333389759
-0.0759361386299133
-0.0769819393754005
-0.0778921842575073
-0.0784443244338035
-0.0784668922424316
-0.077857494354248
-0.076596051454544
-0.0747556984424591
-0.0725084617733955
-0.0701179876923561
-0.06791353225708
-0.066244252026081
-0.0654206648468971
-0.0656632632017135
-0.0670739486813545
-0.0696230828762054
-0.0731431394815445
-0.077336274087429
-0.0818028524518013
-0.0860859304666519
-0.0897231921553611
-0.0922987312078476
-0.0934872776269912
-0.0930875837802887
-0.0910417884588241
-0.0874351114034652
-0.0824768170714378
-0.0764679163694381
-0.0697607547044754
-0.0627215281128883
-0.0557037256658077
-0.0490243770182132
-0.0429363138973712
-0.0376047790050506
-0.0330984592437744
-0.0293956492096185
-0.0264013856649398
-0.0239711105823516
-0.0219341684132814
-0.0201147627085447
-0.0183532275259494
-0.016523839905858
-0.0145476115867495
-0.0124056097120046
-0.0101520121097564
-0.0079236216843128
-0.0059401132166385
-0.0044811703264713
-0.003835835494101
-0.0042381817474961
-0.0058095371350646
-0.0085205286741256
-0.0121775846928358
-0.0164375677704811
-0.0208505857735872
-0.0249197632074356
-0.0281639341264963
-0.0301744937896728
-0.0306596104055643
-0.0294692311435937
-0.0265988521277904
-0.0221816971898078
-0.0164785496890544
-0.0098541267216205
-0.0027312021702528
0.0044636614620685
0.0113490708172321
0.0176273826509714
0.0231075305491685
0.0277100000530481
0.0314553044736385
0.0344406440854072
0.0368135571479797
0.0387453064322471
0.04040252789855
0.0419254936277866
0.0434179492294788
0.0449343137443065
0.0464554652571678
0.0478706285357475
0.0489839501678943
0.049542773514986
0.0492774471640586
0.0479479730129241
0.0453916005790233
0.0415633656084537
0.0365641191601753
0.0306499190628528
0.0242167226970195
0.0177619010210037
0.01182915084064
0.0069449245929718
0.0035579390823841
0.0019881278276443
0.0023874193429946
0.0047214366495609
0.0087777152657508
0.014195442199707
0.0205119755119085
0.0272210333496332
0.033831313252449
0.0399165600538253
0.0451539307832717
0.049345776438713
0.0524209290742874
0.054419994354248
0.0554728731513023
0.0557739101350307
0.0555552057921886
0.0550526939332485
0.0544638559222221
0.0539121329784393
0.0534315966069698
0.0529652573168277
0.0523676835000515
0.0514167994260787
0.0498423650860786
0.0473688207566738
0.043763481080532
0.0388819128274917
0.0327067822217941
0.0253738928586244
0.0171752199530601
0.008538351394236
-1.1614523828029633e-05
-0.0079092560335993
-0.0146232331171631
-0.0197285190224647
-0.0229540262371301
-0.0242010038346052
-0.0235394854098558
-0.0211885999888181
-0.0174855291843414
-0.0128465760499238
-0.0077237142249941
-0.0025621789973229
0.0022379418369382
0.0063552241772413
0.0095729120075702
0.0117935510352253
0.0130384275689721
0.0134290577843785
0.0131537998095154
0.0124318124726414
0.0114844515919685
0.0105118639767169
0.009668793529272
0.0090390928089618
0.0086134048178792
0.0082768090069293
0.0078153796494007
0.0069472780451178
0.0053714103996753
0.0028217397630214
-0.000878507271409
-0.0057685347273945
-0.0117172133177518
-0.0184196718037128
-0.0254317875951528
-0.0322285778820514
-0.0382656529545784
-0.0430370345711708
-0.0461283400654792
-0.0472636222839355
-0.0463428497314453
-0.0434593707323074
-0.0388866364955902
-0.0330385193228721
-0.026414044201374
-0.0195374749600887
-0.0129047930240631
-0.0069373939186334
-0.0019410606473684
0.0019189603626728
0.0046159718185663
0.0062403865158557
0.0069724973291158
0.0070521440356969
0.0067447610199451
0.0063072424381971
0.00595398619771
0.0058207008987665
0.005930932238698
0.0061777029186487
0.0063310917466878
0.0060756132006645
0.0050704665482044
0.0030200760811567
-0.0002553518861532
-0.0047690216451883
-0.0103566162288188
-0.0166974104940891
-0.0233482103794813
-0.0297868363559246
-0.0354685522615909
-0.0398899838328361
-0.0426498651504516
-0.0434980988502502
-0.042366087436676
-0.0393735170364379
-0.0348096191883087
-0.0290916487574577
-0.0227101985365152
-0.0161683801561594
-0.0099217714741826
-0.0043355580419301
0.0003339424729347
0.0039452966302633
0.0064737079665064
0.0080058677121996
0.0087243393063545
0.0088791437447071
0.0087482184171676
0.0085916854441165
0.0086039658635854
0.0088698863983154
0.0093357022851705
0.0098062874749302
0.0099757332354784
0.0094908811151981
0.0080338194966316
0.0053950119763612
0.0015154732391238
-0.0034971814602613
-0.0093683209270238
-0.0156757906079292
-0.0218955967575311
-0.0274692457169294
-0.0318782478570938
-0.034709345549345
-0.035701535642147
-0.0347731709480285
-0.0320273526012897
-0.0277340672910213
-0.0222925972193479
-0.0161775909364223
-0.0098744817078113
-0.0038241273723542
0.001610305160284
0.0061653689481318
0.0096970209851861
0.0121920499950647
0.013763427734375
0.014626289717853
0.0150580750778317
0.0153490705415606
0.0157492607831954
0.0164185464382171
0.017386769875884
0.0185338668525218
0.0196033120155334
0.0202502124011516
0.0201123636215925
0.0188842769712209
0.0163757633417844
0.0125533761456608
0.0075639863498508
0.0017306532245129
-0.0044808350503444
-0.010517893359065
-0.0158120039850473
-0.0198539998382329
-0.0222603920847177
-0.0228191968053579
-0.0215104483067989
-0.0185011383146047
-0.0141164101660251
-0.0087916422635316
-0.003012184984982
0.0027460912242531
0.0080638621002435
0.0126142706722021
0.0161890499293804
0.0187115147709846
0.0202358253300189
0.020929804071784
0.0210398994386196
0.0208463966846466
0.0206164848059415
0.0205564461648464
0.0207673795521259
0.02121502161026
0.0217246524989604
0.0220097415149211
0.0217337347567081
0.0205842740833759
0.0183344017714262
0.0148862861096858
0.0103025482967495
0.0048184068873524
-0.0011773316655308
-0.0071918349713087
-0.0126940738409757
-0.0171832628548145
-0.0202515199780464
-0.0216333419084548
-0.0212353151291608
-0.0191421881318092
-0.0155999287962913
-0.010976867750287
-0.0057092634961009
-0.0002496722154319
0.0049718124791979
0.0095835402607917
0.0133123882114887
0.0160148292779922
0.0176838599145412
0.0184352118521928
0.0184818245470523
0.0180965922772884
0.0175646059215068
0.0171314794570207
0.0169545803219079
0.0170656908303499
0.0173559412360191
0.0175934862345457
0.0174737107008695
0.0166832823306322
0.0149603011086583
0.0121487537398934
0.0082424227148294
0.0034034443087875
-0.0020500784739851
-0.0076817320659756
-0.0129942074418067
-0.0174984838813543
-0.0207818485796451
-0.0225619319826364
-0.0227164030075073
-0.0212873071432113
-0.0184683129191398
-0.0145774316042661
-0.0100110583007335
-0.0051881503313779
-0.0005044701974838
0.0037002582103013
0.0071728844195604
0.0097726117819547
0.0114813195541501
0.0123955244198441
0.0127023011445999
0.0126418899744749
0.0124637195840477
0.0123850079253315
0.0125545170158147
0.0130206812173128
0.0137115307152271
0.014438759535551
0.0149293448776006
0.0148748215287923
0.0139861479401588
0.0120509099215269
0.0089878123253583
0.0048806751146912
-2.279225736856461e-05
-0.0053434409201145
-0.0106225311756134
-0.015385472215712
-0.0192065313458442
-0.0217609293758869
-0.0228595919907093
-0.022467590868473
-0.0207035616040229
-0.0178160462528467
-0.0141405006870627
-0.0100516630336642
-0.0059251063503324
-0.002104939892888
0.0011312747374176
0.0036042183637619
0.0052491901442408
0.0061143282800912
0.0063431225717067
0.0061447015032172
0.0057579958811402
0.0054145604372024
0.005300841294229
0.0055238241329789
0.0060862880200147
0.0068779801949858
0.0076902210712432
0.0082493843510746
0.0082575380802154
0.0074415691196918
0.0056108832359313
0.0027074068784713
-0.0011691004037857
-0.0057666338980197
-0.0107137858867645
-0.015569201670587
-0.0198792330920696
-0.0232390146702528
-0.0253471415489912
-0.0260427687317132
-0.0253204144537448
-0.0233203209936618
-0.020296873524785
-0.0165789686143398
-0.0125343985855579
-0.0085334423929452
-0.0049056764692068
-0.0018992340192198
0.0003462275490164
0.0018084365874528
0.0025713164359331
0.0027986736968159
0.0027022985741496
0.0025101788341999
0.002437075600028
0.0026546232402324
0.0032586902379989
0.0042450772598385
0.0055060274899005
0.0068415692076087
0.0079784663394093
0.0086058601737022
0.0084314858540892
0.0072448179125785
0.0049680359661579
0.0016804737970232
-0.0023871967568993
-0.0068848188966512
-0.0113918371498584
-0.0154749331995844
-0.0187466293573379
-0.020911443978548
-0.021792434155941
-0.0213444344699382
-0.0196552798151969
-0.0169324316084384
-0.0134786088019609
-0.0096566351130604
-0.0058415327221155
-0.0023674312978982
0.0005170437507331
0.0026762224733829
0.00409497320652
0.0048659555613994
0.0051606390625238
0.0051934113726019
0.0051849205046892
0.0053283302113413
0.0057654120028018
0.0065719662234187
0.0077452026307582
0.0091921398416161
0.0107256695628166
0.0120801096782088
0.0129522327333688
0.0130574908107519
0.0121841561049222
0.0102353692054748
0.0072551611810922
0.0034322491846978
-0.0009220046922564
-0.0054153869859874
-0.0096273366361856
-0.0131649412214756
-0.0157132856547832
-0.0170701891183853
-0.0171607080847024
-0.0160372927784919
-0.0138733908534049
-0.0109443003311753
-0.0075884656980633
-0.004158619325608
-0.0009745809948071
0.0017162394942715
0.0037652286700904
0.0051320204511284
0.005876894108951
0.0061416393145918
0.006124104373157
0.0060457699000835
0.0061158644966781
0.0065025277435779
0.0073142801411449
0.0085828686133027
0.010243346914649
0.0121250189840793
0.0139675419777631
0.0154598737135529
0.0162929650396108
0.0162164568901062
0.0150860669091343
0.0128914816305041
0.0097621195018291
0.0059519079513847
0.0018056207336485
-0.0022861268371343
-0.0059323622845113
-0.0087817553430795
-0.0105581171810626
-0.0110945804044604
-0.0103620924055576
-0.0084762275218963
-0.005675546824932
-0.0022819046862423
0.0013488617260009
0.0048778126947581
0.0080207847058773
0.0105705112218856
0.0124112591147422
0.0135234305635094
0.0139729809015989
0.0138907730579376
0.0134484861046075
0.0128360083326697
0.012241268530488
0.0118244225159287
0.0116821797564625
0.0118167018517851
0.0121277794241905
0.0124298781156539
0.0124836675822734
0.0120324157178401
0.010840686969459
0.0087375855073332
0.0056560169905424
0.0016523329541087
-0.0030943043529987
-0.0082950666546821
-0.013578513637185
-0.0185332186520099
-0.0227574612945318
-0.025909150019288
-0.0277542266994714
-0.0282011590898036
-0.0273068603128194
-0.0252563171088695
-0.0223274249583482
-0.01885218732059
-0.0151787409558892
-0.011631341651082
-0.0084725618362426
-0.0058785420842468
-0.0039318283088505
-0.002626831177622
-0.0018808739259839
-0.0015490173827856
-0.001444588182494
-0.0013705005403608
-0.0011593187227845
-0.0007063946686685
1.019914634525776e-05
0.0009183138608932
0.001854522852227
0.0025866611395031
0.002849371638149
0.0023860759101808
0.0009974273853003
-0.0014114927034825
-0.004802368581295
-0.0089988065883517
-0.0137007804587483
-0.0185162760317325
-0.0230069514364004
-0.0267444122582674
-0.0293699242174625
-0.0306401532143354
-0.0304494053125381
-0.02883374504745
-0.025960462167859
-0.0221043098717927
-0.017613336443901
-0.0128643400967121
-0.0082147950306534
-0.0039639407768845
-0.0003263931721448
0.002583279274404
0.0047527365386486
0.0062626991420984
0.0072712306864559
0.0079854615032672
0.0086176712065935
0.009343066252768
0.0102724321186542
0.0114336479455232
0.0127582401037216
0.0140784932300448
0.0151424892246723
0.0156519562005996
0.0153192514553666
0.0139282792806625
0.0113814044743776
0.0077243596315383
0.0031497860327363
-0.0020170509815216
-0.0073479041457176
-0.0123612768948078
-0.0165906008332967
-0.0196481849998235
-0.0212657172232866
-0.0213167183101177
-0.0198284666985273
-0.0169763322919607
-0.0130565874278545
-0.0084466934204101
-0.0035596173256635
0.0012079272419214
0.0055261924862861
0.0091667678207159
0.0120150726288557
0.0140700573101639
0.0154371047392487
0.0163059197366237
0.0169070586562156
0.0174624621868133
0.0181498862802982
0.0190799627453088
0.0202753022313117
0.0216523464769125
0.0230163522064685
0.0240800697356462
0.024508249014616
0.0239785891026258
0.0222462601959705
0.0191994067281484
0.0148933324962854
0.0095595121383667
0.0035899579524993
-0.0025093611329793
-0.008194413036108
-0.0129632148891687
-0.0164144616574049
-0.0182829797267913
-0.0184598546475172
-0.0169967040419578
-0.0140922926366329
-0.0100643411278724
-0.0053094811737537
-0.0002545528113842
0.004694927483797
0.0091989301145076
0.0130132548511028
0.0160087533295154
0.0181797556579113
0.019632700830698
0.0205517672002315
0.0211562272161245
0.0216654110699892
0.0222710352391004
0.0231099855154752
0.024235701188445
0.0255921743810176
0.0269999206066131
0.028165578842163
0.0287211760878562
0.0282873325049877
0.0265464410185813
0.0233114641159772
0.0185772106051445
0.012543655000627
0.0056027397513389
-0.0017129853367805
-0.0088052190840244
-0.0150881689041852
-0.0200575720518827
-0.023344287648797
-0.0247482471168041
-0.0242493040859699
-0.0219984110444784
-0.0182947814464569
-0.013549031689763
-0.0082355849444866
-0.002840818837285
0.0021920856088399
0.0065178861841559
0.0099303796887397
0.0123745836317539
0.0139271635562181
0.0147611973807215
0.0151115534827113
0.0152417039498686
0.0154095720499753
0.0158347729593515
0.0166667103767395
0.0179519541561603
0.0196066554635763
0.0214055813848972
0.0229972396045923
0.0239475294947624
0.0238094367086887
0.0222099386155605
0.0189338531345129
0.0139772156253457
0.0075565217994153
8.454662747681141e-05
-0.0078758271411061
-0.0156773924827575
-0.0226661786437034
-0.0282600969076156
-0.0320194587111473
-0.0336972288787364
-0.0332600325345993
-0.0308802686631679
-0.0269038565456867
-0.0217989757657051
-0.01609443500638
-0.0103147253394126
-0.0049170432612299
-0.0002436935901641
0.0034985947422683
0.0062390509992837
0.0080333510413765
0.0090444814413785
0.0095134414732456
0.0097234761342406
0.0099609578028321
0.0104763451963663
0.0114510795101523
0.0129718072712421
0.0150085249915719
0.0173991397023201
0.0198491159826517
0.0219550151377916
0.0232556872069835
0.0233025103807449
0.0217326879501342
0.0183364879339933
0.0131116267293691
0.0062894476577639
-0.0016805538907647
-0.0101848039776086
-0.0185233950614929
-0.0259965993463993
-0.0319890938699245
-0.0360415913164615
-0.0379007086157798
-0.0375411845743656
-0.0351572558283805
-0.0311234556138515
-0.0259331036359071
-0.0201319996267557
-0.0142601933330297
-0.0087994271889328
-0.0041240048594772
-0.000464373268187
0.0021060276776552
0.0036587687209248
0.0043810904026031
0.0045400205999612
0.0044449735432863
0.0044081788510084
0.0047043273225426
0.0055357627570629
0.0070099011063575
0.0091313244774937
0.0118023436516523
0.0148187270388007
0.0178604684770107
0.0205014180392026
0.0222575329244136
0.0226644147187471
0.0213589388877153
0.0181474070996046
0.0130515191704034
0.0063223913311958
-0.0015810057520866
-0.0100427791476249
-0.0183616504073143
-0.0258329696953296
-0.0318324193358421
-0.0358906239271163
-0.0377428382635116
-0.0373491384088993
-0.0348915308713912
-0.0307450778782367
-0.0254210960119962
-0.0194962155073881
-0.0135403349995613
-0.0080495607107877
-0.0033941660076379
0.0002089533954858
0.0026996824890375
0.0041605019941926
0.0047904271632432
0.0048698168247938
0.0047177243977785
0.0046484135091304
0.0049346983432769
0.0057773515582084
0.0072806477546691
0.0094415349885821
0.0121533842757344
0.0152153689414262
0.0183420926332473
0.0211782921105623
0.0233249962329864
0.0243786424398422
0.0239845085889101
0.0218997988849878
0.0180496629327535
0.0125600099563598
0.0057588219642639
-0.0018544923514127
-0.0096641927957534
-0.0170110128819942
-0.0232765600085258
-0.0279625356197357
-0.030746404081583
-0.0315090976655483
-0.0303366966545581
-0.0274963825941085
-0.023392129689455
-0.018509455025196
-0.0133547522127628
-0.0083967065438628
-0.0040196860209107
-0.0004904754459857
0.0020622126758098
0.0036515593528747
0.0044178161770105
0.0045924093574285
0.0044468790292739
0.0042482186108827
0.0042314603924751
0.0045821946114301
0.0054248124361038
0.0068151280283927
0.0087346043437719
0.0110878460109233
0.0137036647647619
0.0163368768990039
0.0186747461557388
0.0203576628118753
0.0210203900933265
0.0203522332012653
0.0181636773049831
0.0144360866397619
0.009335970506072
0.0031969305127859
-0.0035179406404495
-0.0102665349841117
-0.0164860170334577
-0.0216545816510915
-0.0253543201833963
-0.0273234415799379
-0.0274724662303924
-0.0258438847959041
-0.022526167333126
-0.0175717938691377
-0.0109769366681575
-0.0027406811714172
0.0070281457155942
0.0180062428116798
0.029597233980894
0.0409501940011978
0.051057007163763
0.0588959455490112
0.0635797157883644
0.0644786208868026
0.0613027885556221
0.0541370064020156
0.0434298031032085
0.029946245253086
0.0146953165531158
-0.0011638961732387
-0.0164389982819557
-0.0300320759415626
-0.0410480946302413
-0.0488688126206398
-0.0532062463462352
-0.0541380494832992
-0.0520951002836227
-0.0477788746356964
-0.0420245006680488
-0.0356457754969596
-0.0292993523180484
-0.023410266265273
-0.0181862413883209
-0.01368373259902
-0.0098283253610134
-0.0063336305320262
-0.0025924798101186
0.0023218020796775
0.0094884689897298
0.0198790729045867
0.0341241657733917
0.0523778200149536
0.074277676641941
0.0989701673388481
0.1251858174800872
0.1513659209012985
0.1758315861225128
0.1969664245843887
0.2133838534355163
0.2240634113550186
0.2284465879201889
0.2264824509620666
0.2186186164617538
0.205742597579956
0.1890790462493896
0.1700403392314911
0.1500385403633117
0.1302967518568039
0.1117043048143386
0.0947401225566864
0.0794730186462402
0.0656315684318542
0.0527165383100509
0.0401262640953063
0.0272769629955291
0.0137020796537399
-0.0008829683065414
-0.0165553092956542
-0.033192753791809
-0.0505068898200988
-0.0680938065052032
-0.0854998677968978
-0.102297656238079
-0.1181535348296165
-0.1328635811805725
-0.1463509202003479
-0.1586357057094574
-0.1697920113801956
-0.1799046695232391
-0.1890381127595901
-0.1972206830978393
-0.2044387906789779
-0.2106401771306991
-0.2157507091760635
-0.2197006493806839
-0.2224456369876861
-0.2239732444286346
-0.2243050783872604
-0.2235054671764373
-0.221688836812973
-0.2190188765525818
-0.2157040536403656
-0.2119921147823333
-0.2081609368324279
-0.2045021504163742
-0.2012906223535537
-0.1987403780221939
-0.196957379579544
-0.1959015429019928
-0.1953710615634918
-0.1950182765722274
-0.1943918168544769
-0.1929945200681686
-0.1903524696826934
-0.1860880255699157
-0.1799776554107666
-0.1719754934310913
-0.1622008830308914
-0.1509061157703399
-0.1384396106004715
-0.1252060383558273
-0.1116231083869934
-0.0980809703469276
-0.0849098786711692
-0.0723568201065063
-0.0605701804161071
-0.0495924241840839
-0.0393620729446411
-0.0297263488173484
-0.0204718559980392
-0.0113778710365295
-0.0022680386900901
0.0069681107997894
0.0163760483264923
0.0259373039007186
0.0355637818574905
0.0450905114412307
0.0542764365673065
0.0628207325935363
0.0703967958688736
0.0767023265361785
0.0815178826451301
0.084758348762989
0.0865021869540214
0.0869923532009124
0.086606279015541
0.0858005806803703
0.0850491300225257
0.0847885012626648
0.0853742510080337
0.0870507881045341
0.0899350568652153
0.0940113440155983
0.0991365239024162
0.1050580963492393
0.1114468052983284
0.1179391220211982
0.1241811886429786
0.1298691183328628
0.1347837597131729
0.1388133466243744
0.1419535279273986
0.1442830860614776
0.1459323167800903
0.147061288356781
0.1478440165519714
0.1484491825103759
0.1490183174610138
0.1496470421552658
0.1503713279962539
0.1511545479297638
0.1518733501434326
0.1523099243640899
0.1521644592285156
0.1510974317789077
0.1487953960895538
0.145039364695549
0.1397529542446136
0.1330195367336273
0.1250769644975662
0.1162987947463989
0.1071581467986106
0.0981740057468414
0.0898505970835685
0.0826185122132301
0.0767850130796432
0.0725042521953582
0.0697708874940872
0.0684308409690857
0.0682053864002227
0.0687293484807014
0.069601222872734
0.070437341928482
0.0709171891212463
0.07080939412117
0.0699796229600906
0.0683900862932205
0.0660953894257545
0.0632315501570701
0.059994101524353
0.0566075816750526
0.0532931350171566
0.0502383895218372
0.0475723296403884
0.0453475303947925
0.043525218963623
0.0419605523347854
0.0404006466269493
0.038509115576744
0.0359104722738266
0.0322417169809341
0.0272120889276266
0.0206689946353435
0.012648981064558
0.0033928770571947
-0.0066764280200004
-0.0170037243515253
-0.0269702654331922
-0.0359733551740646
-0.043501853942871
-0.0491939894855022
-0.052874818444252
-0.0545702129602432
-0.0544893778860569
-0.0529780276119709
-0.0504629760980606
-0.0474065765738487
-0.0442634299397468
-0.0414295904338359
-0.0391975045204162
-0.0377321988344192
-0.0370676815509796
-0.037116665393114
-0.0376928448677063
-0.0385458767414093
-0.0394023805856704
-0.0400045439600944
-0.0401423797011375
-0.0396810434758663
-0.0385868288576602
-0.0369479730725288
-0.03498500213027
-0.0330482348799705
-0.0315882228314876
-0.0310879331082105
-0.0319735035300254
-0.0345319285988807
-0.0388513170182704
-0.0447893962264061
-0.0519783198833465
-0.0598675832152366
-0.0677920952439308
-0.0750541090965271
-0.0810114592313766
-0.0851565077900886
-0.0871687680482864
-0.0869346931576728
-0.0845453515648841
-0.0802827626466751
-0.0745868906378746
-0.067997395992279
-0.0610809959471225
-0.0543600246310234
-0.04825409501791
-0.0430397130548954
-0.0388299748301506
-0.0355778262019157
-0.0331019051373004
-0.0311282388865947
-0.0293395146727561
-0.0274239256978034
-0.0251158885657787
-0.0222252663224935
-0.0186621509492397
-0.0144651196897029
-0.0098264152184128
-0.0050954176113009
-0.0007480513304471
0.002673945389688
0.0046453392133116
0.0047529814764857
0.0027827732264995
-0.0012295735068619
-0.0069929920136928
-0.0139920515939593
-0.0215441118925809
-0.0288770515471696
-0.035220880061388
-0.039899855852127
-0.0424140840768814
-0.0425019413232803
-0.04016675055027
-0.0356584712862968
-0.0294229947030544
-0.0220357235521078
-0.0141275869682431
-0.0063106259331107
0.0008888849988579
0.0070827561430633
0.0120510449633002
0.0157474391162395
0.0182828716933727
0.0198912657797336
0.0208849087357521
0.0216076616197824
0.0223856903612613
0.0234767347574234
0.0250316597521305
0.0270758233964443
0.0294997151941061
0.0320538394153118
0.0343585163354873
0.0359390974044799
0.0362912118434906
0.0349700897932052
0.0316828154027462
0.026361096650362
0.019199127331376
0.0106467939913272
0.0013615051284432
-0.0078696813434362
-0.0162312574684619
-0.0229904800653457
-0.0275900438427925
-0.0297054983675479
-0.0292683392763137
-0.0264567490667104
-0.0216606184840202
-0.0154281612485647
-0.0083954986184835
-0.0012081004679203
0.0055522304028272
0.0114281214773654
0.0161282662302255
0.0195444524288177
0.0217454526573419
0.0229493994265794
0.0234749484807252
0.0236776378005743
0.0238895397633314
0.0243782810866832
0.0253189783543348
0.0267640519887208
0.0286120921373367
0.0305919926613569
0.032279685139656
0.0331532917916774
0.032679446041584
0.03041522949934
0.0261036567389965
0.0197406206279993
0.0116008669137954
0.0022203037515282
-0.0076654460281133
-0.0172198675572872
-0.0256184861063957
-0.0321501940488815
-0.0362967625260353
-0.0377864316105842
-0.0366160720586776
-0.0330390930175781
-0.0275204554200172
-0.0206687096506357
-0.0131589043885469
-0.0056527368724346
0.0012798365205526
0.0072237448766827
0.0119518600404262
0.0154278557747602
0.0177845507860183
0.0192792452871799
0.0202369447797536
0.0209981929510831
0.0218768808990716
0.0231226533651351
0.0248787216842174
0.0271341353654861
0.0296880044043064
0.0321502946317195
0.03399034217
0.0346233360469341
0.0335155799984931
0.0302907023578882
0.024818267673254
0.0172652080655097
0.0080933375284075
-0.0019991784356534
-0.0121721932664513
-0.0215515568852424
-0.029336791485548
-0.0348938331007957
-0.0378221943974494
-0.0379911288619041
-0.035540897399187
-0.0308518633246421
-0.0244894847273826
-0.0171321183443069
-0.0094866575673222
-0.0021992838010191
0.0042253150604665
0.0094778584316372
0.0134561378508806
0.0162372216582298
0.0180331543087959
0.0191453471779823
0.0199161954224109
0.0206807106733322
0.0217235777527093
0.0232379920780658
0.0252816639840602
0.0277359392493963
0.0302875656634569
0.0324526913464069
0.0336454920470714
0.0332799069583416
0.0308876223862171
0.0262270774692296
0.0193478614091873
0.0105906752869486
0.0005409782752394
-0.0100391451269388
-0.0202970895916223
-0.0293910764157772
-0.0365906804800033
-0.0413588061928749
-0.0434053391218185
-0.0427090302109718
-0.0395083725452423
-0.0342638045549392
-0.0275937318801879
-0.0201916806399822
-0.0127351637929677
-0.005800453480333
0.0001950208097696
0.0050147231668233
0.0086038978770375
0.0110740549862384
0.0126652233302593
0.0136943403631448
0.0145037360489368
0.0154154235497117
0.0166902504861354
0.0184863526374101
0.0208153054118156
0.0235075205564498
0.0262060575187206
0.0284030027687549
0.0295187178999185
0.0290088430047035
0.026470074430108
0.0217167492955923
0.0148246400058269
0.0061468910425901
-0.0037101730704307
-0.0139581663534045
-0.0237270034849643
-0.0321735739707946
-0.0385855957865715
-0.0424679592251777
-0.0435978397727012
-0.0420397333800792
-0.0381207391619682
-0.032373234629631
-0.0254548825323581
-0.0180580411106348
-0.0108261248096823
-0.0042921155691146
0.0011634714901447
0.0053413659334182
0.0082308892160654
0.0099895112216472
0.0109011456370353
0.0113219413906335
0.0116209704428911
0.0121252667158842
0.0130778271704912
0.0146097503602504
0.0167192928493022
0.0192524269223213
0.0218945648521184
0.0241906363517045
0.0255990251898765
0.0255741812288761
0.0236661843955516
0.0196136143058538
0.0134065095335245
0.0053116492927074
-0.0041430667042732
-0.0142285693436861
-0.0241093598306179
-0.032953105866909
-0.0400360003113746
-0.0448269359767437
-0.0470406785607337
-0.0466569438576698
-0.0439033322036266
-0.0392069444060325
-0.0331309735774993
-0.0263099074363708
-0.0193806197494268
-0.0129080722108483
-0.0073217302560806
-0.0028792042285203
0.0003422386944293
0.002435315400362
0.0036350227892398
0.0042698681354522
0.0046999584883451
0.0052592232823371
0.0062141492962837
0.0077385082840919
0.0098975989967584
0.01263696141541
0.0157690420746803
0.0189609713852405
0.021747313439846
0.0235853251069784
0.0239414572715759
0.022387322038412
0.0186859909445047
0.0128485430032014
0.0051484890282154
-0.0039042774587869
-0.0136209800839424
-0.0232149176299572
-0.0318961441516876
-0.0389630272984504
-0.043877325952053
-0.0463187284767627
-0.0462160743772983
-0.0437514334917068
-0.0393308699131011
-0.0335198193788528
-0.0269580110907554
-0.0202755071222782
-0.0140202669426798
-0.0086015528067946
-0.004256822168827
-0.0010475274175405
0.0011204965412616
0.0024624280631542
0.0032736379653215
0.0038856454193592
0.004621391184628
0.005755259655416
0.0074792159721255
0.0098749781027436
0.0128988120704889
0.0163784995675086
0.0200163386762142
0.0234036315232515
0.0260554533451795
0.0274694487452507
0.0272043980658054
0.0249601863324642
0.0206377226859331
0.0143692437559366
0.0065192058682441
-0.0023457827046513
-0.0115193054080009
-0.0202395282685756
-0.02778235450387
-0.0335534773766994
-0.0371593683958053
-0.0384383276104927
-0.0374560840427875
-0.0344795733690261
-0.0299346838146448
-0.0243502780795097
-0.0182914957404136
-0.0122903632000088
-0.0067870067432522
-0.002089959103614
0.0016423959750682
0.0044006910175085
0.0063095050863921
0.0076005011796951
0.0085681993514299
0.0095133138820528
0.0106941387057304
0.0122971208766102
0.0144226690754294
0.0170823000371456
0.0202007871121168
0.0236123949289321
0.0270511675626039
0.0301496684551239
0.0324611291289329
0.033512033522129
0.0328799486160278
0.0302778147161006
0.0256230626255273
0.0190757866948843
0.0110347084701061
0.0020887344144284
-0.00706129334867
-0.0156870931386947
-0.0231119152158498
-0.0287829227745533
-0.0323282927274704
-0.0335885696113109
-0.0326222255825996
-0.029688311740756
-0.0252072904258966
-0.0197032783180475
-0.0137367080897092
-0.0078396098688244
-0.0024580620229244
0.0020973836071789
0.0056789307855069
0.0082935132086277
0.0100716687738895
0.0112311523407697
0.0120392367243766
0.0127743827179074
0.013690834864974
0.0149881327524781
0.0167875327169895
0.0191190019249916
0.0219157747924327
0.0250072032213211
0.0281134266406297
0.0308571010828018
0.0327991992235183
0.0334953479468822
0.0325621217489242
0.0297421608120203
0.0249616131186485
0.0183674581348896
0.0103309629485011
0.0014153374359011
-0.0076874778605997
-0.0162403620779514
-0.0235499031841754
-0.0290488619357347
-0.0323608219623565
-0.0333358235657215
-0.0320556722581386
-0.0288131553679704
-0.0240638721734285
-0.0183553099632263
-0.0122543182224035
-0.0062896218150854
-0.0009058876894414
0.0035772861447185
0.0069954046048223
0.0093467850238084
0.0107727693393826
0.0115159647539258
0.0118705462664365
0.0121350521221756
0.0125732822343707
0.0133887138217687
0.014708749949932
0.0165702644735574
0.0189067032188177
0.0215415116399526
0.0241888258606195
0.0264623202383518
0.0279030296951532
0.0280397292226552
0.0264740884304046
0.0229626763612031
0.0174748301506042
0.0102203041315078
0.0016417270526289
-0.0076311961747705
-0.0168574377894401
-0.0252764374017715
-0.0322025865316391
-0.0371081195771694
-0.0396802239120006
-0.0398436933755874
-0.0377538949251174
-0.0337710604071617
-0.0284164045006036
-0.0223063118755817
-0.0160716120153665
-0.0102776633575558
-0.0053602871485054
-0.0015863142907619
0.0009584643994458
0.0023548095487058
0.0028152975719422
0.0026396857574582
0.0021700311917811
0.0017496425425633
0.0016841483302414
0.0022049827966839
0.0034372233785688
0.0053712930530309
0.0078401546925306
0.0105114290490746
0.0129099041223526
0.0144769372418522
0.0146566294133663
0.0129932267591357
0.0092216245830059
0.0033289450220763
-0.0044264066964387
-0.0135366087779402
-0.0233005601912736
-0.0329087153077125
-0.041541714221239
-0.0484611764550209
-0.0530891641974449
-0.0550798773765563
-0.0543632432818412
-0.0511395782232284
-0.0458335354924202
-0.0390252657234668
-0.0313714072108268
-0.0235275439918041
-0.0160787161439657
-0.0094797629863023
-0.0040126852691173
0.0002281200140714
0.0033212788403034
0.0054838825017213
0.0070291217416524
0.0083225481212139
0.009731862694025
0.0115687297657132
0.014038654975593
0.0172121673822402
0.0210104249417781
0.0251940228044986
0.0293606836348772
0.0329706743359565
0.0354098677635192
0.0360832884907722
0.0345211178064346
0.0304746627807617
0.0239814519882202
0.015383974649012
0.0052992403507232
-0.0054507683962583
-0.0159397982060909
-0.0252579357475042
-0.0326239988207817
-0.0374686941504478
-0.0394865199923515
-0.0386541970074176
-0.0352150164544582
-0.0296336151659488
-0.0225280672311782
-0.0145898200571537
-0.0065005980432033
0.0011444464325904
0.0078957639634609
0.0134847126901149
0.0178363751620054
0.0210598334670066
0.0234099309891462
0.0252226553857326
0.0268477648496627
0.0285998694598674
0.0307259317487478
0.0333798304200172
0.0365978702902793
0.0402711927890777
0.0441218987107276
0.0477005988359451
0.0504203476011753
0.0516316182911396
0.0507307983934879
0.0472805500030517
0.0411142520606517
0.0323999524116516
0.0216418970376253
0.0096151567995548
-0.0027412176132202
-0.0144419036805629
-0.0245673283934593
-0.0323593020439147
-0.0372941493988037
-0.0391313135623931
-0.0379291027784347
-0.0340212807059288
-0.0279610566794872
-0.0204444229602813
-0.0122247450053691
-0.0040269307792186
0.0035334546118974
0.0100154262036085
0.0151883009821176
0.0190310627222061
0.0217011664062738
0.0234867762774229
0.0247530527412891
0.0258863009512424
0.0272397361695766
0.0290883891284465
0.0315972380340099
0.0347954593598842
0.0385477393865585
0.04252839833498
0.0462191775441169
0.048951081931591
0.0499970391392707
0.0487032160162925
0.0446240678429603
0.0376188680529594
0.0278917886316776
0.01598153822124
0.0027078078128397
-0.0109198037534952
-0.0238187126815319
-0.0349615365266799
-0.0434989519417285
-0.0488557517528533
-0.050784770399332
-0.0493766963481903
-0.0450283624231815
-0.0383758470416069
-0.0302037522196769
-0.0213413555175066
-0.0125623308122158
-0.0045091062784194
0.0023539518006145
0.0077671743929386
0.0116844056174159
0.0142590580508112
0.0158038884401321
0.0167298279702663
0.017477236688137
0.0184514075517654
0.0199692789465188
0.0222226493060588
0.0252582244575023
0.0289661027491092
0.0330697372555732
0.0371243841946125
0.0405368693172931
0.0426166839897632
0.0426672659814357
0.040110882371664
0.0346156954765319
0.0261862426996231
0.0151925003156065
0.0023368708789348
-0.0114270634949207
-0.0250093005597591
-0.037316083908081
-0.0473822355270385
-0.0544824078679084
-0.0582030341029167
-0.058469645678997
-0.0555330999195575
-0.0499201938509941
-0.042359359562397
-0.0336904563009738
-0.0247630253434181
-0.0163347087800502
-0.0089886710047721
-0.0030832542106509
0.0012609735131263
0.00413996912539
0.0058232136070728
0.0066983941942453
0.0072076767683029
0.0077839419245719
0.0087957475334405
0.0105066187679767
0.0130527038127183
0.0164328180253505
0.0204978715628385
0.0249380711466074
0.0292819552123546
0.0329244211316108
0.0351894125342369
0.0354213640093803
0.0330927520990371
0.0279064606875181
0.0198699291795492
0.0093254223465919
-0.0030715987086296
-0.016423201188445
-0.029693953692913
-0.041831225156784
-0.0518852844834327
-0.0591177232563495
-0.0630852878093719
-0.0636817812919616
-0.061127558350563
-0.0559163615107536
-0.0487395450472831
-0.0403984040021896
-0.0317074991762638
-0.023398520424962
-0.0160414930433034
-0.0099982703104615
-0.0054107345640659
-0.0022153612226247
-0.0001786481589078
0.0010522287338972
0.0018941722810268
0.0027694031596183
0.0040407534688711
0.0059590525925159
0.0086419284343719
0.0120785143226385
0.0161437317728996
0.0206061676144599
0.0251216925680637
0.0292286034673452
0.0323691628873348
0.0339459553360939
0.0334069021046161
0.030345207080245
0.0245919302105903
0.0162762906402349
0.0058385450392961
-0.0060081183910369
-0.0183624662458896
-0.0302475728094577
-0.0407250113785266
-0.0489970445632934
-0.0544879287481308
-0.0568967461585998
-0.0562187433242797
-0.0527316927909851
