bvp
-0.0022162226960062
0.0010329959914088
0.0034492276608943
0.0051653822883963
0.0063516795635223
0.0071998881176114
0.0079006729647517
0.0086230691522359
0.0094991913065314
0.0106118163093924
0.0119869587942957
0.0135869830846786
0.015293451026082
0.0168887469917535
0.0180635899305343
0.0184615943580865
0.0177435521036386
0.0156470015645027
0.012032737955451
0.0069211516529321
0.0005118455737829
-0.0068252347409725
-0.0145874237641692
-0.0221955087035894
-0.0290554538369178
-0.0346187502145767
-0.0384410731494426
-0.0402318760752677
-0.0398816987872123
-0.0374627560377121
-0.0332084894180297
-0.0274802856147289
-0.0207290798425674
-0.0134555716067552
-0.006164307706058
0.0006903745234012
0.0067546973004937
0.0118067245930433
0.0157636627554893
0.0186695978045463
0.0206686351448297
0.0219679623842239
0.0227994676679372
0.0233886484056711
0.0239321123808622
0.0245808213949203
0.025430480018258
0.0265208724886178
0.027831906452775
0.0292657501995563
0.0306278876960277
0.0316220447421073
0.0318644568324089
0.0309265814721584
0.0284065771847963
0.0240116957575082
0.0176271442323923
0.0093524232506752
-0.0004984475672245
-0.011424271389842
-0.0227861497551202
-0.0338743776082992
-0.0439805686473846
-0.0524661242961883
-0.0588271841406822
-0.0627498626708984
-0.0641397759318351
-0.0631172358989715
-0.0599850937724113
-0.055179938673973
-0.0492133013904094
-0.0426118746399879
-0.0358659252524375
-0.0293885022401809
-0.0234876833856105
-0.0183532480150461
-0.0140555500984191
-0.0105566447600722
-0.007732386700809
-0.0053995517082512
-0.0033473288640379
-0.001372686587274
0.0006899805739521
0.0029520830139517
0.0054658995941281
0.0082289893180131
0.0111936964094638
0.0142729617655277
0.017335157841444
0.0201913211494684
0.0225863754749298
0.0242057796567678
0.0247079450637102
0.0237824991345405
0.0212147943675518
0.0169338509440422
0.0110295554623007
0.0037356822285801
-0.0046028867363929
-0.0135563677176833
-0.0226325839757919
-0.0313088744878768
-0.0390737913548946
-0.0454726666212081
-0.0501498281955719
-0.0528764650225639
-0.0535616315901279
-0.0522532016038894
-0.049128983169794
-0.0444749630987644
-0.0386508181691169
-0.0320472121238708
-0.0250499621033668
-0.0180202107876539
-0.0112788248807191
-0.0050817150622606
0.00040765106678
0.0051295086741447
0.0091179050505161
0.0124804582446813
0.0153713570907711
0.0179595835506916
0.0204025357961654
0.0228303931653499
0.025339001789689
0.0279872417449951
0.0307928193360567
0.0337184816598892
0.0366405732929706
0.0393089316785335
0.0413347408175468
0.042236290872097
0.0415312945842742
0.0388386622071266
0.0339598283171653
0.0269282776862382
0.0180247128009796
0.0077580697834491
-0.0031804628670215
-0.0139842126518487
-0.0238152146339416
-0.031894214451313
-0.037581481039524
-0.0404340587556362
-0.0402350015938282
-0.0370078198611736
-0.0310165472328662
-0.0227340310811996
-0.0127785205841064
-0.0018408745527267
0.0093772262334823
0.0202125329524278
0.030086537823081
0.0385489389300346
0.0453082174062728
0.05024329200387
0.0533980317413806
0.0549623109400272
0.0552433878183364
0.0546302124857902
0.0535459220409393
0.0523878298699855
0.0514727123081684
0.0510068945586681
0.0510823801159858
0.0516828149557113
0.0526822730898857
0.0538376942276954
0.0547939091920852
0.0551170036196708
0.0543524585664272
0.0520948320627212
0.0480573587119579
0.0421277992427349
0.0344001986086368
0.0251796692609787
0.0149520682170987
0.0043189972639083
-0.006077735684812
-0.0156238796189427
-0.0237933378666639
-0.0301985815167427
-0.0346227400004863
-0.037030816078186
-0.0375601351261138
-0.0364925563335418
-0.0342139080166816
-0.0311677381396293
-0.027809839695692
-0.0245645903050899
-0.0217836126685142
-0.0197154618799686
-0.018497597426176
-0.0181692484766244
-0.0186888128519058
-0.0199432894587516
-0.021752942353487
-0.0238784365355968
-0.0260351933538913
-0.0279211066663265
-0.0292546264827251
-0.0298070162534713
-0.0294244065880775
-0.0280553363263607
-0.0257908254861831
-0.0229009427130222
-0.019841156899929
-0.0172083228826522
-0.0156547874212265
-0.015788909047842
-0.0180774256587028
-0.022757600992918
-0.0297761484980583
-0.0387733653187751
-0.0491178333759307
-0.0599810257554054
-0.0704358369112014
-0.0795647129416465
-0.0865621492266655
-0.0908185243606567
-0.0919780731201171
-0.0899654924869537
-0.0849756225943565
-0.0774258226156234
-0.0678874403238296
-0.0570172816514968
-0.0454917922616004
-0.0339421294629573
-0.0228971391916275
-0.0127433389425277
-0.0037076547741889
0.0041401088237762
0.0108706429600715
0.016667753458023
0.021792396903038
0.026540283113718
0.0311987735331058
0.036009170114994
0.0411383546888828
0.0466586016118526
0.0525224618613719
0.058523204177618
0.0642606690526008
0.0691507905721664
0.072497472167015
0.0736108869314193
0.0719371140003204
0.0671669617295265
0.0593064278364181
0.048701237887144
0.0360116772353649
0.0221425890922546
0.0081444457173347
-0.0048970580101013
-0.0159711614251136
-0.0242420732975006
-0.0291325002908706
-0.0303844735026359
-0.0280786082148551
-0.0225992053747177
-0.0145599022507667
-0.0047128424048423
0.006144031882286
0.0172525197267532
0.0279657989740371
0.0377975441515445
0.046441227197647
0.0537639297544956
0.0597859844565391
0.0646513774991035
0.0685891881585121
0.0718694254755973
0.0747562274336814
0.0774635225534439
0.0801273435354232
0.0828038305044174
0.0854854956269264
0.0881209075450897
0.0906224697828292
0.0928560048341751
0.0946223735809326
0.0956487208604812
0.095602348446846
0.0941307097673416
0.0909208729863166
0.0857645571231842
0.0786156952381134
0.0696291401982307
0.0591638796031475
0.0477456226944923
0.0360065959393978
0.024619810283184
0.0142324389889836
0.0054021473042666
-0.001453444128856
-0.006086457055062
-0.0084311664104461
-0.0086043169721961
-0.0068884054198861
-0.0036925943568348
0.0005002440884709
0.0051862467080354
0.0098884413018822
0.0141969546675682
0.0177888423204422
0.0204242896288633
0.0219397526234388
0.0222555957734584
0.0213929936289787
0.0194816775619983
0.0167460218071937
0.0134744495153427
0.0099802650511264
0.0065478831529617
0.0033592917025089
0.0004175081849098
-0.0024989508092403
-0.0058188997209072
-0.0100923031568527
-0.0158645361661911
-0.0235548689961433
-0.0333656370639801
-0.0452264249324798
-0.0587719678878784
-0.0733564347028732
-0.0881097912788391
-0.1020339727401733
-0.1141208112239837
-0.123471975326538
-0.1294074654579162
-0.1315450668334961
-0.1298334598541259
-0.1245371028780937
-0.11618322879076
-0.1054850295186042
-0.0932518392801284
-0.0802990645170211
-0.0673718601465225
-0.0550862625241279
-0.0438880324363708
-0.0340336002409458
-0.0255962330847978
-0.0184939093887805
-0.0125297456979751
-0.0074372328817844
-0.0029229931533336
0.0012987703084945
0.005478385835886
0.0098066627979278
0.0143992230296134
0.0192933827638626
0.0244485698640346
0.0297295562922954
0.0348692573606967
0.0394423156976699
0.0428823344409465
0.0445501171052455
0.0438400767743587
0.0403000190854072
0.0337336473166942
0.0242606550455093
0.0123257860541343
-0.0013406425714492
-0.0158061683177948
-0.0300489012151956
-0.0430770255625247
-0.0540356151759624
-0.062286227941513
-0.0674591436982154
-0.0694840401411056
-0.0685854852199554
-0.0652307048439979
-0.0600433573126792
-0.0537060983479023
-0.0468694642186164
-0.0400804728269577
-0.0337377935647964
-0.0280739963054656
-0.0231651198118925
-0.0189627557992935
-0.0153325479477643
-0.0120844580233097
-0.0089966431260108
-0.005840428173542
-0.002409778535366
0.0014440007507801
0.0057847537100315
0.0105829685926437
0.0157108772546052
0.0209221728146076
0.0258291438221931
0.0299113038927316
0.032576136291027
0.0332586988806724
0.0315252542495727
0.0271570142358541
0.0202065985649824
0.0110171940177679
0.0001998338848352
-0.0114217884838581
-0.0228988584131002
-0.0332760587334632
-0.0417124330997467
-0.0475727245211601
-0.050480630248785
-0.0503351241350173
-0.0472908951342105
-0.0417109727859497
-0.034104835242033
-0.0250612404197454
-0.0151831116527318
-0.0050323856994509
0.0049105379730463
0.0142737049609422
0.0228106584399938
0.0304037723690271
0.0370437838137149
0.0427903831005096
0.0477367527782917
0.0519919767975807
0.0556737221777439
0.058900061994791
0.0617783591151237
0.0643935576081276
0.0667979717254638
0.0690012425184249
0.0709557011723518
0.0725373551249504
0.0735286399722099
0.0736147761344909
0.0724097341299057
0.0695185214281082
0.0646199807524681
0.0575425550341606
0.0483180172741413
0.0372100248932838
0.024710688740015
0.0114974211901426
-0.0016445368528366
-0.0139159355312585
-0.0245975330471992
-0.0331324152648448
-0.0391819886863231
-0.0426446087658405
-0.043640524148941
-0.0424749888479709
-0.0395882353186607
-0.0354986786842346
-0.030749037861824
-0.0258635394275188
-0.0213108267635107
-0.0174619667232036
-0.0145474430173635
-0.0126315243542194
-0.0116222891956567
-0.0113163124769926
-0.0114528238773345
-0.0117549933493137
-0.011960856616497
-0.0118542518466711
-0.0112920105457305
-0.0102196354418993
-0.0086824540048837
-0.0068451967090368
-0.0050171613693237
-0.0036602355539798
-0.0033493321388959
-0.0046752952039241
-0.0081194806843996
-0.0139429634436964
-0.0221165902912616
-0.0322998613119125
-0.043867327272892
-0.0559770092368125
-0.0676707178354263
-0.0779903382062912
-0.0860910415649414
-0.091334655880928
-0.0933489501476287
-0.0920466259121894
-0.0876130983233451
-0.0804725289344787
-0.0712321549654007
-0.0606068708002567
-0.049332819879055
-0.0380837991833686
-0.0274051688611507
-0.0176723338663578
-0.009075965732336
-0.0016338322311639
0.0047752894461154
0.0103635983541607
0.0153829352930188
0.0200802441686391
0.0246680807322263
0.0293116457760334
0.0341197662055492
0.0391296446323394
0.0442891605198383
0.0494387224316597
0.0542938411235809
0.0584446601569652
0.0613932237029075
0.0626283138990402
0.0617172569036483
0.0583931356668472
0.052621379494667
0.0446330644190311
0.0349176749587059
0.0241770576685667
0.013249666430056
0.0030177049338817
-0.0056926887482404
-0.0122106466442346
-0.0160983614623546
-0.0171854980289936
-0.0155638623982667
-0.0115551967173814
-0.0056573320180177
0.0015216339379549
0.0093289036303758
0.0171294100582599
0.024365060031414
0.0306043103337287
0.0355744026601314
0.0391726046800613
0.0414583943784236
0.0426297448575496
0.0429795794188976
0.0428359843790531
0.0425074473023414
0.0422477982938289
0.042238637804985
0.0425800792872905
0.0432751253247261
0.04419806599617
0.0450605154037475
0.045408796519041
0.0446745976805686
0.0422697179019451
0.0376985110342502
0.0306625999510288
0.02113888412714
0.0094153201207518
-0.0039293887093663
-0.0181002095341682
-0.0321875214576721
-0.045268028974533
-0.0564963556826114
-0.0651867687702179
-0.0708800628781318
-0.0733870416879654
-0.0727986395359039
-0.0694576799869537
-0.0638987123966217
-0.0567720457911491
-0.0487676411867141
-0.0405448377132415
-0.032665804028511
-0.0255391672253608
-0.0193954929709434
-0.0143021997064352
-0.0101948995143175
-0.0069059506058692
-0.0041940864175558
-0.0017815120518207
0.0006066299974918
0.0032116007059812
0.0062214788049459
0.0097486190497875
0.0137878209352493
0.018163152039051
0.0224984493106603
0.0262439157813787
0.0287629887461662
0.0294536277651786
0.0278625786304473
0.0237641520798206
0.0172080975025892
0.0085447560995817
-0.0015890132635831
-0.012335829436779
-0.0227224417030811
-0.0317813381552696
-0.0386686660349369
-0.0427601300179958
-0.0437157079577446
-0.0415069311857223
-0.0363996736705303
-0.028897151350975
-0.0196580328047275
-0.0094055943191051
0.0011524856090545
0.0113831013441085
0.0207752753049135
0.0289813037961721
0.035836637020111
0.0413485281169414
0.0456638745963573
0.0490292347967624
0.0517464391887187
0.0541254207491874
0.0564407669007778
0.0588973611593246
0.0615994557738304
0.0645156651735305
0.0674483031034469
0.0700247585773468
0.0717189013957977
0.0719074159860611
0.0699678659439086
0.0654029622673988
0.0579536706209182
0.0476760528981685
0.0349717512726783
0.0205631218850612
0.0054146205075085
-0.0093826064839959
-0.0227420665323734
-0.0337099768221378
-0.0415705665946006
-0.0459112003445625
-0.0466410368680954
-0.0439691618084907
-0.0383568331599235
-0.0304582864046096
-0.0210503898561
-0.0109485117718577
-0.0009211488068103
0.0083822812885046
0.0164837166666984
0.0231014601886272
0.0281473398208618
0.03170682862401
0.0340075977146625
0.0353742688894271
0.036173440515995
0.0367611274123191
0.037442397326231
0.0384434163570404
0.039888247847557
0.0417712442576885
0.0439246967434883
0.0459967590868473
0.0474626868963241
0.0476852804422378
0.0460187867283821
0.0419305823743343
0.0351109206676483
0.0255472883582115
0.0135522112250328
-0.0002553202211856
-0.015011753886938
-0.0297074131667614
-0.0433040782809257
-0.0548502542078495
-0.0635849237442016
-0.0690249651670456
-0.0710144639015197
-0.0697183609008789
-0.0655737593770027
-0.0592195279896259
-0.0514091812074184
-0.0429126098752021
-0.034427385777235
-0.0265166498720645
-0.0195735767483711
-0.0138070974498987
-0.0092464555054903
-0.005765002220869
-0.0031200125813484
-0.0010006092488765
0.0009175352752208
0.0029140450060367
0.0051828622817993
0.0078253112733364
0.0108672864735126
0.0142775177955627
0.0179755389690399
0.0218326598405838
0.025668267160654
0.0292428657412529
0.0322552770376205
0.034352533519268
0.0351588279008865
0.0343263894319534
0.0316025279462337
0.0268986299633979
0.0203352905809879
0.0122410245239734
0.0031132139265537
-0.0064369179308414
-0.0157499983906745
-0.0241925939917564
-0.0312291234731674
-0.0364787690341472
-0.0397464931011199
-0.0410250052809715
-0.0404740571975708
-0.0383868664503097
-0.0351492837071418
-0.0311931520700454
-0.026949156075716
-0.022805992513895
-0.019081175327301
-0.0160070210695266
-0.0137248337268829
-0.0122779347002506
-0.011610560119152
-0.0115827582776546
-0.0119993239641189
-0.0126449353992939
-0.01331552490592
-0.0138402879238128
-0.0140997394919395
-0.0140448324382305
-0.0137165822088718
-0.0132625214755535
-0.0129396431148052
-0.0130934379994869
-0.0141168385744094
-0.0163987502455711
-0.0202618055045604
-0.0258927643299102
-0.03328338265419
-0.0421995185315609
-0.0521864593029022
-0.0626091063022613
-0.072720006108284
-0.081746868789196
-0.0889883637428283
-0.0939013510942459
-0.0961618274450302
-0.095689982175827
-0.0926363170146942
-0.0873350799083709
-0.0802491009235382
-0.071922019124031
-0.0629288554191589
-0.0538191944360733
-0.0450610741972923
-0.0369964875280857
-0.0298191793262958
-0.0235780291259288
-0.0182007439434528
-0.013531276024878
-0.0093724969774484
-0.0055220611393451
-0.0017947037704288
0.0019637141376733
0.0058630271814763
0.0099538285285234
0.0142039526253938
0.0184635892510414
0.0224409662187099
0.0257204119116067
0.0278270076960325
0.0283132772892713
0.0268463306128978
0.0232846736907959
0.0177298374474048
0.010537794791162
0.0022868532687425
-0.0062886644154787
-0.0143843926489353
-0.0212216489017009
-0.0261414032429456
-0.0286772269755601
-0.0285984240472316
-0.0259265713393688
-0.02091995626688
-0.0140189006924629
-0.0057658143341541
0.0032718367874622
0.012558463960886
0.0216300841420888
0.0301244240254163
0.0377985574305057
0.0445273667573928
0.0502857975661754
0.0551255345344543
0.059152502566576
0.0625079795718193
0.0653549879789352
0.0678617134690284
0.0701741129159927
0.0723892748355865
0.07454464584589
0.0766201838850975
0.0785377621650695
0.0801480859518051
0.081213966012001
0.0814112350344657
0.0803648978471756
0.0777167975902557
0.0732017904520034
0.0667145252227783
0.0583586692810058
0.0484666340053081
0.0375779569149017
0.0263752415776252
0.0155918784439563
0.0059201903641223
-0.0020606536418199
-0.0079401694238185
-0.0115163568407297
-0.012806287035346
-0.0120207834988832
-0.0095140524208545
-0.0057235304266214
-0.0011114701628684
0.0038807094097137
0.0088641224429011
0.013527707196772
0.0176572334021329
0.0211431384086608
0.023969791829586
0.026185842230916
0.0278745107352733
0.0291353650391101
0.0300719104707241
0.0307829193770885
0.0313588827848434
0.0318769700825214
0.0323784798383712
0.0328226462006568
0.0330378338694572
0.0327003598213195
0.0313568636775016
0.0284937806427478
0.023645557463169
0.0165122542530298
0.0070455567911267
-0.0045194081030786
-0.0176781192421913
-0.0317009463906288
-0.0457049012184143
-0.0587533712387084
-0.069972425699234
-0.078658178448677
-0.0843516141176223
-0.0868761613965034
-0.0863422974944114
-0.0831173658370971
-0.0777611136436462
-0.0709399282932281
-0.0633359029889106
-0.0555643625557422
-0.0481166392564773
-0.0413378849625587
-0.0354262478649616
-0.0304356832057237
-0.0262880362570285
-0.0228017289191484
-0.0197280123829841
-0.0167883709073066
-0.0137143274769186
-0.0102872233837842
-0.0063715232536196
-0.0019406350329518
0.0028964597731828
0.0078688552603125
0.0125430151820182
0.0163698401302099
0.0187672358006238
0.0192109383642673
0.0173232667148113
0.0129532208666205
0.0062268190085887
-0.002447897568345
-0.0124179366976022
-0.0228569880127906
-0.032862402498722
-0.0415597259998321
-0.0481973811984062
-0.0522207841277122
-0.053319051861763
-0.0514424405992031
-0.0467892065644264
-0.0397610999643802
-0.0309052318334579
-0.0208604298532009
-0.0102979205548763
0.0001513846218585
0.009964894503355
0.0187708716839551
0.026359599083662
0.0326724573969841
0.0377824380993843
0.0418694615364074
0.0451851561665535
0.0480094216763973
0.0506097003817558
0.0532086789608001
0.0559618882834911
0.0589412786066532
0.062109675258398
0.065280795097351
0.068091407418251
0.0700205340981483
0.0704622417688369
0.0688313245773315
0.0646734163165092
0.0577569156885147
0.0481367297470569
0.0361811965703964
0.0225482266396284
0.0081129726022481
-0.0061320699751377
-0.0191884543746709
-0.0301620978862047
-0.0383545942604541
-0.0433281809091568
-0.0449456349015235
-0.0433744117617607
-0.0390422269701957
-0.0325563251972198
-0.0246156454086303
-0.0159301813691854
-0.0071492083370685
0.0011953525245189
0.008724064566195
0.0152214616537094
0.0206254180520772
0.025001561269164
0.0285098329186439
0.0313693881034851
0.0338276401162147
0.0361265316605567
0.0384622141718864
0.0409575290977954
0.0436596907675266
0.0465499907732009
0.0495509840548038
0.0525226034224033
0.0552412793040275
0.0573729984462261
0.0584666095674037
0.0579877011477947
0.0553968511521816
0.0502554811537265
0.0423284955322742
0.0316587015986442
0.018600795418024
0.0038049351423978
-0.0118556711822748
-0.0273945331573486
-0.0418267995119094
-0.0542740449309349
-0.0640524625778198
-0.0707321837544441
-0.0741629302501678
-0.0744717046618461
-0.0720344558358192
-0.0674181282520294
-0.0612958595156669
-0.0543503388762474
-0.0471880286931991
-0.0402805730700492
-0.033934973180294
-0.0282928384840488
-0.0233591124415397
-0.0190453957766294
-0.0152090489864349
-0.0116830263286829
-0.0082989344373345
-0.0049078129231929
-0.001398591324687
0.0022938847541809
0.0061925603076815
0.0102841714397072
0.0145186958834528
0.0187976248562335
0.0229479223489761
0.0266920756548643
0.0296433605253696
0.0313402935862541
0.0313079729676246
0.0291368961334228
0.0245725866407156
0.0175954382866621
0.0084639824926853
-0.0022945664823055
-0.013943076133728
-0.0256235152482986
-0.0364594720304012
-0.0456593818962574
-0.0526024103164672
-0.0568960383534431
-0.0584033764898777
-0.0572362542152404
-0.0537161976099014
-0.0483166463673114
-0.0416002720594406
-0.0341553054749965
-0.0265311375260353
-0.0191838331520557
-0.0124435806646943
-0.006503271870315
-0.0014218622818589
0.0028606853447854
0.0065002022311091
0.0097197834402322
0.0127744786441326
0.0159073416143655
0.0193020235747098
0.0230458285659551
0.0271154344081878
0.031382218003273
0.0356289632618427
0.0395783856511116
0.0429307706654071
0.0453992784023284
0.0467328205704689
0.0467260256409645
0.0452240258455276
0.0421290099620819
0.0374120697379112
0.0311288833618164
0.0234320908784866
0.0145766641944646
0.0049186684191226
-0.0050955768674612
-0.0149560440331697
-0.0241380408406257
-0.0321688205003738
-0.0386846512556076
-0.0434553921222686
-0.0463812276721
-0.0474768504500389
-0.0468527786433696
-0.0446967110037803
-0.0412518456578254
-0.0367921441793441
-0.0316005088388919
-0.0259532071650028
-0.0201074965298175
-0.0142912436276674
-0.0086968196555972
-0.003477219492197
0.0012527042999863
0.0054016513749957
0.0088847894221544
0.0116232549771666
0.0135588124394416
0.0146704437211155
0.0149844335392117
0.0145786879584193
0.0135871563106775
0.0122020840644836
0.010659416206181
0.0091972770169377
0.007999706082046
0.0071513727307319
0.0066205328330397
0.0062687108293175
0.0058722738176584
0.0051522031426429
0.0038265008479356
0.0016821436583995
-0.0013636639341711
-0.0052342610433697
-0.0096950083971023
-0.0143796149641275
-0.0188385732471942
-0.022602304816246
-0.0252460055053234
-0.0264471434056758
-0.0260293968021869
-0.023983247578144
-0.0204566195607185
-0.0157189220190048
-0.0101164560765028
-0.0040363147854804
0.0021294015459716
0.0080271251499652
0.0133785959333181
0.0180006846785545
0.0218082107603549
0.0248014479875564
0.0270489249378442
0.0286716911941766
0.0298238359391689
0.0306711588054895
0.0313748084008693
0.0320782288908958
0.0328956916928291
0.0339046493172645
0.0351374521851539
0.0365662313997745
0.0380902588367462
0.0395383425056934
0.0406831428408622
0.0412599965929985
0.0409920886158943
0.0396236591041088
0.0369565933942794
0.03288584202528
0.0274287406355142
0.0207413528114557
0.0131156630814075
0.0049536488950252
-0.0032757222652435
-0.0110847819596529
-0.0180221293121576
-0.0237348489463329
-0.0280136112123727
-0.0307977516204118
-0.0321494676172733
-0.0322199650108814
-0.0312174241989851
-0.0293765217065811
-0.0269325245171785
-0.0241038277745246
-0.0210814010351896
-0.0180237330496311
-0.0150572806596755
-0.0122802965342998
-0.0097671225666999
-0.0075712632387876
-0.005731351673603
-0.0042818207293748
-0.0032564774155616
-0.0026771053671836
-0.0025365576148033
-0.0027888119220733
-0.0033517740666866
-0.0041225180029869
-0.0050011184066534
-0.0059184059500694
-0.0068604908883571
-0.0078814607113599
-0.0090979374945163
-0.0106653999537229
-0.0127430707216262
-0.0154537931084632
-0.0188495442271232
-0.0228959806263446
-0.0274714641273021
-0.0323693081736564
-0.0373106710612773
-0.0419761873781681
-0.0460457205772399
-0.049232542514801
-0.0513111650943756
-0.052140787243843
-0.0516772903501987
-0.0499686077237129
-0.0471404194831848
-0.0433795377612113
-0.0389111377298831
-0.0339685790240764
-0.0287708677351474
-0.0235156454145908
-0.0183757171034812
-0.0134924203157424
-0.0089682089164853
-0.004859768319875
-0.0011763771763071
0.0021139131858944
0.0050740884616971
0.0077848550863564
0.0103282239288091
0.0127719799056649
0.015157307498157
0.0174898505210876
0.0197355113923549
0.0218170434236526
0.0235990714281797
0.0248636789619922
0.0253061633557081
0.024574190378189
0.0223427973687648
0.0183982290327548
0.0127012860029935
0.0054177111014723
-0.0030806805007159
-0.0122438371181488
-0.0214029774069786
-0.0298557579517364
-0.036959484219551
-0.0422103404998779
-0.0452934801578521
-0.0461013875901699
-0.0447325035929679
-0.0414761453866958
-0.0367689058184623
-0.0311214849352836
-0.0250427611172199
-0.0189791452139616
-0.0132712014019489
-0.0081317014992237
-0.0036459676921367
0.0002134777605533
0.0035608783364295
0.0065596401691436
0.0093847326934337
0.0121947508305311
0.0151133332401514
0.0182232111692428
0.0215679947286844
0.0251475535333156
0.0289121884852647
0.032764196395874
0.0365519821643829
0.0400478057563304
0.0429309755563735
0.0448054447770118
0.0452571772038936
0.043933518230915
0.0406209304928779
0.0353007763624191
0.0281732343137264
0.0196504946798086
0.0103226862847805
0.0008995197713375
-0.0078724920749664
-0.015311200171709
-0.0208879858255386
-0.0242764726281166
-0.0253650173544883
-0.0242451094090938
-0.0211786925792694
-0.0165497697889804
-0.0108083486557006
-0.0044159442186355
0.0021975673735141
0.0086646378040313
0.0147026851773262
0.020127385854721
0.0248543117195367
0.0288930758833885
0.0323304198682308
0.0352953225374221
0.0379217863082885
0.040328249335289
0.0426086150109767
0.0448260828852653
0.0470120310783386
0.049171008169651
0.0512877441942691
0.0533295683562755
0.0552388504147529
0.0569189563393592
0.0582233853638172
0.0589568763971328
0.0588963031768798
0.0578278116881847
0.0555809773504734
0.0520510077476501
0.0472200661897659
0.041180845350027
0.0341486409306526
0.0264541320502758
0.0185201205313205
0.0108221052214503
0.0038311099633574
-0.0020488854497671
-0.006529051810503
-0.0094614941626787
-0.0108442949131131
-0.0108057493343949
-0.0095686158165335
-0.0074018547311425
-0.0045821471139788
-0.001381441950798
0.0019392305985093
0.0051496624946594
0.0080720158293843
0.0105891125276684
0.0126405349001288
0.0142118474468588
0.015319550409913
0.0159981790930032
0.0162968412041664
0.0162820536643266
0.0160380825400352
0.0156606435775756
0.0152462776750326
0.014879654161632
0.0146144451573491
0.0144454501569271
0.014283881522715
0.013953797519207
0.0132127106189727
0.0117882080376148
0.0094260983169078
0.0059425793588161
0.0012670662254095
-0.0045349039137363
-0.0112631283700466
-0.0186021290719509
-0.0261515732854604
-0.0334700979292392
-0.0401239395141601
-0.0457244701683521
-0.0499620661139488
-0.0526477470993995
-0.0537431836128234
-0.0533581934869289
-0.0517236366868019
-0.0491537451744079
-0.0460026189684867
-0.0426219403743743
-0.0393299385905265
-0.0363908782601356
-0.0339963138103485
-0.0322457030415535
-0.0311303474009037
-0.0305295158177614
-0.0302277654409408
-0.0299525000154972
-0.0294263362884521
-0.0284219905734062
-0.0267984177917242
-0.0245101507753133
-0.0216034725308418
-0.0182183161377906
-0.0146009810268878
-0.0111121889203786
-0.0082078492268919
-0.0063847778365015
-0.0061045438051223
-0.0077145090326666
-0.0113800913095474
-0.0170406866818666
-0.0243978798389434
-0.0329376012086868
-0.0419870913028717
-0.0507994554936885
-0.0586417689919471
-0.064868725836277
-0.0689820796251297
-0.0706740692257881
-0.0698472037911415
-0.0666113644838333
-0.0612615346908569
-0.0542349182069301
-0.0460525304079055
-0.0372558571398258
-0.0283483006060123
-0.0197508763521909
-0.0117747392505407
-0.0046078953891992
0.0016788952052593
0.0071048028767108
0.0117480466142296
0.0157288517802953
0.0192024335265159
0.0223479568958282
0.0253460556268692
0.0283512324094772
0.0314710848033428
0.034757912158966
0.0382108353078365
0.0417822301387786
0.0453833490610122
0.0488836467266082
0.0521014966070652
0.0548018850386142
0.0567150115966796
0.0575649142265319
0.0571007132530212
0.0551383420825004
0.0516079142689704
0.0465901866555213
0.0403296761214733
0.033216506242752
0.0257416497915983
0.0184412226080894
0.0118380347266793
0.0063825566321611
0.0024013388901948
6.612390279769897e-05
-0.0006063543260097
0.0002701468765735
0.0024793073534965
0.0057229548692703
0.0096465339884161
0.0138781936839222
0.0180727839469909
0.0219489894807338
0.0253122188150882
0.0280604548752307
0.0301778726279735
0.0317208208143711
0.0327951237559318
0.0335290431976318
0.0340507701039314
0.0344723314046859
0.0348787084221839
0.0353215038776397
0.0358121842145919
0.0363100729882717
0.036707554012537
0.0368176326155662
0.0363677814602851
0.0350121185183525
0.0323774851858615
0.0281363055109977
0.0220819916576147
0.014191866852343
0.0046674278564751
-0.0060610077343881
-0.017372190952301
-0.0285293906927108
-0.0387748703360557
-0.0474224835634231
-0.0539408177137374
-0.0580210201442241
-0.0596089214086532
-0.0588865391910076
-0.0562173388898372
-0.0520782247185707
-0.0469877831637859
-0.0414401888847351
-0.0358576700091362
-0.0305637046694755
-0.0257716476917266
-0.0215849354863166
-0.0180059671401977
-0.0149541124701499
-0.0122924065217375
-0.009853639639914
-0.0074622356332838
-0.0049592088907957
-0.0022261072881519
0.0007986525306478
0.004100298974663
0.0075558023527264
0.0109013943001627
0.0137268938124179
0.0155167430639266
0.0157329812645912
0.0139183159917593
0.0097921313717961
0.0033179600723087
-0.0052654799073934
-0.0154510848224163
-0.026508342474699
-0.0375645831227302
-0.047711968421936
-0.0561169907450675
-0.0621122047305107
-0.0652637705206871
-0.0654087364673614
-0.0626547336578369
-0.0573480315506458
-0.0500203110277652
-0.0413163751363754
-0.0319109112024307
-0.0224324371665716
-0.0134055633097887
-0.0052128788083791
0.001923844218254
0.0079433191567659
0.0129233263432979
0.0170387588441371
0.0205154940485954
0.0235953368246555
0.0265079587697982
0.0294456109404563
0.0325455665588378
0.0358773730695247
0.0394235476851463
0.0430496409535408
0.0464754551649093
0.0492727309465408
0.0509080290794372
0.0508244335651397
0.0485443845391273
0.0437759198248386
0.0364911369979381
0.0269487779587507
0.0156686622649431
0.0033807978034019
-0.009047033265233
-0.0207030065357685
-0.0307299606502056
-0.0384139716625213
-0.0432558357715606
-0.0450164750218391
-0.0437309890985488
-0.0396911948919296
-0.0333972498774528
-0.0254858992993831
-0.0166477337479591
-0.0075453296303749
0.0012510158121585
0.0092967581003904
0.0162839945405721
0.0220464263111352
0.0265589393675327
0.0299220383167266
0.0323312543332576
0.0340415574610233
0.0353324934840202
0.0364749692380428
0.0377032533288002
0.0391929671168327
0.0410370007157325
0.0432113260030746
0.0455405712127685
0.0476878322660923
0.0491807572543621
0.0494707860052585
0.0480236038565635
0.0444292500615119
0.0385008081793785
0.0303315483033657
0.0203004851937294
0.0090343644842505
-0.0026605408638715
-0.0138867571949958
-0.0237552709877491
-0.0314865335822105
-0.0365012362599372
-0.0384844988584518
-0.0374077446758747
-0.0335089787840843
-0.027250338345766
-0.019265204668045
-0.0102876275777816
-0.001061487942934
0.0077506210654973
0.0156344734132289
0.022259185090661
0.0274838097393512
0.0313414819538593
0.0340075455605983
0.0357561223208904
0.0369104146957397
0.0377953313291072
0.0386994294822216
0.0398498624563217
0.0413975268602371
0.0433996021747589
0.045789647847414
0.0483453348278999
0.0506770759820938
0.0522539839148521
0.0524694770574569
0.0507366880774498
0.0465952903032302
0.0398061797022819
0.0304097514599561
0.018739391118288
0.0053976625204086
-0.0087991692125797
-0.0229016095399856
-0.035921823233366
-0.0469358041882514
-0.055187527090311
-0.0601838342845439
-0.0617574229836463
-0.0600761286914348
-0.0555971823632717
-0.0489823296666145
-0.0409965179860591
-0.0324124619364738
-0.0239315051585435
-0.0161230340600013
-0.0093874465674161
-0.0039435662329196
0.0001634582877159
0.0030341371893882
0.0048749148845672
0.0059617199003696
0.0066012814640998
0.0070830173790454
0.0076424442231655
0.0084497258067131
0.0096081681549549
0.0111520290374755
0.0130485258996486
0.0152055211365222
0.0174774304032325
0.0196662098169326
0.0215252377092838
0.0227729901671409
0.0231171697378158
0.022287979722023
0.0200803764164447
0.0164009183645248
0.0113010369241237
0.0049781687557697
-0.0022488683462142
-0.0099715627729892
-0.0177290514111518
-0.0250563994050025
-0.0315347611904144
-0.0368316918611526
-0.0407288409769535
-0.0431368388235569
-0.0440967120230197
-0.0437664687633514
-0.0423931367695331
-0.0402757972478866
-0.0377254299819469
-0.0350251570343971
-0.0324017480015754
-0.0300169773399829
-0.027969192713499
-0.0262933671474456
-0.0249624736607074
-0.0238977447152137
-0.0229879692196846
-0.0221109837293624
-0.0211525782942771
-0.0200227312743663
-0.0186677239835262
-0.0170779600739479
-0.0152971856296062
-0.0134335197508335
-0.0116601884365081
-0.0101978108286857
-0.0092877000570297
-0.0091666802763938
-0.0100376605987548
-0.0120319351553916
-0.0151756070554256
-0.0193726569414138
-0.0244049374014139
-0.0299453120678663
-0.0355850905179977
-0.0408762618899345
-0.0453839488327503
-0.0487408898770809
-0.0506930202245712
-0.0511267110705375
-0.0500703379511833
-0.0476702786982059
-0.0441581793129444
-0.0398251973092556
-0.0349956192076206
-0.0299900025129318
-0.0250887759029865
-0.0205093529075384
-0.0163946039974689
-0.0128069408237934
-0.0097341211512684
-0.0071102427318692
-0.0048391241580247
-0.0028117783367633
-0.0009198542684316
0.0009341873228549
0.0028310269117355
0.0048311064019799
0.0069598965346813
0.0091712540015578
0.0113092241808772
0.013098657131195
0.0141758238896727
0.0141547052189707
0.0127122569829225
0.0096662500873208
0.0050276275724172
-0.0009793080389499
-0.0079321358352899
-0.0152557902038097
-0.0222901850938797
-0.0283759348094463
-0.0329447388648986
-0.0355924218893051
-0.036126472055912
-0.0345891043543815
-0.0312440507113933
-0.0265197940170764
-0.0209294836968183
-0.014995664358139
-0.0091914311051368
-0.0038971677422523
0.0006270017474889
0.0042525399476289
0.0069789309054613
0.0089160446077585
0.0102564860135316
0.0112437326461076
0.0121374931186437
0.0131780747324228
0.0145542901009321
0.0163737125694751
0.0186326019465923
0.0211917273700237
0.0237685106694698
0.0259553603827953
0.0272731948643922
0.0272550173103809
0.025536423549056
0.0219301898032426
0.0164706986397504
0.0094234906136989
0.001264676451683
-0.0073663778603076
-0.0157355554401874
-0.0230933055281639
-0.0287632048130035
-0.0322304852306842
-0.033202089369297
-0.0316242836415767
-0.0276680029928684
-0.021690372377634
-0.0141782686114311
-0.0056853890419006
0.0032286047935485
0.0120519399642944
0.0203620940446853
0.0278556421399116
0.0343663841485977
0.0398633144795894
0.0444301813840866
0.0482384860515594
0.0515138693153858
0.0544924549758434
0.0573805309832096
0.0603313706815242
0.063433714210987
0.0666986182332038
0.070037268102169
0.0732362195849418
0.0759495720267295
0.0777260437607765
0.0780747830867767
0.0765533149242401
0.0728528201580047
0.066864363849163
0.0587179698050022
0.0487880036234855
0.0376581586897373
0.0260513592511415
0.0147465579211711
0.0044987499713897
-0.0040362775325775
-0.0103688575327396
-0.0142209827899932
-0.0155408307909965
-0.0144904777407646
-0.0114144906401634
-0.0067902021110057
-0.0011626593768596
0.0049214996397495
0.0109664741903543
0.0165669042617082
0.0214398223906755
0.025439765304327
0.0285476446151733
0.0308442618697881
0.0324822999536991
0.0336568020284175
0.0345748029649257
0.0354293808341026
0.0363789945840835
0.037527784705162
0.0389007776975631
0.0404138043522834
0.0418483465909957
0.0428472869098186
0.0429457798600196
0.0416421964764595
0.0384959354996681
0.0332193039357662
0.0257367212325334
0.0162101704627275
0.0050362534821033
-0.0071849199011921
-0.0197070855647325
-0.0317164547741413
-0.0424205064773559
-0.0511338897049427
-0.0573517195880413
-0.0607978738844394
-0.0614406168460845
-0.0594780854880809
-0.0552996098995208
-0.0494297668337821
-0.0424595326185226
-0.0349760353565216
-0.0275114830583333
-0.0205112248659133
-0.014305280521512
-0.0090859085321426
-0.0049029965884983
-0.0016773222014307
0.0007711416110396
0.0026839450001716
0.0043232208117842
0.0059340149164199
0.0077135041356086
0.0097911152988672
0.0122116953134536
0.0149117335677146
0.017694417387247
0.0202177837491035
0.0220093913376331
0.0225218459963798
0.0212284214794635
0.0177307166159153
0.0118463095277547
0.0036581587046384
-0.0064802803099155
-0.0179767608642578
-0.0300584379583597
-0.0418536514043808
-0.0524908229708671
-0.0611969605088233
-0.0673794001340866
-0.0706806406378746
-0.0710000842809677
-0.0684889629483223
-0.0635275393724441
-0.0566780045628547
-0.048608411103487
-0.0400027781724929
-0.0314810462296009
-0.0235431548207998
-0.016535710543394
-0.0106378868222236
-0.0058688391000032
-0.0021132477559149
0.0008423635736107
0.0032676933333277
0.0054470347240567
0.0076444121077656
0.0100780194625258
0.012897441163659
0.0161593779921531
0.0198087021708488
0.0236658342182636
0.0274172574281692
0.0306207537651062
0.0327440202236175
0.0332396253943443
0.0316385775804519
0.0276401862502098
0.0211806464940309
0.0124660665169358
0.0019638482481241
-0.0096423793584108
-0.0215223636478185
-0.0327824912965297
-0.0425605736672878
-0.0501288287341594
-0.0549824982881546
-0.0568861849606037
-0.0558755956590175
-0.0522308349609375
-0.0464272908866405
-0.0390649363398551
-0.0307897496968507
-0.0222232677042484
-0.0139058185741305
-0.0062553538009524
0.0004551333840936
0.0061003062874078
0.0106906481087207
0.0143540538847446
0.0173067208379507
0.0198068264871835
0.0221054200083017
0.0244137719273567
0.0268874447792768
0.0296184737235307
0.0326303504407405
0.0358684733510017
0.0391788966953754
0.0422839559614658
0.0447782613337039
0.0461649633944034
0.045931302011013
0.0436410531401634
0.0390227325260639
0.0320411212742328
0.022930771112442
0.0121760731562972
0.0004541995003819
-0.0114356577396392
-0.0226527005434036
-0.0324023179709911
-0.0400191880762577
-0.0450332127511501
-0.0472098141908645
-0.046562623232603
-0.0433396995067596
-0.0379842221736907
-0.0310738570988178
-0.0232468862086534
-0.0151248797774314
-0.0072427364066243
-4.293164238333702e-06
0.0063252765685319
0.0116082169115543
0.0158243179321289
0.0190582461655139
0.0214775800704956
0.0233050286769866
0.0247861351817846
0.0261544585227966
0.027603143826127
0.0292681474238634
0.0312178544700145
0.0334410369396209
0.0358283296227455
0.0381510891020298
0.0400549881160259
0.0410829968750476
0.0407296419143676
0.0385238379240036
0.0341233648359775
0.0273934174329042
0.0184549316763877
0.007697744295001
-0.0042483732104301
-0.0165823940187692
-0.0284246727824211
-0.038917426019907
-0.0473209619522094
-0.0530933961272239
-0.0559434071183204
-0.0558485053479671
-0.0530359148979187
