bvp
-0.1194209456443786
-0.1203624680638313
-0.1192746311426162
-0.1163709312677383
-0.11198490858078
-0.1065215915441513
-0.1004025936126709
-0.0940184667706489
-0.0876947939395904
-0.0816739350557327
-0.0761123746633529
-0.0710917189717292
-0.0666390061378479
-0.0627527683973312
-0.059430755674839
-0.056696344166994
-0.0546240545809268
-0.0533623285591602
-0.0531553365290164
-0.0543575882911682
-0.0574147701263427
-0.0627960860729217
-0.0708954706788063
-0.0819285660982132
-0.0958490744233131
-0.1123071834444999
-0.1306589543819427
-0.1500119268894195
-0.1692865192890167
-0.1872882843017578
-0.2027996778488159
-0.2146898359060287
-0.2220232188701629
-0.2241440117359161
-0.2207193523645401
-0.211736649274826
-0.1974659860134124
-0.1784037798643112
-0.1552099883556366
-0.1286450773477554
-0.0995101034641265
-0.0685938000679016
-0.0366320759057998
-0.0042871609330177
0.0278503559529781
0.0592474192380905
0.0894173607230186
0.1179200857877731
0.1443771719932556
0.168498009443283
0.1901020109653473
0.2091244161128997
0.2256079316139221
0.2396839559078216
0.251539409160614
0.26137375831604
0.2693608403205871
0.2756300270557403
0.2802764475345611
0.2833958268165588
0.2851251363754272
0.2856660783290863
0.2852750420570373
0.2842203378677368
0.2827325463294983
0.2809741199016571
0.279020756483078
0.2768372297286987
0.2742640972137451
0.2710351943969726
0.2668144702911377
0.2612378597259521
0.2539575397968292
0.2446783781051635
0.2331775724887848
0.2193179875612259
0.2030650377273559
0.1844993531703949
0.1638156622648239
0.1413125097751617
0.1173829138278961
0.092500701546669
0.067188873887062
0.0419781357049942
0.0173896104097366
-0.0060488283634185
-0.0277947485446929
-0.0473360568284988
-0.0642739087343216
-0.0783932507038116
-0.0896980166435241
-0.0984102934598922
-0.1049343943595886
-0.1098142117261886
-0.1137169897556305
-0.1174077242612838
-0.1216520518064498
-0.1270683705806732
-0.1340104341506958
-0.1425197124481201
-0.1523320227861404
-0.1629224419593811
-0.1735890060663223
-0.1835677772760391
-0.1921564489603042
-0.1988184154033661
-0.2032492607831955
-0.2054008096456527
-0.2054589390754699
-0.2037720531225204
-0.2007491290569305
-0.1967666447162628
-0.1921127885580063
-0.1869688630104065
-0.181413933634758
-0.1754471808671951
-0.1690268218517303
-0.1621202379465103
-0.1547562181949615
-0.1470659226179123
-0.1393003463745117
-0.1318226158618927
-0.1250782608985901
-0.1195513531565666
-0.115719735622406
-0.1140161752700805
-0.1147859469056129
-0.1182317733764648
-0.1243590340018272
-0.1329445838928222
-0.1435420513153076
-0.1555195301771164
-0.1681146770715713
-0.1804990172386169
-0.1918539702892303
-0.2014547884464264
-0.208741158246994
-0.2133463621139526
-0.2150778174400329
-0.2138797044754028
-0.2098183929920196
-0.2031008303165435
-0.1941024214029312
-0.1833672821521759
-0.1715540587902069
-0.1593418568372726
-0.1473421454429626
-0.1360394209623336
-0.1257526874542236
-0.116615206003189
-0.1085782796144485
-0.1014352887868881
-0.0948554575443267
-0.0884189456701278
-0.0816462486982345
-0.0740211531519889
-0.0650144144892692
-0.0541229844093322
-0.0409319251775741
-0.0251841247081756
-0.0068370550870895
0.0139060467481613
0.036594420671463
0.0605608820915222
0.0849971696734428
0.1090737804770469
0.1320732831954956
0.1534906178712844
0.1730647534132003
0.1907335370779037
0.2065374851226806
0.2205262929201126
0.2327098250389099
0.2430476397275924
0.2514545321464538
0.2578192353248596
0.2620365023612976
0.2640358805656433
0.2637842893600464
0.2612668871879577
0.2564798593521118
0.2494498938322067
0.2402573227882385
0.2290370613336563
0.2159566134214401
0.201193481683731
0.1849387139081955
0.167432352900505
0.1490071713924408
0.1301103979349136
0.1112896725535392
0.0931397601962089
0.0762204155325889
0.0609744563698768
0.0476622432470321
0.0363154709339141
0.0267297327518463
0.0185057818889617
0.0111255794763565
0.0040521919727325
-0.0031584948301315
-0.0107614696025848
-0.0187722444534301
-0.0269819945096969
-0.0350328534841537
-0.0425249487161636
-0.0491187274456024
-0.054597869515419
-0.0588739961385726
-0.0619484335184097
-0.0638744086027145
-0.064744547009468
-0.0646865516901016
-0.0638439655303955
-0.0623508095741272
-0.0603213608264923
-0.0578539371490478
-0.055029883980751
-0.0519026964902877
-0.048485055565834
-0.0447339117527008
-0.0405375957489013
-0.0357245504856109
-0.0301034301519393
-0.0235176682472229
-0.0158908516168594
-0.0072586387395858
0.0022085160017013
0.0121985524892807
0.022271454334259
0.031886875629425
0.040449172258377
0.0473758876323699
0.0521779507398605
0.0545337200164794
0.0543427467346191
0.0517473369836807
0.0471197217702865
0.0410209000110626
0.0341387689113616
0.0272160470485687
0.0209781378507614
0.0160632878541946
0.0129589587450027
0.0119620114564895
0.0131755322217941
0.0165350884199142
0.0218538045883178
0.0288732051849365
0.0372989326715469
0.046817198395729
0.0571114718914032
0.0678949505090713
0.0789540559053421
0.0901774913072586
0.1015394926071167
0.113036885857582
0.1246129125356674
0.1360888481140136
0.1471090018749237
0.1571189761161804
0.1653898805379867
0.1710646301507949
0.173201709985733
0.1708349734544754
0.1631001830101013
0.1494406163692474
0.1298134326934814
0.1047944948077201
0.0755482241511344
0.0436929613351821
0.0111067295074462
-0.0202806740999221
-0.0486709624528884
-0.072540745139122
-0.0907439738512039
-0.1025748401880264
-0.1078049093484878
-0.1067036092281341
-0.1000248342752456
-0.0889374762773513
-0.0748977214097976
-0.0594758540391922
-0.0441666692495346
-0.0302291214466094
-0.0185795277357101
-0.0097291022539138
-0.0037599205970764
-0.000351995229721
0.001126617193222
0.001476839184761
0.0015355348587036
0.0021544694900512
0.0042986273765563
0.0091028064489364
0.0177357345819473
0.0311129838228225
0.0496148094534873
0.0729231387376785
0.1000116243958473
0.1292696297168731
0.1587153971195221
0.1862517595291137
0.2099266052246093
0.2281664311885833
0.2399504780769348
0.2448920905590057
0.2432116270065307
0.2356208562850952
0.2231628447771072
0.2070448398590088
0.1884771287441253
0.1685297489166259
0.148029088973999
0.1275108903646469
0.1072321608662605
0.0872312188148498
0.0674137473106384
0.0476432517170906
0.0278237238526344
0.0079671889543533
-0.0117638930678367
-0.0310518257319927
-0.049456849694252
-0.066470593214035
-0.0815713256597518
-0.0942794978618621
-0.1042218133807182
-0.1112075522541999
-0.1153083145618438
-0.1169154942035675
-0.1167440190911293
-0.1157651022076606
-0.1150746047496795
-0.115726426243782
-0.1185681670904159
-0.1241063326597213
-0.1324222832918167
-0.1431600749492645
-0.1555885523557663
-0.1687101125717163
-0.1813902556896209
-0.1924949586391449
-0.2010226547718048
-0.2062150537967682
-0.2076267898082733
-0.205142006278038
-0.1989515423774719
-0.1895112693309784
-0.1774882972240448
-0.1636925637722015
-0.1489930897951126
-0.1342238485813141
-0.120093286037445
-0.1071200370788574
-0.0956079959869384
-0.0856479555368423
-0.0771284848451614
-0.0697588920593261
-0.0631125420331955
-0.0566867962479591
-0.0499719865620136
-0.0425309725105762
-0.034088809043169
-0.0246045589447021
-0.0142866671085357
-0.0035493522882461
0.0070598646998405
0.0169420838356018
0.0255391970276832
0.0324283763766288
0.0373962074518203
0.0404790118336677
0.041968248784542
0.0423797443509101
0.0423904731869697
0.0427555292844772
0.0442180410027504
0.0474162027239799
0.0527973100543022
0.060558870434761
0.0706259608268737
0.0826606526970863
0.0960992276668548
0.1102139353752136
0.1241911277174949
0.1372100710868835
0.1485093832015991
0.1574464738368988
0.1635531038045883
0.1665733307600021
0.1664752066135406
0.1634390503168106
0.1578253358602523
0.1501237750053405
0.1408882588148117
0.1306699812412262
0.1199616640806198
0.1091585606336593
0.0985351204872131
0.0882372111082077
0.0782918483018875
0.0686251670122146
0.059081345796585
0.0494557917118072
0.0395488590002059
0.0292148739099502
0.0183772295713424
0.007005751132965
-0.0049279332160949
-0.0174978822469711
-0.0308540910482406
-0.0452211797237396
-0.0608621835708618
-0.0780144184827804
-0.0968125611543655
-0.1172168254852294
-0.1389663219451904
-0.1615868955850601
-0.1844655722379684
-0.2069580256938934
-0.2284822463989257
-0.2485828101634979
-0.2669707536697387
-0.2835390269756317
-0.2983494102954864
-0.3115966320037842
-0.3235576152801513
-0.3345282077789306
-0.3447563648223877
-0.3543938100337982
-0.363476037979126
-0.3719224631786346
-0.3795445561408996
-0.3860571384429931
-0.3910976648330688
-0.3942539691925049
-0.3950891196727752
-0.3931621611118316
-0.3880581557750702
-0.3794310092926025
-0.3670473098754883
-0.3508202135562897
-0.3308306932449341
-0.3073344528675079
-0.2807509899139404
-0.251634418964386
-0.2206315696239471
-0.1884361505508422
-0.1557429730892181
-0.1232061684131622
-0.0914094895124435
-0.0608443468809127
-0.0318849682807922
-0.0047656744718551
0.0204269737005233
0.0437415689229965
0.0653330236673355
0.0854251682758331
0.1042687222361564
0.1220987439155578
0.1390925943851471
0.1553220748901367
0.1707066893577575
0.1849959343671798
0.1977992057800293
0.2086528539657592
0.2171052545309066
0.2228111028671264
0.2256227880716323
0.2256565690040588
0.2233135402202606
0.2192487567663192
0.2143004685640335
0.2093957662582397
0.205443263053894
0.2032284289598465
0.2033270746469497
0.2060425877571106
0.211373746395111
0.2190236747264862
0.2284486293792724
0.238928735256195
0.2496445477008819
0.2597595155239105
0.2685100138187408
0.2752887308597564
0.2797030508518219
0.2816006541252136
0.2810623943805694
0.2783682346343994
0.2739456295967102
0.2683046758174896
0.2619599401950836
0.2553443908691406
0.2487290203571319
0.2421684116125106
0.2354915142059326
0.2283408194780349
0.2202498465776443
0.2107485085725784
0.1994812786579132
0.1863084882497787
0.1713645905256271
0.1550653725862503
0.1380673795938491
0.12118761241436
0.1052984744310379
0.0912168323993682
0.0796042382717132
0.0708898827433586
0.0652281194925308
0.0624990537762641
0.0623465813696384
0.0642340257763862
0.0675024986267089
0.0714376270771026
0.0753484368324279
0.0786413699388504
0.0808735340833664
0.0817829072475433
0.0812956094741821
0.0795117765665054
0.0766741931438446
0.0731203556060791
0.0692174509167671
0.0652852952480316
0.061519019305706
0.0579287745058536
0.0543141141533851
0.0502788126468658
0.0452856868505477
0.0387577563524246
0.0302166603505611
0.0194151066243648
0.0064197927713394
-0.0083682462573051
-0.0242496766149997
-0.0403090119361877
-0.0555298924446105
-0.0689264982938766
-0.0796726644039154
-0.087210789322853
-0.0913222581148147
-0.0921430736780166
-0.0901220440864563
-0.0859434455633163
-0.0804387032985687
-0.0744863301515579
-0.0689019709825515
-0.0643429085612297
-0.0612458437681198
-0.0598018243908882
-0.0599672496318817
-0.0615046769380569
-0.0640405863523483
-0.0671286210417747
-0.0703120380640029
-0.0731818154454231
-0.0754313692450523
-0.0769116431474685
-0.0776806697249412
-0.0780301913619041
-0.0784714221954345
-0.0796643570065498
-0.0822917371988296
-0.0869138464331626
-0.0938508734107017
-0.1031203642487526
-0.1144369468092918
-0.1272614002227783
-0.1408734023571014
-0.1544535756111145
-0.1671714186668396
-0.1782672703266143
-0.1871161609888076
-0.1932707279920578
-0.1964803636074066
-0.1966926902532577
-0.194049060344696
-0.1888657212257385
-0.1815875172615051
-0.1727212071418762
-0.1627648621797561
-0.152148425579071
-0.1411976963281631
-0.1301254332065582
-0.1190466657280922
-0.1080091744661331
-0.0970267057418823
-0.0861089825630188
-0.0752919167280197
-0.0646721422672271
-0.0544444322586059
-0.0449378341436386
-0.036634474992752
-0.0301406383514404
-0.0260956808924675
-0.0250414013862609
-0.027287445962429
-0.0328028500080108
-0.0411625057458877
-0.0515668950974941
-0.0629287287592887
-0.0740048587322235
-0.0835499167442321
-0.0904678702354431
-0.0939375385642051
-0.0934959724545478
-0.0890749841928482
-0.080994114279747
-0.0699107646942138
-0.0567222759127616
-0.0424284599721431
-0.0279862154275178
-0.0141904428601264
-0.0015972107648849
0.0095117483288049
0.0191228874027729
0.027443204075098
0.034824039787054
0.0416740104556083
0.0483750812709331
0.0552103370428085
0.0623061694204807
0.0695906579494476
0.0767687261104583
0.0833181887865066
0.0885280519723892
0.0915981084108352
0.0917861834168434
0.0885665342211723
0.0817617326974868
0.0716156885027885
0.0587921924889087
0.0443044379353523
0.0293915495276451
0.0153637947514653
0.0034429635852575
-0.0053784046322107
-0.0104389656335115
-0.011458309367299
-0.0085423346608877
-0.002156563103199
0.0069417059421539
0.0178157649934291
0.0294799543917179
0.0410172492265701
0.0516682527959346
0.0608857460319995
0.0683552771806716
0.0739876702427864
0.0778889879584312
0.0803136080503463
0.0816126987338066
0.0821883827447891
0.0824524313211441
0.082780972123146
0.0834542363882064
0.084583967924118
0.0860560759902
0.087517648935318
0.0884177088737487
0.0880955085158348
0.085899107158184
0.0813096314668655
0.0740479603409767
0.0641447603702545
0.0519625395536422
0.0381681397557258
0.0236596539616584
0.0094591192901134
-0.0034089190885424
-0.0140331471338868
-0.0217144712805748
-0.0260423682630062
-0.0269329994916915
-0.0246157795190811
-0.0195780135691165
-0.0124861141666769
-0.0040986640378832
0.0048172567039728
0.0135636683553457
0.0215799342840909
0.0284883268177509
0.0341066718101501
0.0384295843541622
0.0415843278169631
0.0437751822173595
0.0452343896031379
0.0461789555847644
0.0467609874904155
0.0470200255513191
0.0468553379178047
0.0460220389068126
0.0441557615995407
0.0408350229263305
0.0356746427714824
0.0284278895705938
0.0190725140273571
0.0078597143292427
-0.0046841241419315
-0.0178041439503431
-0.0306092128157615
-0.0421932488679885
-0.0517542473971843
-0.0586909428238868
-0.0626707524061203
-0.0636520609259605
-0.0618543662130832
-0.0576992407441139
-0.0517426468431949
-0.0446030311286449
-0.036891646683216
-0.0291544143110513
-0.0218282490968704
-0.0152125200256705
-0.0094600580632686
-0.0045888796448707
-0.000507403165102
0.0029552746564149
0.0060153622180223
0.0088912155479192
0.0117530524730682
0.0146774668246507
0.0176105201244354
0.0203414224088192
0.0225014984607696
0.0236004739999771
0.0230970792472362
0.0204947888851165
0.0154500119388103
0.0078698024153709
-0.0020282305777072
-0.0137109737843275
-0.026381105184555
-0.0390710979700088
-0.0507607571780681
-0.0605037473142147
-0.0675477534532547
-0.0714242756366729
-0.0719897300004959
-0.0694167166948318
-0.0641445368528366
-0.0568026676774024
-0.0481232032179832
-0.0388550050556659
-0.0296872910112142
-0.0211888793855905
-0.0137683004140853
-0.0076526477932929
-0.0028814747929573
0.0006828736513853
0.0033254418522119
0.0054245050996541
0.0073774792253971
0.0095260813832283
0.0120960958302021
0.0151543524116277
0.0185824055224657
0.022073607891798
0.0251599140465259
0.0272653065621852
0.027785301208496
0.0261904820799827
0.0221337396651506
0.0155344456434249
0.0066210497170686
-0.0040727164596319
-0.0157532598823308
-0.0274556577205657
-0.0381717346608638
-0.0469872280955314
-0.0531926304101944
-0.0563529767096042
-0.056332804262638
-0.0532786175608634
-0.0475751981139183
-0.0397898517549037
-0.0306027699261903
-0.0207281876355409
-0.0108430758118629
-0.0015310400631278
0.0067589664831757
0.0137386638671159
0.0192893184721469
0.0234453584998846
0.026352122426033
0.0282190181314945
0.0292843729257583
0.0297828577458858
0.0299051366746425
0.0297572817653417
0.0293344669044017
0.0285186953842639
0.0271030627191066
0.0248390883207321
0.0215032398700714
0.016973303630948
0.0112908985465765
0.0046891253441572
-0.0024192968849092
-0.0094952275976538
-0.0159607455134391
-0.0212920010089874
-0.0250896513462066
-0.0271232165396213
-0.0273528322577476
-0.0259241834282875
-0.0231361407786607
-0.0193884838372468
-0.0151192713528871
-0.0107443546876311
-0.0066104750148952
-0.0029657138511538
5.526002496480942e-05
0.002434769179672
0.0042637279257178
0.0057138795964419
0.0069908266887068
0.0082852821797132
0.0097378259524703
0.0114184422418475
0.0133151449263095
0.0153247658163309
0.0172454454004764
0.018779182806611
0.0195547305047512
0.0191763937473297
0.0172952152788639
0.0136898308992385
0.0083366986364126
0.0014506494626402
-0.0065132221207022
-0.014903312548995
-0.0229591876268386
-0.0299184117466211
-0.0351156257092952
-0.038061499595642
-0.0384956635534763
-0.0364091619849205
-0.0320334061980247
-0.0258001033216714
-0.018282450735569
-0.0101227927953004
-0.0019548796117305
0.0056641157716512
0.0123055884614586
0.0177087821066379
0.0218008644878864
0.02468166872859
0.0265761315822601
0.0277809258550405
0.0286211818456649
0.0294107235968112
0.0304072126746177
0.0317639857530593
0.0334895364940166
0.0354263111948967
0.0372541397809982
0.0385215729475021
0.0387083180248737
0.0373155325651168
0.0339687205851078
0.0285085514187812
0.0210468340665102
0.0119712501764297
0.0018971674144268
-0.0084144659340381
-0.0181529019027948
-0.0265543945133686
-0.0329881235957145
-0.0370230302214622
-0.0384698510169982
-0.0373926311731338
-0.0340863987803459
-0.029023703187704
-0.0227813031524419
-0.0159613024443388
-0.0091187637299299
-0.0027010831981897
0.0029988046735525
0.0078608747571706
0.0119163524359464
0.0153041463345289
0.0182290934026241
0.0209229681640863
0.0236048810184001
0.0264444649219512
0.0295253172516822
0.0328066386282444
0.0360923036932945
0.0390217006206512
0.0410937778651714
0.0417294204235076
0.0403682775795459
0.0365844294428825
0.030192881822586
0.0213134996592998
0.0103759095072746
-0.0019240342080593
-0.0146997114643454
-0.026972884312272
-0.0377879254519939
-0.0463252738118171
-0.0519929379224777
-0.0544781610369682
-0.0537571161985397
-0.0500747859477996
-0.0439016744494438
-0.035866156220436
-0.0266712550073862
-0.0170100107789039
-0.0074902512133121
0.0014151036739349
0.0093852821737527
0.016251552850008
0.0219907239079475
0.0267064720392227
0.0305931456387043
0.0338893495500087
0.0368342697620391
0.0396279990673065
0.042388878762722
0.0451099500060081
0.0476251207292079
0.0495959669351577
0.0505341216921806
0.0498739443719387
0.0470887720584869
0.0418168865144252
0.0339610055088996
0.0237429589033126
0.0117057524621486
-0.001339356880635
-0.0144108720123767
-0.026480870321393
-0.0366015806794166
-0.0440122745931148
-0.0482164844870567
-0.0490294769406318
-0.0465889610350132
-0.0413207113742828
-0.0338670052587986
-0.0249937996268272
-0.0154899107292294
-0.0060768853873014
0.0026548970490694
0.010287333279848
0.0165968388319015
0.0215492006391286
0.0252678133547306
0.0279878191649913
0.0300050154328346
0.0316256135702133
0.0331222899258136
0.0347002483904361
0.0364728905260562
0.0384415872395038
0.0404775589704513
0.0423134565353393
0.0435562692582607
0.0437249653041362
0.0423116572201252
0.0388706102967262
0.0331253260374069
0.0250575691461563
0.0149450739845633
0.0033394545316696
-0.0090055828914046
-0.0212353207170963
-0.0325025618076324
-0.0420668795704841
-0.0493707507848739
-0.0540819019079208
-0.0561017543077468
-0.0555453822016716
-0.0526956394314765
-0.0479469522833824
-0.0417600199580192
-0.0346249192953109
-0.0270216427743434
-0.0193813927471637
-0.0120559707283973
-0.0053009926341474
0.0007253913208842
0.0059527717530727
0.0103826625272631
0.0140713416039943
0.0171140953898429
0.0196282118558883
0.0217325743287801
0.0235269367694854
0.0250715650618076
0.0263582803308963
0.0272699240595102
0.0275516621768474
0.0268250834196805
0.0246533285826444
0.0206431075930595
0.0145563520491123
0.0063987635076045
-0.0035401061177253
-0.0147033371031284
-0.0263307467103004
-0.037554457783699
-0.0475106909871101
-0.0554488524794578
-0.0608146674931049
-0.0632962435483932
-0.0628417134284973
-0.0596559345722198
-0.0541675314307212
-0.0469628125429153
-0.0387039110064506
-0.0300511606037616
-0.0215989779680967
-0.0138292601332068
-0.0070833833888173
-0.0015514465048909
0.0027225250378251
0.0058207418769598
0.0079218754544854
0.0092681655660271
0.0101357586681842
0.0108107076957821
0.0115617867559194
0.0126036200672388
0.0140608828514814
0.0159430224448442
0.0181262604892253
0.0203399248421192
0.0221688207238912
0.0230937674641609
0.022574869915843
0.0201554596424102
0.0155590139329433
0.008758146315813
2.840533852577209e-06
-0.0101963812485337
-0.0211242325603961
-0.0319435819983482
-0.0417973771691322
-0.0499146357178688
-0.0556948073208332
-0.0587556958198547
-0.0589454732835292
-0.0563270114362239
-0.0511474944651126
-0.0438009649515152
-0.0347848013043403
-0.0246547181159257
-0.0139851961284875
-0.0033363623078912
0.0067771105095744
0.0159201305359601
0.0237724613398313
0.0301544480025768
0.035028725862503
0.0384754091501235
0.040659099817276
0.0418046303093433
0.0421809256076812
0.0420827344059944
0.0417990796267986
0.0415652953088283
0.0415080338716506
0.0415988974273204
0.0416314788162708
0.0412337966263294
0.0399246625602245
0.0372118800878524
0.0327104367315769
0.0262446533888578
0.0179016701877117
0.0080275554209947
-0.0028166677802801
-0.0139204952865839
-0.0245039798319339
-0.033805526793003
-0.0411648228764534
-0.0460883155465126
-0.0482922159135341
-0.0477240532636642
-0.0445589199662208
-0.0391668006777763
-0.0320582836866378
-0.023820973932743
-0.0150535367429256
-0.0063017783686518
0.0019881087355315
0.0094875991344451
0.0159883983433246
0.0214024409651756
0.0257548727095127
0.0291655585169792
0.0318213887512683
0.033945195376873
0.0357652157545089
0.0374848507344722
0.0392548739910125
0.0411488376557827
0.0431369990110397
0.0450619496405124
0.0466325581073761
0.0474504455924034
0.0470625981688499
0.0450263060629367
0.0409868061542511
0.0347618982195854
0.0264066010713577
0.0162348821759223
0.0047943890094757
-0.0071972943842411
-0.0189416967332363
-0.0296607427299022
-0.0386925190687179
-0.0455605909228324
-0.0500079467892646
-0.0520001351833343
-0.051702007651329
-0.049432560801506
-0.0456158779561519
-0.0407410487532615
-0.0353180207312107
-0.0298199243843555
-0.0246291421353817
-0.0200061798095703
-0.016084199771285
-0.0128846280276775
-0.0103475730866193
-0.0083657791838049
-0.0068099582567811
-0.0055447481572628
-0.0044431490823626
-0.0033992212265729
-0.002334076911211
-0.0012012952938675
-6.573274731636047e-06
0.001157222315669
0.0020848773419857
0.0024676583707332
0.0019345805048942
0.000116323120892
-0.0032761329784989
-0.0083760153502225
-0.0151121439412236
-0.0231988690793514
-0.0321612320840358
-0.0413864441215992
-0.0501924902200698
-0.0579065717756748
-0.0639416798949241
-0.06785698980093
-0.0694020017981529
-0.0685435235500335
-0.065459668636322
-0.0604987069964408
-0.0541199669241905
-0.0468308739364147
-0.0391299910843372
-0.031460803002119
-0.0241755247116088
-0.0175138525664806
-0.0116006527096033
-0.0064582228660583
-0.0020281448960304
0.0018035918474197
0.0051854513585567
0.0082830712199211
0.0112564731389284
0.014229604974389
0.0172653310000896
0.0203487388789653
0.0233688317239284
0.0261038467288017
0.0282269101589918
0.0293418560177087
0.0290486123412847
0.027026105672121
0.0231132190674543
0.0173683054745197
0.0100918766111135
0.0018054023385047
-0.0068084858357906
-0.0149891041219234
-0.0219927616417408
-0.0271913595497608
-0.0301513224840164
-0.0306713245809078
-0.0287820249795913
-0.0247191749513149
-0.0188761763274669
-0.0117452964186668
-0.0038580037653446
0.0042704418301582
0.0121866576373577
0.019530177116394
0.0260518565773963
0.031622264534235
0.0362300351262092
0.0399689748883247
0.0430088229477405
0.0455512404441833
0.0477895513176918
0.0498871132731437
0.051968902349472
0.0541151575744152
0.0563490465283393
0.0586116127669811
0.0607276000082492
0.0623829700052738
0.0631393864750862
0.0624952688813209
0.0599814467132091
0.0552670285105705
0.0482500381767749
0.0391101539134979
0.0283053927123546
0.0165150109678506
0.0045539624989032
-0.0067203901708126
-0.0165011435747146
-0.0241168327629566
-0.0290984138846397
-0.0312163420021533
-0.0304849930107593
-0.0271416865289211
-0.0216069966554641
-0.0144318006932735
-0.0062368772923946
0.0023493357002735
0.0107511319220066
0.0184985660016536
0.0252574440091848
0.0308296252042055
0.0351432189345359
0.0382458344101905
0.040289644151926
0.0415015779435634
0.0421470701694488
0.0424927212297916
0.0427660122513771
0.0431142002344131
0.043568804860115
0.0440202020108699
0.0442095287144184
0.0437488555908203
0.0421788319945335
0.0390619710087776
0.034084677696228
0.0271333344280719
0.0183369684964418
0.0080812778323888
-0.0030155386775732
-0.014171352609992
-0.0245401803404092
-0.0333231203258037
-0.0398698225617408
-0.0437522791326046
-0.0448003932833671
-0.0430993922054767
-0.0389574877917766
-0.032855425029993
-0.0253825522959232
-0.017162412405014
-0.0087861716747283
-0.0007712347432971
0.0064643174409866
0.0126267448067665
0.0175659731030464
0.0212780982255935
0.0238888300955295
0.0256199017167091
0.02674619294703
0.0275544673204422
0.0283071212470531
0.0292093828320503
0.0303800273686647
0.0318257473409175
0.0334211438894271
0.0349001102149486
0.0358612611889839
0.0357940681278705
0.0341438464820385
0.0304179266095161
0.0243045873939991
0.0157671198248863
0.0050838030874729
-0.0071736723184585
-0.0202076472342014
-0.0330902785062789
-0.044874221086502
-0.0547021925449371
-0.0619019642472267
-0.0660563707351684
-0.0670357644557952
-0.0649872720241546
-0.0602958127856254
-0.0535336807370185
-0.0453932434320449
-0.0366000793874263
-0.0278264768421649
-0.0196249559521675
-0.0123880077153444
-0.0063325064256787
-0.0015035774558782
0.0022036470472812
0.0050033349543809
0.0071680806577205
0.0089829470962286
0.0107096955180168
0.0125596169382333
0.0146724581718444
0.0170891527086496
0.019713070243597
0.0222829096019268
0.024382684379816
0.0254927463829517
0.0250708889216184
0.0226476304233074
0.0179189890623092
0.0108207799494266
0.0015713982284069
-0.0093275066465139
-0.0211383886635303
-0.0329764410853385
-0.043919738382101
-0.0531178675591945
-0.0598841086030006
-0.0637683272361755
-0.0646059215068817
-0.062526024878025
-0.0579118952155113
-0.0513291954994201
-0.0434417612850666
-0.0349298641085624
-0.0264207012951374
-0.0184321012347936
-0.0113327093422412
-0.0053250677883625
-0.0004512928426265
0.0033835601061582
0.0063754469156265
0.0087797436863183
0.0108723081648349
0.0129116903990507
0.0150992907583713
0.0175461713224649
0.0202514361590147
0.0230882074683904
0.0257957074791193
0.0279829967767
0.0291594192385673
0.0288002882152795
0.0264363419264554
0.0217496044933795
0.0146580003201961
0.0053658876568078
-0.0056341961026191
-0.0176064074039459
-0.029654486104846
-0.0408326387405395
-0.0502655878663063
-0.0572504103183746
-0.061322309076786
-0.0622867941856384
-0.0602241531014442
-0.055463396012783
-0.0485272668302059
-0.0400611385703086
-0.030758025124669
-0.0212866254150867
-0.0122297843918204
-0.004039847292006
0.0029867077246308
0.0087175155058503
0.013179344125092
0.0165338404476642
0.0190302710980176
0.0209533851593732
0.0225854590535163
0.024179333820939
0.0259297061711549
0.0279396511614322
0.0301876682788133
0.0325022041797637
0.0345557443797588
0.0358898118138313
0.0359740369021892
0.0342974960803985
0.0304777696728706
0.0243583731353282
0.0160683691501617
0.0060271564871072
-0.0051079075783491
-0.0165309533476829
-0.027386900037527
-0.0368640273809433
-0.0442745238542556
-0.0491210296750068
-0.0511415600776672
-0.0503236651420593
-0.0468877032399177
-0.0412472933530807
-0.0339548923075199
-0.0256360657513141
-0.0169178713113069
-0.0083600599318742
-0.0003982686903327
0.0066845482215285
0.0127499960362911
0.0177778210490942
0.0218418519943952
0.0250887721776962
0.0277123264968395
0.0299247503280639
0.0319313518702983
0.0339031182229518
0.0359414331614971
0.0380397029221057
0.0400496125221252
0.0416655018925666
0.0424448326230049
0.0418735742568969
0.0394672751426696
0.0348760038614273
0.0279631987214088
0.0188552439212799
0.0079624271020293
-0.004041832871735
-0.0162915345281362
-0.0278359353542327
-0.0377597548067569
-0.0452924370765686
-0.0498909577727317
-0.0512899048626422
-0.0495178438723087
-0.0448788218200206
-0.0379025638103485
-0.0292693618685007
-0.0197184048593044
-0.009965119883418
-0.0006447071209549
0.0077334512025117
0.0148275755345821
0.0204840376973152
0.0247276723384857
0.0277293864637613
0.0297625996172428
0.031156450510025
0.0322497487068176
0.0333480313420295
0.034683208912611
0.0363754965364933
0.0384001471102237
0.0405676960945129
0.0425315089523792
0.0438249185681343
0.0439209379255771
0.0423135757446289
0.0386160649359226
0.0326541550457477
0.0245268158614635
0.0146196335554122
0.0035702064633369
-0.0078078871592879
-0.018628142774105
-0.0280397199094295
-0.0353245511651039
-0.0399759709835052
-0.0417503863573074
-0.0406799204647541
-0.0370456017553806
-0.0313274338841438
-0.0241483971476554
-0.0162113159894943
-0.0082214921712875
-0.0008048508316278
0.0055571920238435
0.0105626499280333
0.0140952821820974
0.0162082239985466
0.0170895773917436
0.0170190669596195
0.0163219179958105
0.0153215499594807
0.0142958937212824
0.0134415347129106
0.012845897115767
0.0124630453065037
0.0120987258851528
0.0114275533705949
0.0100491428747773
0.0075645502656698
0.003656200133264
-0.0018400000408291
-0.0088833924382925
-0.0172063410282135
-0.0263237208127975
-0.0355781316757202
-0.0442183576524257
-0.051494900137186
-0.0567564964294433
-0.0595320686697959
-0.0595804341137409
-0.0569114051759243
-0.0517890788614749
-0.0447034388780593
-0.0363004282116889
-0.0272900983691215
-0.0183583423495292
-0.0100933443754911
-0.002928421832621
0.0028946711681783
0.0073350686579942
0.0105335973203182
0.0127718113362789
0.0144155723974108
0.0158494040369987
0.017413405701518
0.0193516593426466
0.0217711832374334
0.0246116109192371
0.0276371035724878
0.030456855893135
0.0325667932629585
0.0334102772176265
0.032457560300827
0.0292915124446153
0.0236865170300006
0.0156726613640785
0.0055708866566419
-0.0060203932225704
-0.0182906202971935
-0.0303157810121774
-0.041167426854372
-0.0500155352056026
-0.0562197715044021
-0.0594044514000415
-0.0594959110021591
-0.0567057430744171
-0.0514721237123012
-0.0443824604153633
-0.0360912196338176
-0.0272418912500143
-0.0184009000658988
-0.0100090000778436
-0.0023550800979137
0.0044259540736675
0.0103357434272766
0.0154828736558556
0.0200489405542612
0.024253387004137
0.0283116791397333
0.0323913134634494
0.0365837328135967
0.0408943556249141
0.0452334508299827
0.0494001507759094
0.0530710145831108
0.0558088049292564
0.0571012981235981
0.0564303435385227
0.0533615201711654
0.0476392395794391
0.0392675846815109
0.0285536348819732
0.0161003656685352
0.0027535688132047
-0.0104942275211215
-0.0226347874850034
-0.0327742993831634
-0.0402298420667648
-0.0445882193744182
-0.0457312986254692
-0.0438270680606365
-0.0392854511737823
-0.0326870717108249
-0.0247035436332225
-0.0160231776535511
-0.0072824321687221
0.0009944774210453
0.0084344800561666
0.0148284956812858
0.0201277956366539
0.0244245454668998
0.0279112569987773
0.0308293867856264
0.0334240868687629
0.0359114035964012
0.0384543314576149
0.0411392487585544
0.0439460203051567
0.04671560972929
0.0491305068135261
0.0507255867123603
0.0509377941489219
0.0491911806166172
0.045005727559328
0.0381118468940258
0.0285442732274532
0.0166812464594841
0.0032109236344695
-0.0109564708545804
-0.0248000938445329
-0.0373055636882782
-0.0475767515599727
-0.0549304150044918
-0.0589617155492305
-0.0595743954181671
-0.0569751150906086
-0.0516313835978508
-0.0441971644759178
-0.0354226529598236
-0.0260660555213689
-0.0168131329119205
-0.0082080624997615
-0.0006124787032604
0.0057960306294262
0.0110018048435449
0.0151239326223731
0.0183851402252912
0.02107366733253
0.0234977863729
0.0259372591972351
0.0285999402403831
0.0315858609974384
0.034857265651226
0.0382153987884521
0.0412884093821048
0.0435435064136981
0.0443413071334362
0.0430375784635543
0.0391098223626613
0.0322721153497695
0.0225562751293182
0.0103486441075801
-0.0036276052705943
-0.0183872580528259
-0.0328038334846496
-0.0457520335912704
-0.0562449097633361
-0.0635460466146469
-0.0672427788376808
-0.0672728717327117
-0.0639059692621231
-0.0576851665973663
-0.0493379570543766
-0.0396742559969425
-0.0294941868633031
-0.019517857581377
-0.0103303864598274
-0.0023375027813017
0.0042568678036332
0.0094422874972224
0.0133694922551512
0.0163067113608121
0.0185915455222129
0.0205801874399185
0.0225986428558826
0.0249002091586589
0.0276258643716573
0.0307662300765514
0.0341363102197647
0.0373750478029251
0.0399662181735038
0.0412794277071952
0.0406480021774768
0.0374886766076087
0.0314347110688686
0.0224417075514793
0.0108373668044805
-0.0026945210993289
-0.0171890966594219
-0.0315201580524444
-0.0445433892309665
-0.0552344992756843
-0.0628008544445037
-0.0667556747794151
-0.0669460073113441
-0.063538484275341
-0.0569823682308197
-0.047956146299839
-0.0372859425842762
-0.0258413013070821
-0.0144351404160261
-0.0037476029247045
0.0057227704674005
0.0136830005794763
0.0200448613613843
0.0248992089182138
0.0284710694104433
0.0310677159577608
0.0330301187932491
0.0346910655498504
0.0363418273627758
0.0382059589028358
0.0404057279229164
0.0429128296673297
0.0455073453485965
0.0477732717990875
0.0491338968276977
0.0489282757043838
0.0465286374092102
0.0414727702736854
0.0335730947554111
0.0229795351624488
0.0101877339184284
-0.0040090857073664
-0.0186148863285779
-0.0325544700026512
-0.0448053292930126
-0.0545136258006095
-0.0610836520791053
-0.0642398297786712
-0.0640446841716766
-0.0608610659837722
-0.0552748255431652
-0.0480006523430347
-0.0397859960794448
-0.0313265845179557
-0.0232033915817737
-0.0158417448401451
-0.0094907898455858
-0.0042257802560925
2.7406727895140648e-05
0.0034532188437879
0.0063034687191247
0.0088600954040884
0.0113993240520358
0.0141489896923303
0.0172504745423793
0.0207339935004711
0.0244979783892631
0.0282890629023313
0.0316941812634468
0.0341603644192218
0.0350531935691833
0.0337560288608074
0.02979476749897
0.0229558050632476
0.0133629394695162
0.0014929063618183
-0.0118682011961936
-0.0257134605199098
-0.0389388166368007
-0.0504867173731327
-0.059478648006916
-0.0653082057833671
-0.0676853358745575
-0.0666366517543792
-0.062471903860569
-0.0557259656488895
-0.0470836348831653
-0.0372950062155723
-0.0270939413458108
-0.0171299092471599
-0.0079161096364259
0.0002044970169663
0.0070743062533438
0.0127164209261536
0.017302356660366
0.0210928916931152
0.0243759676814079
0.0274233575910329
0.030467715114355
0.0336888432502746
0.0371956601738929
0.0410022288560867
0.0450019352138042
0.0489422716200351
0.0524166300892829
0.0548958964645862
0.0558016970753669
0.0546053349971771
0.0509362816810607
0.044679544866085
0.0360307469964027
0.0254886001348495
0.0137956282123923
0.0018514019902795
-0.0093903522938489
-0.0190352592617273
-0.0263530258089303
-0.030851524323225
-0.0323142856359481
-0.0308030974119901
-0.0266282223165035
-0.0202946737408638
-0.0124343130737543
-0.0037285932339727
0.0051720631308853
0.0137166883796453
0.0214916542172431
0.0282272286713123
0.0337897092103958
0.0381703153252601
0.041469145566225
0.0438701771199703
0.0456080771982669
0.0469315871596336
0.0480662509799003
0.0491786897182464
0.0503435209393501
0.0515124797821044
0.0524936094880104
0.0529536232352256
0.0524522811174392
0.050510685890913
0.0466984324157238
0.0407179221510887
0.0324784256517887
0.0221502035856246
0.0101779401302337
-0.0027560852468013
-0.01581278629601
-0.0281035527586936
-0.0388016700744628
-0.0472411662340164
-0.0529900267720222
-0.0558881312608718
-0.0560483783483505
-0.0538257583975791
-0.0497603863477706
-0.0444999150931835
-0.0387153960764408
-0.0330317355692386
-0.0279758013784885
-0.0239315591752529
-0.02110605686903
-0.0195196382701396
-0.0190238710492849
-0.0193422064185142
-0.0201250277459621
-0.0210069194436073
-0.0216548796743154
-0.0218065194785594
-0.0213060732930898
-0.0201387349516153
-0.0184516310691833
-0.0165542475879192
-0.0149027463048696
-0.0140644013881683
-0.0146443378180265
-0.0171741545200347
-0.021993089467287
-0.0291569083929061
-0.0383967980742454
-0.0491371154785156
-0.0605647936463356
-0.0717333182692527
-0.0816847831010818
-0.089571863412857
-0.0947587043046951
-0.0968857109546661
-0.0958936810493469
-0.0920077711343765
-0.0856914967298507
-0.0775852799415588
-0.0684311538934707
-0.0589822083711624
-0.0499100610613822
-0.0417281538248062
-0.0347421169281005
-0.029035709798336
-0.0244946964085102
-0.0208559669554233
-0.0177664309740066
-0.0148444883525371
-0.011736599728465
-0.0081623047590255
-0.0039473660290241
0.0009498111903667
0.006406757980585
0.0121028404682874
0.0175131596624851
0.0219594426453113
0.0247193947434425
0.0251687653362751
0.0229164846241474
0.0179021246731281
0.0104391202330589
0.0011955834925174
-0.0088832676410675
-0.0186962112784385
-0.0271305032074451
-0.0332064554095268
-0.0361958555877208
-0.0356936156749725
-0.0316452234983444
-0.024344302713871
-0.0143948271870613
-0.0026260465383529
0.0100261345505714
0.0226416811347007
0.0344231165945529
0.0447747372090816
0.0533457398414611
0.0600369572639465
0.0649765133857727
0.0684688463807106
0.0709260553121566
0.0727976188063621
0.0745105445384979
0.0764221101999282
0.0787785202264785
0.081672079861164
0.0850018411874771
0.0884523913264274
0.0915028601884841
0.0934772044420242
0.0936399549245834
0.0913270562887191
0.0860866010189056
0.0777948200702667
0.0667156875133514
0.0534919574856758
0.0390752628445625
0.0246091447770595
