bvp
-0.2068238854408264
-0.2064430564641952
-0.2047688364982605
-0.202066883444786
-0.1985265612602234
-0.1942737996578216
-0.1893796175718307
-0.1838698983192443
-0.1777422726154327
-0.1709864735603332
-0.163604661822319
-0.1556278318166732
-0.147122249007225
-0.1381850987672805
-0.1289342790842056
-0.1194965839385986
-0.1100022867321968
-0.1005958765745163
-0.0914604812860488
-0.0828426256775856
-0.075061097741127
-0.0684810876846313
-0.0634498000144958
-0.0602188408374786
-0.0588826313614845
-0.0593447424471378
-0.0613142661750316
-0.0643305480480194
-0.067808412015438
-0.071094736456871
-0.073535144329071
-0.0745505541563034
-0.0737104564905166
-0.0707819536328315
-0.0657416880130767
-0.0587573610246181
-0.0501526817679405
-0.0403562076389789
-0.0298355277627706
-0.0190308764576911
-0.0082999095320701
0.0021201223134994
0.0121266953647136
0.0217425003647804
0.0310886725783348
0.0403463914990425
0.0497144758701324
0.0593715459108352
0.0694468766450882
0.0800062045454979
0.0910506099462509
0.1025131344795227
0.1142527163028717
0.1260591000318527
0.137665256857872
0.1487517952919006
0.158940702676773
0.1677953004837036
0.1748465299606323
0.179648071527481
0.1818430721759796
0.1812219023704528
0.1777607798576355
0.1716366559267044
0.1632094383239746
0.1529774367809295
0.1415279507637024
0.1294845640659332
0.1174427270889282
0.105911023914814
0.0952793434262275
0.0858077853918075
0.0776207596063613
0.0707021579146385
0.0648996755480766
0.0599493719637393
0.0555272921919822
0.0513217113912105
0.0470975339412689
0.0427266098558902
0.0381888300180435
0.0335641130805015
0.0290183462202548
0.0247715339064598
0.0210485011339187
0.0180347450077533
0.0158603135496377
0.0146121475845575
0.0143642090260982
0.0152155961841344
0.0173194650560617
0.0208817757666111
0.0261175781488418
0.0331676825881004
0.0419983007013797
0.052319698035717
0.0635551512241363
0.0748796388506889
0.085331842303276
0.0939638093113899
0.0999719202518463
0.1027794778347015
0.1020685285329818
0.0977715998888015
0.0900465846061706
0.0792529359459877
0.0659274458885192
0.0507475733757019
0.0344763845205307
0.0178913474082946
0.0017052888870239
-0.0135031566023826
-0.0273340046405792
-0.0395797863602638
-0.0502119064331054
-0.0593519732356071
-0.0672390758991241
-0.074189506471157
-0.0805449783802032
-0.0866161882877349
-0.0926344394683837
-0.0987242758274078
-0.1048992052674293
-0.1110733747482299
-0.1170834824442863
-0.1227168440818786
-0.1277412176132202
-0.1319350153207779
-0.135116696357727
-0.137165680527687
-0.1380310356616974
-0.1377424895763397
-0.1364364624023437
-0.1343790292739868
-0.1319590210914611
-0.1296446025371551
-0.1279115974903106
-0.1271627992391586
-0.1276594251394271
-0.1294764280319214
-0.1324870884418487
-0.1363756209611892
-0.1406744122505188
-0.144820749759674
-0.1482203006744384
-0.1503096371889114
-0.1506184041500091
-0.1488250494003296
-0.1447948515415191
-0.1385876983404159
-0.1304326951503753
-0.1206854432821273
-0.1097816377878189
-0.0981884449720382
-0.086356446146965
-0.074676901102066
-0.0634498596191406
-0.0528701245784759
-0.0430312156677246
-0.0339396260678768
-0.0255330726504325
-0.0177001412957906
-0.0103000719100236
-0.0031873472034931
0.0037583112716674
0.0106116980314254
0.0174032691866159
0.0241339914500713
0.030788131058216
0.0373359993100166
0.0437274426221847
0.0498763285577297
0.0556388236582279
0.0607980974018573
0.06507308781147
0.0681591033935546
0.0697876885533332
0.06978590041399
0.0681214183568954
0.0649186894297599
0.0604397021234035
0.0550482198596
0.0491787940263748
0.0433085411787033
0.0379194729030132
0.0334493964910507
0.0302438363432884
0.0285265147686004
0.028395652770996
0.0298365391790866
0.0327373258769512
0.036904290318489
0.0420785322785377
0.0479575842618942
0.054225992411375
0.0605864897370338
0.0667769610881805
0.0725765749812126
0.0778133422136306
0.0823714882135391
0.0861924290657043
0.0892700254917144
0.0916411504149437
0.0933704003691673
0.0945325642824173
0.0952001810073852
0.0954377353191375
0.095292717218399
0.094779223203659
0.0938662514090538
0.0924751535058021
0.0904735028743743
0.0876641049981117
0.0837916880846023
0.0785826593637466
0.0718060433864593
0.0633358880877494
0.0532018840312957
0.0416147634387016
0.0289572365581989
0.0157446637749671
0.0025646984577178
-0.0099949203431606
-0.0214166305959224
-0.0313095636665821
-0.039441917091608
-0.045739434659481
-0.0502605512738227
-0.0531720221042633
-0.0547256581485271
-0.0552190579473972
-0.054942850023508
-0.0541363321244716
-0.0529648996889591
-0.0515139289200305
-0.0497906319797039
-0.0477354004979133
-0.0452438034117221
-0.0421914234757423
-0.0384571924805641
-0.0339446142315864
-0.0285965129733085
-0.0224036127328872
-0.0154191553592681
-0.0077830329537391
0.0002637133002281
0.008386455476284
0.0161770284175872
0.0231834910809993
0.0289591737091541
0.0331263281404972
0.0354388318955898
0.0358318798243999
0.0344429537653923
0.0315941274166107
0.0277473740279674
0.0234511904418468
0.0192858502268791
0.0158066339790821
0.0134816840291023
0.0126302130520343
0.0133851990103721
0.0156975910067558
0.0193701013922691
0.0240992382168769
0.0295153856277465
0.0352223888039588
0.0408390387892723
0.0460357703268528
0.0505578964948654
0.0542361885309219
0.0569881238043308
0.0588105544447898
0.0597707331180572
0.0600006580352783
0.0596813634037971
0.0590082481503486
0.0581565797328949
0.0572648048400878
0.0564307793974876
0.0557076819241046
0.0550893321633338
0.0544857904314994
0.0536998882889747
0.0524239167571067
0.0502772070467472
0.0468800067901611
0.041935458779335
0.0352955423295497
0.0270017609000206
0.0172990523278713
0.0066152289509773
-0.0044974978081882
-0.0154377641156315
-0.0256213527172803
-0.0345351621508598
-0.0417836159467697
-0.0471214950084686
-0.050466313958168
-0.0518936142325401
-0.0516188964247703
-0.0499634705483913
-0.0473084636032581
-0.0440488941967487
-0.0405521020293235
-0.0371186099946498
-0.0339513644576072
-0.0311478450894355
-0.0287177879363298
-0.0266081131994724
-0.0247218273580074
-0.0229360237717628
-0.0211230404675006
-0.0191705524921417
-0.0169944800436496
-0.0145438769832253
-0.0118100317195057
-0.0088535360991954
-0.0058455243706703
-0.0030996371060609
-0.0010636188089847
-0.0002559944987297
-0.001167157664895
-0.0041660144925117
-0.0094390884041786
-0.016956340521574
-0.0264555197209119
-0.0374552458524704
-0.0493017248809337
-0.0612400472164154
-0.0724994465708732
-0.0823805630207061
-0.090332917869091
-0.0960101559758186
-0.0992913693189621
-0.1002695858478546
-0.0992184206843376
-0.0965420678257942
-0.0927107334136962
-0.0881966277956962
-0.083429031074047
-0.0787612795829773
-0.0744382962584495
-0.0705739930272102
-0.0671498849987983
-0.0640337318181991
-0.0610095039010047
-0.0578128658235073
-0.0541723929345607
-0.0498510003089904
-0.044677946716547
-0.0385743156075477
-0.0315823704004287
-0.0238941982388496
-0.0158610567450523
-0.0079762004315853
-0.000832088291645
0.0049569010734558
0.0088602416217327
0.0105315260589122
0.0098763592541217
0.0070811361074447
0.0025991573929786
-0.0029040351510047
-0.0086309351027011
-0.0137427411973476
-0.0174525417387485
-0.0191121436655521
-0.0182792916893959
-0.0147528275847435
-0.0085756033658981
-1.7940998077392578e-05
0.010454311966896
0.0222375243902206
0.0346709005534648
0.0471161790192127
0.0590182282030582
0.069947175681591
0.0796265006065368
0.087941326200962
0.0949208512902259
0.1007032692432403
0.1054968610405922
0.1095430105924606
0.1130818501114845
0.1163235828280448
0.1194263845682144
0.1224670559167862
0.125395119190216
0.1279914677143097
0.1298623979091644
0.1304831504821777
0.1292871534824371
0.1257799714803695
0.1196462363004684
0.1108241230249404
0.0995349586009979
0.0862678661942482
0.0717281401157379
0.0567618533968925
0.0422655567526817
0.0290884710848331
0.0179410204291343
0.0093214251101017
0.0034648512955754
0.0003259475342929
-0.0003949250094592
0.0008085265872068
0.0033262553624808
0.0065164458937942
0.0097835436463356
0.0126374009996652
0.0147321550175547
0.015887327492237
0.0160869751125574
0.0154549740254879
0.0142163541167974
0.0126574821770191
0.0110910609364509
0.0098231509327888
0.0091198086738586
0.0091800540685653
0.0101134926080703
0.0119080767035484
0.0143894329667091
0.0171935446560382
0.0197759792208671
0.0214723050594329
0.0216033197939395
0.0195958949625492
0.0150842405855655
0.007967360317707
-0.0015826001763343
-0.0131487548351287
-0.0261230245232582
-0.0397868081927299
-0.0534120872616767
-0.06635632365942
-0.0781298652291297
-0.0884323194622993
-0.0971607789397239
-0.1043939441442489
-0.1103593856096267
-0.1153906732797622
-0.1198751628398895
-0.1241903305053711
-0.12863589823246
-0.1333789080381393
-0.1384247690439224
-0.1436161696910858
-0.1486577987670898
-0.153166115283966
-0.1567339301109314
-0.1589891612529754
-0.1596356332302093
-0.1584776937961578
-0.1554325968027115
-0.1505342572927475
-0.1439357250928878
-0.1359219402074813
-0.1269319355487823
-0.1175650358200073
-0.1085444316267967
-0.1006365641951561
-0.09454245865345
-0.0907811596989631
-0.0895898938179016
-0.0908668339252471
-0.0941725522279739
-0.0987845212221145
-0.1037832126021385
-0.1081535369157791
-0.1108951345086097
-0.111131876707077
-0.1082023009657859
-0.1017142161726951
-0.0915577337145805
-0.0778785645961761
-0.0610175132751464
-0.0414240509271621
-0.0195505321025848
0.0042556077241897
0.0298084989190101
0.0570307299494743
0.085805594921112
0.1158219128847122
0.1464939564466476
0.1769885420799255
0.2063353508710861
0.2335658371448516
0.2578355669975281
0.2785074114799499
0.2951885461807251
0.3077251315116882
0.3161569833755493
0.3206367492675781
0.3213380575180053
0.3183948099613189
0.3118989467620849
0.3019450902938843
0.2886860072612762
0.2723796665668487
0.2534244060516357
0.2323730587959289
0.2099206745624542
0.1868712902069091
0.1640835106372833
0.1423956900835037
0.1225488930940628
0.1051240563392639
0.0904913246631622
0.0787727013230323
0.0698309913277626
0.0632968470454216
0.0586341992020607
0.0552238151431083
0.0524388588964939
0.0497050285339355
0.0465491078794002
0.0426302589476108
0.037745252251625
0.0318121835589408
0.0248458907008171
0.0169328972697258
0.0082097575068473
-0.0011546984314918
-0.0109770447015762
-0.0210771784186363
-0.0312944874167442
-0.0415070280432701
-0.051658883690834
-0.0617907680571079
-0.0720555335283279
-0.0826944410800933
-0.0939698070287704
-0.1060792654752731
-0.1190808415412902
-0.1328455507755279
-0.1470444798469543
-0.161170482635498
-0.1745891273021698
-0.186608225107193
-0.1965543925762176
-0.203849047422409
-0.2080762088298797
-0.2090321630239486
-0.2067493200302124
-0.2014926373958587
-0.1937314867973327
-0.1840849220752716
-0.1732458770275116
-0.1619045138359069
-0.1506828814744949
-0.140080988407135
-0.1304385662078857
-0.1219162195920944
-0.1144975200295448
-0.1080158650875091
-0.1022017896175384
-0.0967339277267456
-0.0912816897034645
-0.0855438262224197
-0.0792908072471618
-0.0724157318472862
-0.0649921894073486
-0.0573174990713596
-0.04990915954113
-0.0434368923306465
-0.0385985001921653
-0.0359766073524951
-0.0359225273132324
-0.0384903214871883
-0.043420635163784
-0.0501658543944358
-0.0579475685954093
-0.065840259194374
-0.0728730112314224
-0.0781347230076789
-0.0808681100606918
-0.0805469900369644
-0.0769335851073265
-0.0700992941856384
-0.0603941567242145
-0.0483754836022853
-0.0347215756773948
-0.0201470218598842
-0.0053261071443557
0.0091688707470893
0.0229085348546504
0.03562618419528
0.0472169667482376
0.0577169544994831
0.0672686174511909
0.0760818421840667
0.0843949019908905
0.0924357697367668
0.1003831252455711
0.1083279326558113
0.1162339001893997
0.1238965541124343
0.1309195309877395
0.1367363333702087
0.1406864076852798
0.1421313881874084
0.1405831277370453
0.1358096748590469
0.1278928071260452
0.1172299310564994
0.1044931560754776
0.0905620902776718
0.0764384716749191
0.0631415396928787
0.0515880212187767
0.0424825996160507
0.0362487733364105
0.0330089032649993
0.0326049700379371
0.0346471965312957
0.0385801270604133
0.0437594577670097
0.0495322495698928
0.0553090795874595
0.0606182292103767
0.0651386007666587
0.0687112063169479
0.0713306814432144
0.0731186196208
0.0742776542901992
0.0750339031219482
0.0755891725420951
0.0760929584503173
0.0766250118613243
0.0771764665842056
0.0776228979229927
0.0776972100138664
0.0769864842295646
0.0749713480472564
0.0711073279380798
0.0649324879050254
0.056174274533987
0.0448282063007354
0.0311945006251335
0.0158677324652671
-0.0003237295895814
-0.0164193361997604
-0.0314404405653476
-0.0444913543760776
-0.0548422895371913
-0.061993408948183
-0.0657131448388099
-0.0660488605499267
-0.0633085817098617
-0.0580094903707504
-0.0508044511079788
-0.0424080789089202
-0.0335283316671848
-0.0247999187558889
-0.0167253427207469
-0.0096361935138702
-0.003686087206006
0.0011252425611019
0.0049155503511428
0.0078856721520423
0.0102842710912227
0.0123707763850688
0.0143803358078002
0.0164862796664237
0.0187539085745811
0.0210930220782756
0.0232283659279346
0.0247081406414508
0.0249615348875522
0.0233952216804027
0.0195039212703704
0.0129764154553413
0.0037751346826553
-0.0078353025019168
-0.0213071592152118
-0.0358563922345638
-0.0505345128476619
-0.0643291473388671
-0.0762794017791748
-0.0855843275785446
-0.0916909053921699
-0.0943488329648971
-0.0936217382550239
-0.0898576155304908
-0.0836281105875969
-0.0756475180387497
-0.0666797086596489
-0.0574431307613849
-0.0485368259251117
-0.0404039695858955
-0.0333225950598716
-0.0274064559489488
-0.0226140245795249
-0.0187726393342018
-0.0156192146241664
-0.0128493085503578
-0.0101653151214122
-0.0073205605149269
-0.0041579157114028
-0.0006420239806175
0.0031112022697925
0.0068101398646831
0.0099908262491226
0.0120707787573337
0.0124433562159538
0.010584507137537
0.0061548352241516
-0.0009179860353469
-0.0103970095515251
-0.0217442028224468
-0.0341736115515232
-0.046736754477024
-0.0584276355803012
-0.0682952404022216
-0.075549229979515
-0.0796459764242172
-0.0803438350558281
-0.0777151435613632
-0.072110429406166
-0.064087375998497
-0.0543268173933029
-0.0435513481497764
-0.0324515700340271
-0.0216217450797557
-0.0115058105438947
-0.0023543462157249
0.0057983752340078
0.0131199248135089
0.019926743581891
0.0266161635518074
0.0336056649684906
0.0412842482328414
0.0499734953045845
0.0598991438746452
0.0711744204163551
0.0837828069925308
0.0975422114133834
0.1120606288313865
0.1267217397689819
0.1407263725996017
0.1531893014907837
0.163272887468338
0.1703214645385742
0.1739581227302551
0.1741242110729217
0.1710626482963562
0.1652581691741943
0.1573528349399566
0.1480534374713897
0.1380470395088195
0.127940833568573
0.1182267963886261
0.1092515960335731
0.1011875718832016
0.0940315127372741
0.0876491889357566
0.0818474516272544
0.0764386653900146
0.0712772756814956
0.0662742555141449
0.0613995641469955
0.056672915816307
0.0521429330110549
0.0478603392839431
0.0438541769981384
0.0401156991720199
0.0365933179855346
0.0332017093896865
0.0298353731632232
0.0263731181621551
0.0226776152849197
0.0185971558094024
0.0139665454626083
0.0086084157228469
0.0023422539234161
-0.0049974173307418
-0.0135359317064285
-0.0233336091041564
-0.0343719124794006
-0.0465557724237442
-0.0597253888845443
-0.0736627876758575
-0.088088110089302
-0.1026593446731567
-0.1169955283403396
-0.1307263970375061
-0.1435433626174926
-0.155225396156311
-0.1656422615051269
-0.1747494339942932
-0.1825781762599945
-0.1892202794551849
-0.1948102712631225
-0.1995047926902771
-0.203458234667778
-0.2068018913269043
-0.2096333801746368
-0.2120159566402435
-0.2139808386564254
-0.2155293673276901
-0.2166444212198257
-0.2173113524913787
-0.2175287008285522
-0.2173022031784057
-0.2166356593370437
-0.2155288308858871
-0.2139831632375717
-0.2120173573493957
-0.209698349237442
-0.2071906626224517
-0.2048108875751495
-0.2030456960201263
-0.202491357922554
-0.2037150710821151
-0.2070838809013366
-0.2126269489526748
-0.2199848890304565
-0.2284507751464843
-0.2370665967464447
-0.2447457313537597
-0.2504082918167114
-0.2531127035617828
-0.2521638870239258
-0.2471814155578613
-0.2381196618080139
-0.2252461016178131
-0.2090863585472107
-0.1903431713581085
-0.1698034256696701
-0.1482506543397903
-0.1263894587755203
-0.1047812402248382
-0.0838058441877365
-0.0636656582355499
-0.0444173067808151
-0.0260049253702163
-0.0082885324954986
0.0089237391948699
0.0258377939462661
0.0426356047391891
0.0594426095485687
0.076302170753479
0.0931515097618103
0.1097965538501739
0.1259002536535263
0.1410035192966461
0.154584065079689
0.1661422401666641
0.1752874702215194
0.1818009465932846
0.1856708824634552
0.187108427286148
0.1865410804748535
0.1845766454935073
0.1819428205490112
0.1794110238552093
0.177710086107254
0.177441731095314
0.1790165454149246
0.1826201677322387
0.1882088929414749
0.1955327242612838
0.2041844725608825
0.2136659473180771
0.2234519124031067
0.2330373972654342
0.2419748604297638
0.2499091029167175
0.2566013932228088
0.2619361281394958
0.2659127116203308
0.2686258852481842
0.2702383697032928
0.2709522247314453
0.2709794640541076
0.2705098688602447
0.2696805596351623
0.2685495615005493
0.2670713663101196
0.265075147151947
0.2622526288032532
0.2581720054149627
0.2523362338542938
0.2442806363105774
0.2336772382259369
0.2204144150018692
0.2046379446983337
0.1867536902427673
0.1673960834741592
0.1473653018474578
0.1275427043437957
0.1087979450821876
0.091897465288639
0.0774274989962577
0.0657454878091812
0.0569651275873184
0.0509655401110649
0.0474153384566307
0.0458186566829681
0.0455853268504142
0.0461095571517944
0.0468386076390743
0.0473212525248527
0.0472356788814067
0.0464012250304222
0.0447764247655868
0.0424411743879318
0.0395628064870834
0.0363536961376667
0.033032227307558
0.0297961346805095
0.0268054604530334
0.0241589248180389
0.0218548439443111
0.0197488218545913
0.0175273139029741
0.0147154098376631
0.0107343401759862
0.0050044786185026
-0.0029379650950431
-0.0133465398102998
-0.0262072402983903
-0.0412186458706855
-0.0578108355402946
-0.0752019062638282
-0.0924809128046035
-0.1087004542350769
-0.1229686290025711
-0.1345396637916565
-0.1428972333669662
-0.1478073000907898
-0.1493218392133712
-0.1477395892143249
-0.1435436457395553
-0.1373283714056015
-0.1297219693660736
-0.1213168352842331
-0.1126211062073707
-0.1040316000580787
-0.0958215594291687
-0.0881438255310058
-0.0810479074716568
-0.0745015367865562
-0.0684128254652023
-0.0626587346196174
-0.0571221970021724
-0.0517254397273063
-0.0464462339878082
-0.0413232743740081
-0.0364695116877555
-0.0321023687720298
-0.0285763517022132
-0.0263852253556251
-0.026111900806427
-0.0283345058560371
-0.0335152074694633
-0.0418994277715683
-0.0534493997693061
-0.0678240209817886
-0.0844017267227172
-0.1023399829864502
-0.1206666231155395
-0.1383874118328094
-0.1545883566141128
-0.1685199290513992
-0.1796588003635406
-0.1877404451370239
-0.1927554607391357
-0.1949136853218078
-0.1945864558219909
-0.1922356188297271
-0.1883428692817688
-0.1833530366420745
-0.1776318848133087
-0.17143514752388
-0.1648947149515152
-0.1580346524715423
-0.1508140861988067
-0.1431690007448196
-0.1350321620702743
-0.1263397186994552
-0.1170392483472824
-0.1071045324206352
-0.0965561419725418
-0.0854837670922279
-0.0740680024027824
-0.0626050233840942
-0.0515337772667408
-0.0414473563432693
-0.0330591425299644
-0.0271105095744133
-0.0242390297353267
-0.0248485170304775
-0.0290167219936847
-0.0364509969949722
-0.0464896857738494
-0.0581499934196472
-0.0702200680971145
-0.0813857987523078
-0.0903733596205711
-0.0960816591978073
-0.0976860970258712
-0.0947036072611808
-0.0870135650038719
-0.074838176369667
-0.0586888343095779
-0.0392830371856689
-0.0174455791711807
0.0059810727834701
0.0302029401063919
0.0545239821076393
0.0783861950039863
0.1013960391283035
0.1233288198709487
0.1441072523593902
0.1637604236602783
0.182374507188797
0.2000440806150436
0.216834083199501
0.232758417725563
0.2477719187736511
0.2617710828781128
0.2746008336544037
0.28605917096138
0.2958817481994629
0.3037003874778747
0.3090119361877441
0.3112080991268158
0.3096745908260345
0.3039276599884033
0.2937462925910949
0.2792652249336242
0.2610061168670654
0.2398415207862854
0.2169036567211151
0.1934549808502197
0.1707371175289154
0.1498262286186218
0.1315246224403381
0.1162994652986526
0.1042620837688446
0.0951872393488884
0.0885757058858871
0.0837491899728775
0.0799570307135582
0.07647605240345
0.0726865902543068
0.0681212469935417
0.0624941289424896
0.0557112321257591
0.0478575527667999
0.0391602367162704
0.0299354717135429
0.0205334909260272
0.0112947784364223
0.0025202184915542
-0.0055591762065887
-0.012830227613449
-0.0193591006100177
-0.0254447422921657
-0.0316384471952915
-0.038704726845026
-0.0475144609808921
-0.0588876716792583
-0.0734254568815231
-0.0913727581501007
-0.1125406920909881
-0.136299192905426
-0.1616269946098327
-0.18720044195652
-0.21151864528656
-0.2330615520477295
-0.2504618465900421
-0.2626686692237854
-0.2690736949443817
-0.2695668935775757
-0.2645162642002105
-0.2546896040439605
-0.2411336898803711
-0.2250287532806396
-0.2075463831424713
-0.1897356808185577
-0.1724479347467422
-0.1562994718551635
-0.1416650116443634
-0.1286878883838653
-0.1172992065548896
-0.1072467863559722
-0.0981418490409851
-0.0895273759961128
-0.080951914191246
-0.0720283538103103
-0.0624791979789733
-0.0521812625229358
-0.0412189178168773
-0.0299410261213779
-0.0189869869500398
-0.0092368870973587
-0.0016799406148493
0.002762034535408
0.0034120380878448
-1.907534897327423e-05
-0.0073502417653799
-0.0179219599813222
-0.0306618865579366
-0.0442134551703929
-0.0571026913821697
-0.0679124742746353
-0.075442761182785
-0.0788384303450584
-0.077663704752922
-0.0719115734100341
-0.0619569830596447
-0.0484738200902938
-0.0323314666748046
-0.0144843682646751
0.00413129478693
0.0226831845939159
0.0405058786273002
0.0571380406618118
0.0723254084587097
0.0859908014535904
0.0981931313872337
0.109089121222496
0.1188919618725776
0.127827912569046
0.136101096868515
0.1438653469085693
0.1511916071176529
0.158024400472641
0.1641307473182678
0.1690621376037597
0.1721619963645935
0.1726395487785339
0.1697076708078384
0.1627505123615265
0.1514641940593719
0.1359363496303558
0.1166691035032272
0.094553917646408
0.0707950294017791
0.0467869751155376
0.0239735003560781
0.0037136301398277
-0.0128365866839885
-0.0248178876936435
-0.0317279621958732
-0.0334499031305313
-0.0302496738731861
-0.0227347947657108
-0.011772196739912
0.0016209706664085
0.0163867156952619
0.0315157733857631
0.0461187809705734
0.0594836771488189
0.0711125954985618
0.080732949078083
0.0882843285799026
0.0938852727413177
0.0977872461080551
0.1003225520253181
0.1018487066030502
0.1026926711201667
0.1031002551317215
0.1031834855675697
0.1028533056378364
0.101759634912014
0.0992837473750114
0.0946081727743148
0.0868643373250961
0.0753284618258476
0.059608444571495
0.0397676602005958
0.0163627453148365
-0.0095963403582572
-0.0367433540523052
-0.0634924322366714
-0.0882023721933364
-0.1093537807464599
-0.1257144212722778
-0.1364625692367553
-0.1412487924098968
-0.1401950716972351
-0.1338448673486709
-0.1230797171592712
-0.1090068817138671
-0.0928270518779754
-0.0757083147764206
-0.0586871095001697
-0.0425993427634239
-0.0280391480773687
-0.0153462141752243
-0.0046232677996158
0.0042208209633827
0.0114154927432537
0.0172753483057022
0.0221529752016067
0.026394635438919
0.0303024537861347
0.0341003462672233
0.0378871671855449
0.0415726751089096
0.0448170974850654
0.0470086559653282
0.0473145246505737
0.0448160246014595
0.0386971309781074
0.0284324213862419
0.0139251872897148
-0.004431702196598
-0.0257750488817691
-0.0488565117120742
-0.0721733570098877
-0.0941239073872566
-0.1131699159741401
-0.1279971897602081
-0.1376605182886123
-0.1416777968406677
-0.1400487571954727
-0.1332077980041504
-0.1219320967793464
-0.1072228103876113
-0.0901796519756317
-0.0718864277005195
-0.053319152444601
-0.0352824665606021
-0.0183724761009216
-0.00296226516366
0.0107900835573673
0.0229119695723056
0.0335739888250827
0.0430394671857357
0.051605861634016
0.0595551170408725
0.0671273618936538
0.0745060220360755
0.0818052738904953
0.0890625268220901
0.096229963004589
0.1031584367156028
0.1095763370394706
0.1150740534067154
0.1191129758954048
0.1210754513740539
0.1203537955880165
0.116461805999279
0.1091496720910072
0.0984936580061912
0.0849281325936317
0.0692148506641388
0.0523665770888328
0.0355336815118789
0.0198628008365631
0.0063524022698402
-0.0042639374732971
-0.0115857124328613
-0.0155631080269813
-0.0164728388190269
-0.0148577541112899
-0.0114387869834899
-0.0070162713527679
-0.0023739784955978
0.0018079131841659
0.0050153881311416
0.006924569606781
0.0073960721492767
0.0064552724361419
0.004263162612915
0.0010802596807479
-0.0027728527784347
-0.0069570541381835
-0.0111562311649322
-0.0151137262582778
-0.0186590999364852
-0.0217287391424179
-0.0243908911943435
-0.026878148317337
-0.0296074002981185
-0.0331549048423767
-0.0381775647401809
-0.045304849743843
-0.0550261959433555
-0.0675845816731453
-0.0828938707709312
-0.1005066633224487
-0.1196426749229431
-0.1392669975757599
-0.1582049876451492
-0.1752782762050628
-0.189437448978424
-0.1998730897903442
-0.2060952633619308
-0.2079673111438751
-0.205686405301094
-0.1997249275445938
-0.1907548606395721
-0.1795681864023208
-0.1669919341802597
-0.1538029164075851
-0.1406600177288055
-0.1280612200498581
-0.1163225024938583
-0.1055791452527046
-0.0958078652620315
-0.0868640169501304
-0.0785278230905532
-0.070551186800003
-0.0626951158046722
-0.0547555983066558
-0.0465824492275714
-0.0380920320749282
-0.0292802397161722
-0.020247409120202
-0.0112303309142589
-0.0026221964508295
0.0050399396568536
0.0111362375319004
0.0150683466345071
0.0163754895329475
0.0148316798731684
0.0105072474107146
0.0037835075054317
-0.0046813376247882
-0.0140226511284708
-0.0232620742172002
-0.0314141809940338
-0.0375961773097515
-0.0411281920969486
-0.0416104719042778
-0.0389568693935871
-0.0333749800920486
-0.025305900722742
-0.0153439901769161
-0.0041530206799507
0.0076105743646621
0.0193597599864006
0.0306204371154308
0.0410581715404987
0.0504862926900386
0.0588524863123893
0.0662107169628143
0.0726901814341545
0.0784682407975196
0.0837401673197746
0.0886808484792709
0.0934159457683563
0.0980149507522583
0.1024928241968154
0.1068054288625717
0.1108348071575164
0.1143635958433151
0.1170509606599807
0.1184408068656921
0.1180211007595062
0.1153218820691108
0.1100239753723144
0.1020482927560806
0.0916038081049919
0.0791890025138855
0.0655455142259597
0.0515683814883232
0.0381978191435337
0.0263190418481826
0.0166768059134483
0.009804829955101
0.0059793815016746
0.0052074119448661
0.0072476342320442
0.0116560757160186
0.0178505554795265
0.0251867622137069
0.0330310314893722
0.0408196784555912
0.0481060184538364
0.0545930378139019
0.0601379834115505
0.0647251605987548
0.0684282481670379
0.07137992978096
0.0737477913498878
0.0757127702236175
0.0774469673633575
0.0790929198265075
0.0807495042681694
0.0824585780501365
0.0841798409819603
0.0857532024383544
0.0868656188249588
0.0870506316423416
0.0857457816600799
0.0824024602770805
0.0766042917966842
0.0681537166237831
0.0571224391460418
0.0438702218234539
0.0290259253233671
0.0134301856160163
-0.001953188329935
-0.0161472037434577
-0.0282766669988632
-0.0376665629446506
-0.0439053401350975
-0.0468672029674053
-0.0467015169560909
-0.043796744197607
-0.0387178510427475
-0.0321235433220863
-0.0246835462749004
-0.0170135013759136
-0.009628664702177
-0.0029108971357345
0.0029080435633659
0.0077435132116079
0.011638319119811
0.0147309079766273
0.0172192342579364
0.019326839596033
0.0212721042335033
0.0232434459030628
0.0253790542483329
0.0277438201010227
0.0303034782409667
0.0328982770442962
0.0352157056331634
0.036778125911951
0.0369787588715553
0.0351803638041019
0.0308493785560131
0.0236792489886283
0.0136693734675645
0.001148619223386
-0.0132519975304603
-0.028666378930211
-0.0440884828567504
-0.0584833249449729
-0.0708991661667823
-0.0805668830871582
-0.0869736671447753
-0.0898977145552635
-0.0894059166312217
-0.0858297944068908
-0.0797193124890327
-0.0717669874429702
-0.0627138391137123
-0.0532599613070488
-0.0439969338476657
-0.0353667326271534
-0.0276434998959302
-0.0209368132054805
-0.0152155021205544
-0.0103433206677436
-0.0061155501753091
-0.0022935310844331
0.0013632985064759
0.0050694290548563
0.0089838653802871
0.01317775901407
0.0176089219748973
0.0221044812351465
0.0263446383178234
0.0298553984612226
0.0320369079709053
0.0322458855807781
0.0299156885594129
0.0246743466705083
0.0164309553802013
0.0054183043539524
-0.0078150946646928
-0.0224603228271007
-0.037531279027462
-0.0519603006541729
-0.064708188176155
-0.0748845785856247
-0.0818509235978126
-0.085278496146202
-0.0851575210690498
-0.0817669257521629
-0.0756142064929008
-0.0673567280173301
-0.0577168948948383
-0.0474034175276756
-0.0370454266667366
-0.0271426551043987
-0.0180383957922458
-0.0099161956459283
-0.0028119161725044
0.0033647939562797
0.0087956767529249
0.0137040875852108
0.01830979809165
0.0228051897138357
0.0273408982902765
0.0320090390741825
0.0368259474635124
0.0417077541351318
0.0464322194457054
0.0506076738238334
0.0536820366978645
0.0550068616867065
0.0539483912289142
0.0500172860920429
0.0429816134274005
0.0329382792115211
0.0203284211456775
0.0058943252079188
-0.0094053922221064
-0.0244991909712553
-0.0383129119873046
-0.0498807355761528
-0.0584442354738712
-0.0635236650705337
-0.0649523138999939
-0.0628734230995178
-0.0577010922133922
-0.0500510111451149
-0.0406552329659462
-0.0302735585719347
-0.01961007155478
-0.0092460066080093
0.0003948751837015
0.0090458095073699
0.0165830813348293
0.0230150185525417
0.0284646265208721
0.0331354402005672
0.037267979234457
0.0411010235548019
0.0448433980345726
0.0486527532339096
0.0526160821318626
0.0567250996828079
0.0608395114541053
0.0646461397409439
0.0676468163728714
0.0692075118422508
0.0686568990349769
0.0653976127505302
0.0590176954865455
0.0493930354714393
0.0367514044046402
0.0216775108128786
0.0050607114098966
-0.0120019968599081
-0.0283300038427114
-0.042792297899723
-0.0544337853789329
-0.0625763013958931
-0.0668770596385002
-0.0673391669988632
-0.0642777159810066
-0.0582503490149974
-0.0499726459383964
-0.0402356684207916
-0.0298261102288961
-0.0194498859345912
-0.0096716340631246
-0.0008786711841821
0.0067294500768184
0.0131270214915275
0.0184307973831892
0.0228582676500082
0.0266806166619062
0.0301783196628093
0.0336051806807518
0.037160038948059
0.0409660004079341
0.0450552850961685
0.0493434518575668
0.0535862296819686
0.0573477745056152
0.0600145794451236
0.0608670525252819
0.0591997802257537
0.0544622838497161
0.0463833585381507
0.0350481905043125
0.0209153536707162
0.0047787697985768
-0.0123154316097497
-0.0291857030242681
-0.0446472503244876
-0.0576386898756027
-0.067328080534935
-0.07319276034832
-0.0750677734613418
-0.0731466189026832
-0.0679254233837127
-0.0601100362837314
-0.0505150742828846
-0.0399705432355403
-0.0292414128780365
-0.0189623404294252
-0.0095922891050577
-0.0013967985287308
0.005544320680201
0.011310588568449
0.0160986296832561
0.0201759710907936
0.0238414034247398
0.0273838248103857
0.0310360677540302
0.0349401645362377
0.0391317345201969
0.0435302034020423
0.0479212924838066
0.0519328787922859
0.0550271868705749
0.0565414801239967
0.0557856783270835
0.052173089236021
0.0453472509980201
0.0352716371417045
0.0222648046910762
0.0069848904386162
-0.0096293240785598
-0.0264595858752727
-0.0423382967710495
-0.0561809539794921
-0.0671010911464691
-0.07449571788311
-0.0780894309282302
-0.077934131026268
-0.0743734836578369
-0.0679824352264404
-0.0594878457486629
-0.049675315618515
-0.0392963886260986
-0.0289980471134185
-0.0192807111889123
-0.0104741714894771
-0.0027288268320262
0.0039669717662036
0.0097402399405837
0.0147793032228946
0.0192962381988763
0.0235033128410577
0.0275926981121301
0.0317189916968345
0.0359832979738712
0.0404124371707439
0.0449307300150394
0.0493271239101886
0.0532278381288051
0.0561001151800155
0.0573110356926918
0.0562366619706153
0.0523892417550087
0.0455218479037284
0.0356868952512741
0.0232524313032627
0.0088842622935771
-0.0065089911222457
-0.0218672193586826
-0.0360956788063049
-0.0481907464563846
-0.0573537126183509
-0.063073068857193
-0.0651627406477928
-0.0637546703219413
-0.0592559725046157
-0.0522826388478279
-0.043575145304203
-0.033901996910572
-0.0239737592637538
-0.0143896508961915
-0.0056090801954269
0.0020679049193859
0.0085100037977099
0.0137445945292711
0.0179240405559539
0.0212800726294517
0.0240835025906562
0.0266091749072074
0.0290990360081195
0.0317283347249031
0.0345823094248771
0.0376378446817398
0.0407397374510765
0.043574970215559
0.0456642061471939
0.0463927015662193
0.0450944826006889
0.0411805659532547
0.034273475408554
0.0243063978850841
0.01156647503376
-0.0033169444650411
-0.0194326229393482
-0.0356900878250598
-0.0509476251900196
-0.0641432553529739
-0.0744129568338394
-0.0811806246638298
-0.0842031091451644
-0.0835676342248916
-0.079654537141323
-0.0730755627155304
-0.0645897686481475
-0.0550053268671035
-0.0450845584273338
-0.035466942936182
-0.0266181491315364
-0.0188103578984737
-0.0121303694322705
-0.0065054739825427
-0.0017450817395001
0.0024068709462881
0.0062231691554188
0.0099558094516396
0.0138102136552333
0.0179256461560726
0.0223467219620943
0.0269808154553174
0.0315559171140193
0.0356033332645893
0.0384918116033077
0.039517804980278
0.0380280390381813
0.0335470400750637
0.0258821286261081
0.015181889757514
0.0019449610263109
-0.0130180139094591
-0.028668388724327
-0.043854720890522
-0.0574372634291648
-0.0684088841080665
-0.0760080963373184
-0.079808585345745
-0.0797555297613143
-0.0761368945240974
-0.0695059597492218
-0.0605841018259525
-0.0501690357923507
-0.0390541069209575
-0.0279562175273895
-0.0174592398107051
-0.0079805850982666
0.0002378933131694
0.0071148555725812
0.0126963965594768
0.0171222407370805
0.0206010714173316
0.0233833882957696
0.0257205311208963
0.0278213769197464
0.029823325574398
0.0317699052393436
0.0335760600864887
0.0349862203001976
0.0355561897158622
0.0346893444657325
0.0317339710891246
0.0261183064430952
0.0174823720008134
0.0057688821107149
-0.0087421610951423
-0.0254429653286933
-0.0434371195733547
-0.0616188123822212
-0.0788023918867111
-0.0938723534345626
-0.1059055775403976
-0.1142459958791732
-0.1185377836227417
-0.1187232285737991
-0.1150062382221221
-0.1077891364693641
-0.0976001471281051
-0.0850217342376709
-0.070623904466629
-0.0549112111330032
-0.0382915586233139
-0.0210619270801544
-0.003403253853321
0.0146063491702079
0.0329503118991851
0.0516227558255195
0.0705933421850204
0.0897913575172424
0.1090989410877227
0.1283434927463531
0.1472865939140319
0.1656150370836258
0.1829409003257751
0.1988133043050766
0.212743729352951
0.2242481112480163
0.2328975200653076
0.2383628487586975
0.2404476702213287
0.2391040027141571
0.234427660703659
0.226649209856987
0.2161366045475006
0.2033954411745071
0.1890448927879333
0.1737700551748275
0.158266395330429
0.1431840807199478
0.1290740519762039
0.1163423359394073
0.1052191630005836
0.0957428514957428
0.0877640396356582
0.0809782892465591
0.0749800056219101
0.0693191885948181
0.0635515004396438
0.0572875328361988
0.0502466782927513
0.0423047319054603
0.0335139408707618
0.0240846946835517
0.0143382102251052
0.0046475529670715
-0.0046186745166778
-0.0131422504782676
-0.0206934437155723
-0.0271662771701812
-0.0326105207204818
-0.0372549891471862
-0.0415092781186103
-0.0459329262375831
-0.0511707887053489
-0.0578529387712478
-0.0664682686328888
-0.0772486627101898
-0.0901010781526565
-0.1045994460582733
-0.1200299561023712
-0.1354766488075256
-0.1499357372522354
-0.1624461561441421
-0.1722112447023391
-0.1786863505840301
-0.1816214323043823
-0.1810582727193832
-0.1772935092449188
-0.1708247810602188
-0.1622887998819351
-0.1523874402046203
-0.1418040841817855
-0.1311273425817489
-0.1207989975810051
-0.1110938116908073
-0.102127268910408
-0.0938808247447013
-0.0862374156713485
-0.0790217220783233
-0.0720405429601669
-0.0651213079690933
-0.0581444203853607
-0.0510594621300697
-0.0438836440443992
-0.0367002561688423
-0.0296715274453163
-0.0230532363057136
-0.0171859711408615
-0.0124522596597671
-0.0092114135622978
-0.00773835927248
-0.0081828236579895
-0.0105452537536621
-0.0146646499633789
-0.0202214568853378
-0.0267580077052116
-0.0337163619697093
-0.0404918640851974
-0.0464953854680061
-0.0512127801775932
-0.0542581975460052
-0.0554200857877731
-0.0546827800571918
-0.0522085018455982
-0.0482916533946991
-0.0433083698153495
-0.0376712679862976
-0.0317871421575546
-0.0260169766843318
-0.0206431895494461
-0.015850730240345
-0.0117254257202148
-0.0082620829343795
-0.005371943116188
-0.0028922669589519
-0.0006093494594097
0.0017006918787956
0.0042237378656864
0.0070712640881538
0.0102652348577976
0.0137376710772514
0.0173357855528593
0.020832622423768
0.0239530317485332
0.0264192316681146
0.0280027277767658
0.0285665839910507
0.0280934367328882
0.0267000887542963
0.0246344245970249
0.0222515352070331
0.0199741721153259
0.0182374473661184
0.0174208134412765
0.0177901722490787
0.0194691680371761
0.0224377028644084
0.0265461392700672
0.0315382182598114
0.0370839647948741
0.0428192988038063
0.0483830980956554
0.0534466840326786
0.0577339492738246
0.0610350370407104
