bvp
0.0249715186655521
0.0203348211944103
0.0144178569316864
0.0076303612440824
0.0005070278421044
-0.0063542043790221
-0.0123668191954493
-0.0170285012573003
-0.0199819654226303
-0.0210516359657049
-0.0202493853867054
-0.0177556313574314
-0.0138831743970513
-0.0090285316109657
-0.0036188997328281
0.0019334712997078
0.0072611346840858
0.0120610175654292
0.0161143094301223
0.0193047858774662
0.0216242633759975
0.0231593251228332
0.0240647494792938
0.0245325155556201
0.0247617829591035
0.0249327924102544
0.0251862779259681
0.025607481598854
0.026210967451334
0.0269280634820461
0.0276052299886941
0.0280139613896608
0.0278723612427711
0.0268879923969507
0.0248181857168674
0.0215259455144405
0.017018511891365
0.0114638023078441
0.0051782764494419
-0.0014117211103439
-0.0078238695859909
-0.0135794896632432
-0.0182624831795692
-0.0215689688920974
-0.0233407989144325
-0.0235798731446266
-0.022437285631895
-0.0201820582151412
-0.0171688012778759
-0.0138075090944767
-0.0105237290263175
-0.0077101457864046
-0.0056810900568962
-0.0046398490667343
-0.004663597792387
-0.0057038031518459
-0.0075995437800884
-0.0101055353879928
-0.0129297859966754
-0.0157695673406124
-0.0183434933423995
-0.0204230677336454
-0.0218631699681282
-0.0226346496492624
-0.0228577069938182
-0.0228157564997673
-0.0229305978864431
-0.0237025860697031
-0.0256300158798694
-0.0291192792356014
-0.0344010926783084
-0.0414712093770504
-0.0500642545521259
-0.0596623644232749
-0.0695415139198303
-0.0788521245121955
-0.086723156273365
-0.0923732444643974
-0.0952059775590896
-0.0948764160275459
-0.0913287699222564
-0.0847990438342094
-0.0757759287953376
-0.0649277567863464
-0.0530144609510898
-0.0408011265099048
-0.0289818588644266
-0.0181217342615127
-0.0086231315508484
-0.0007145423442125
0.0055451542139053
0.010250486433506
0.013622305355966
0.015978030860424
0.0177029389888048
0.0192044507712125
0.0208380836993455
0.0228284038603305
0.0252147428691387
0.0278326496481895
0.0303348749876022
0.0322498455643653
0.0330637656152248
0.0323100462555885
0.0296515561640262
0.0249429885298013
0.0182642191648483
0.0099166873842477
0.0003813244402408
-0.0097546111792325
-0.0198938623070716
-0.0295370668172836
-0.0383725762367248
-0.0463067218661308
-0.0534178465604782
-0.0598593838512897
-0.0657495856285095
-0.0710734724998474
-0.0756228566169738
-0.0790034681558609
-0.0807084366679191
-0.0802203267812728
-0.0771037265658378
-0.0710731893777847
-0.0620342120528221
-0.0500959306955337
-0.0355504602193832
-0.0188234448432922
-0.0004215613007545
0.0190981999039649
0.0391331911087036
0.0590230040252208
0.0780443400144577
0.0954454690217971
0.1105256974697113
0.1227258816361427
0.1316955983638763
0.1373281031847
0.1397658288478851
0.1393812000751495
0.1367368102073669
0.1325266808271408
0.1275007575750351
0.1223698928952217
0.1176996678113937
0.1138329654932022
0.1108739227056503
0.1087240278720855
0.1071470975875854
0.1058428734540939
0.104507640004158
0.102873295545578
0.1007265821099281
0.0979067683219909
0.0942934155464172
0.0898155570030212
0.0844929367303848
0.0784754306077957
0.0720350369811058
0.0654948502779007
0.0591262765228748
0.0530686154961586
0.0473025627434253
0.0416764058172702
0.0359661467373371
0.0299412347376346
0.0234136115759611
0.0162650309503078
0.0084555251523852
2.0869076251983643e-05
-0.0089330486953258
-0.0182416923344135
-0.0277002174407243
-0.037076249718666
-0.0461107604205608
-0.0545207783579826
-0.0620168894529342
-0.0683288946747779
-0.0732301324605941
-0.0765590742230415
-0.0782318338751792
-0.0782441049814224
-0.0766730085015297
-0.0736788585782051
-0.0694954544305801
-0.0644064024090766
-0.0587138235569
-0.0527082532644271
-0.0466445013880729
-0.0407191701233387
-0.0350494645535945
-0.029668029397726
-0.0245422516018152
-0.0196016170084476
-0.0147560331970453
-0.0099086519330739
-0.0049710609018802
0.000117627903819
0.0053703933954238
0.0107341520488262
0.0160713382065296
0.021144101396203
0.0256177801638841
0.0290942806750535
0.0311721041798591
0.031524185091257
0.0299745202064514
0.0265435427427291
0.0214462839066982
0.0150588192045688
0.0078749768435955
0.0004559457302093
-0.0066302344202995
-0.012871254235506
-0.0178659725934267
-0.0213665086776018
-0.023296870291233
-0.0237403661012649
-0.0229031611233949
-0.0210697632282972
-0.018559681251645
-0.0156877413392066
-0.012731309980154
-0.00990841537714
-0.0073664113879203
-0.0051789991557598
-0.0033538080751895
-0.0018518753349781
-0.0006120316684246
0.0004322342574596
0.0013462118804454
0.002185121178627
0.0029761269688606
0.003699205815792
0.0042707473039627
0.0045318156480789
0.0042554810643196
0.0031889528036117
0.0011214055120944
-0.0020579136908054
-0.0063366517424583
-0.0115808099508285
-0.0175422951579093
-0.0238736383616924
-0.030156172811985
-0.0359409898519516
-0.040799256414175
-0.0443747490644454
-0.0464280806481838
-0.0468649268150329
-0.0457444079220294
-0.0432628989219665
-0.039712768048048
-0.0354265756905078
-0.0307217929512262
-0.0258627645671367
-0.0210500210523605
-0.0164239853620529
-0.01206486672163
-0.0079927556216716
-0.0041811466217041
-0.0005811378359794
0.0028528794646263
0.0061346665024757
0.0092145949602127
0.0119574777781963
0.0141423046588897
0.015479989349842
0.015634149312973
0.0142434500157833
0.0109587423503398
0.0054951235651969
-0.0023176036775112
-0.0124958343803882
-0.0248757451772689
-0.0391054190695285
-0.0546620339155197
-0.0708900541067123
-0.0870497077703476
-0.1023677140474319
-0.1160831898450851
-0.1274825781583786
-0.1359310150146484
-0.1409153491258621
-0.1420934051275253
-0.1393267065286636
-0.1326894760131836
-0.1224661469459533
-0.1091404631733894
-0.0933581665158271
-0.0758576542139053
-0.0573905110359191
-0.0386572256684303
-0.0202713385224342
-0.0027494840323925
0.0134867075830698
0.0281083714216947
0.0408811867237091
0.0516695454716682
0.0604353547096252
0.0672250539064407
0.0721458122134208
0.0753296315670013
0.0768826305866241
0.0768364742398262
0.0751364603638649
0.0716820731759071
0.0663997530937194
0.0593133419752121
0.0505900382995605
0.0405562594532966
0.029685128480196
0.0185589678585529
0.0078132320195436
-0.0019271485507488
-0.0101090632379055
-0.0163043290376663
-0.020246721804142
-0.0218461193144321
-0.0211822092533111
-0.0184849314391613
-0.0141049362719058
-0.0084732882678508
-0.0020523816347122
0.0047150254249572
0.0114479027688503
0.0178521983325481
0.0237306337803602
0.0289794951677322
0.0335738509893417
0.0375466123223304
0.0409650951623916
0.043905634433031
0.0464284643530845
0.0485535934567451
0.0502304881811142
0.051303818821907
0.0515041947364807
0.0504866503179073
0.0479043722152709
0.0434900559484958
0.0371240824460983
0.0288770794868469
0.0190211907029151
0.008013404905796
-0.003539640456438
-0.0149315372109413
-0.0254222005605697
-0.0343152843415737
-0.0410329736769199
-0.0451746620237827
-0.0465579628944397
-0.0452408343553543
-0.0415083579719066
-0.0358176603913307
-0.0287201255559921
-0.0207816287875175
-0.0125149562954902
-0.0043355077505111
0.0034582763910293
0.0106878243386745
0.0172872729599475
0.023286148905754
0.0287808552384376
0.0338974334299564
0.0387579314410686
0.0434605292975902
0.0480616986751556
0.0525465682148933
0.0567968040704727
0.0605777129530906
0.0635571926832199
0.0653573423624038
0.0656287372112274
0.0641247034072876
0.0607536062598228
0.055603802204132
0.0489442013204097
0.0411999002099037
0.0329064950346946
0.0246556662023067
0.0170421823859214
0.0106121636927127
0.005807526409626
0.0029126740992069
0.0020246468484401
0.0030575580894947
0.0057713910937309
0.0098130293190479
0.0147644989192485
0.0201952569186687
0.0257093459367752
0.0309776179492473
0.035756692290306
0.0399011857807636
0.043367501348257
0.0462033189833164
0.0485278144478797
0.0505105257034301
0.0523406788706779
0.0541832000017166
0.0561418905854225
0.0582414343953132
0.0604140013456344
0.0624832957983017
0.0641623586416244
0.0650837272405624
0.0648604035377502
0.0631585121154785
0.0597614459693431
0.0546140000224113
0.0478424355387687
0.0397489666938781
0.0307844337075948
0.0215064063668251
0.0125201363116502
0.0043995846062898
-0.0023905001580715
-0.0075433366000652
-0.0109261479228734
-0.0125756356865167
-0.0126789659261703
-0.0115420091897249
-0.0095464885234832
-0.00709930062294
-0.0045828185975551
-0.0023161582648754
-0.0005292706191539
0.0006518363952636
0.0012071132659912
0.0012113340198993
0.000806238502264
0.0001534298062324
-0.0006144046783447
-0.0014244392514228
-0.0022815763950347
-0.0032867044210433
-0.004655010998249
-0.0067194998264312
-0.0098997727036476
-0.0146255195140838
-0.0212310962378978
-0.0298612676560878
-0.0404252186417579
-0.0526107810437679
-0.0659433528780937
-0.0798584297299385
-0.0937646254897117
-0.107092909514904
-0.1193327605724334
-0.1300552487373352
-0.138929545879364
-0.1457372456789016
-0.1503782868385315
-0.1528631746768951
-0.1532978862524032
-0.1518683433532714
-0.1488217860460281
-0.1444431543350219
-0.1390303671360016
-0.1328700631856918
-0.1262123584747314
-0.1192472726106643
-0.112092986702919
-0.1048038378357887
-0.097389779984951
-0.0898336544632911
-0.0821044668555259
-0.07416832447052
-0.0659986585378646
-0.0575926080346107
-0.0489982813596725
-0.040345836430788
-0.0318654179573059
-0.0238789692521095
-0.0167631730437278
-0.0108924508094787
-0.0065782573074102
-0.0040153879672288
-0.003247270360589
-0.0041613243520259
-0.0065021850168704
-0.0098866671323776
-0.0138263814151287
-0.0177693590521812
-0.0211610570549964
-0.0235107317566871
-0.0244424864649772
-0.0237226225435733
-0.0212684907019138
-0.0171427130699157
-0.0115311816334724
-0.004707746207714
0.003006987273693
0.0112871006131172
0.0198306180536746
0.0283687934279441
0.0366718769073486
0.0445651188492774
0.0519446320831775
0.0587794221937656
0.0650999769568443
0.0709827914834022
0.0765339732170105
0.0818681269884109
0.0870824307203292
0.0922269523143768
0.0972729623317718
0.1020899340510368
0.106448046863079
0.1100535243749618
0.1126044243574142
0.113845594227314
0.1136127859354019
0.1118651926517486
0.1087065041065216
0.1043941900134086
0.0993313416838646
0.0940330177545547
0.0890705212950706
0.0850057750940322
0.0823260620236396
0.0813908651471138
0.0824009329080581
0.0853889212012291
0.0902283191680908
0.0966607853770256
0.1043304204940795
0.112809844315052
0.1216267943382263
0.1303048431873321
0.138411208987236
0.1455953568220138
0.1516094207763672
0.1563117355108261
0.1596609503030777
0.1617054641246795
0.1625661700963974
0.162409022450447
0.161411851644516
0.1597349345684051
0.157500147819519
0.1547755897045135
0.1515608727931976
0.1477782726287841
0.1432814449071884
0.1378800272941589
0.1313663721084594
0.1235427632927894
0.1142591461539268
0.1034555211663246
0.0911878645420074
0.0776285529136657
0.063050702214241
0.0478046536445617
0.0322838425636291
0.0168797373771667
0.001941904425621
-0.0122440010309219
-0.0254709720611572
-0.03763148188591
-0.0487322658300399
-0.0588840097188949
-0.068268746137619
-0.0771010816097259
-0.0855911970138549
-0.0939134061336517
-0.1021855026483535
-0.1104606837034225
-0.1187334582209587
-0.1269596815109253
-0.1350779086351394
-0.1430163085460662
-0.1506881117820739
-0.1579913645982742
-0.1648229211568832
-0.1711066961288452
-0.1768228411674499
-0.1820216178894043
-0.1868171095848083
-0.1913652718067169
-0.195835143327713
-0.2003820836544037
-0.2051243036985397
-0.2101218104362487
-0.2153618782758712
-0.2207540869712829
-0.2261355519294738
-0.2312843650579452
-0.2359349429607391
-0.2397935092449188
-0.2425629496574401
-0.2439793646335601
-0.2438458204269409
-0.2420538961887359
-0.2385922819375991
-0.2335392832756042
-0.2270427048206329
-0.2192970812320709
-0.2105237990617752
-0.2009521573781967
-0.1908015310764312
-0.180265873670578
-0.1694989800453186
-0.1586027443408966
-0.1476249694824218
-0.1365670263767242
-0.1253994703292846
-0.1140849590301513
-0.1026025265455246
-0.0909650102257728
-0.0792282968759536
-0.0674936324357986
-0.0559041984379291
-0.04463791847229
-0.0338951051235199
-0.0238794330507516
-0.0147754475474357
-0.0067273303866386
0.0001787282526493
0.0059297382831573
0.010599099099636
0.0143518708646297
0.0174299031496047
0.0201138108968734
0.0226814001798629
0.0253810882568359
0.0284185409545898
0.0319495499134063
0.0360758379101753
0.0408403873443603
0.0462218225002288
0.0521358996629715
0.0584513992071151
0.0650139674544334
0.0716673582792282
0.0782703608274459
0.0847095549106597
0.0909069329500198
0.0968184694647789
0.1024205982685089
0.1076942384243011
0.1126216650009155
0.1171944886445999
0.1214179843664169
0.1253047734498977
0.1288597285747528
0.1320584863424301
0.1348231881856918
0.1370048820972442
0.1383854448795318
0.1387057900428772
0.1377153843641281
0.1352286785840988
0.1311747282743454
0.1256272047758102
0.1188055947422981
0.1110554412007331
0.1028195694088935
0.0945977345108985
0.0868916139006614
0.0801481008529663
0.0747157782316207
0.0708167776465416
0.0685340836644172
0.0678168684244155
0.0684998705983161
0.0703312009572982
0.0730052664875984
0.0762018784880638
0.0796276852488517
0.0830410197377204
0.0862513110041618
0.0891135483980178
0.0915328562259674
0.0934701785445213
0.0949398577213287
0.0959991365671157
0.096730925142765
0.0972248017787933
0.0975618809461593
0.0977976396679878
0.0979308784008026
0.0978625863790512
0.0973695144057273
0.0961191952228546
0.0937276482582092
0.0898292288184166
0.0841336473822593
0.0764780342578888
0.0668800324201583
0.0555742792785167
0.0430139936506748
0.029832050204277
0.0167646184563636
0.004552699625492
-0.0061498284339904
-0.0148378908634185
-0.0211846902966499
-0.0250528380274772
-0.0264968127012252
-0.0257517397403717
-0.0231980830430984
-0.01930683106184
-0.0145837366580963
-0.0095174573361873
-0.0045253708958625
9.33706760406494e-05
0.0041818171739578
0.0077217184007167
0.0108070448040962
0.0136049389839172
0.0163129512220621
0.0191181134432554
0.0221685227006673
0.0255649033933877
0.0293630436062812
0.0335676334798336
0.0381030142307281
0.0427631065249443
0.0471695065498352
0.0507762096822261
0.0529321506619453
0.0529828369617462
0.0503852851688861
0.0448165237903595
0.036258790642023
0.0250391624867916
0.0118044521659612
-0.0025695003569126
-0.0171115323901176
-0.030895996838808
-0.0431600138545036
-0.0533770062029361
-0.0612799152731895
-0.0668495744466781
-0.0702838748693466
-0.0719407796859741
-0.0722546428442001
-0.071647897362709
-0.0704579502344131
-0.0688929408788681
-0.0670283436775207
-0.0648393705487251
-0.0622485727071762
-0.0591692999005317
-0.0555327385663986
-0.051298189908266
-0.0464571639895439
-0.0410354733467102
-0.0350874885916709
-0.0286861099302768
-0.0219206288456916
-0.0148983243852853
-0.0077379867434501
-0.0005647279322147
0.006473209708929
0.0131644308567047
0.0191976241767406
0.0241603218019008
0.0275824330747127
0.0290097519755363
0.0280862301588058
0.0246249996125698
0.0186552032828331
0.0104391872882843
0.0004540979862213
-0.0106641426682472
-0.0222048461437225
-0.0334714651107788
-0.0438518598675727
-0.052862849086523
-0.0601738989353179
-0.065615639090538
-0.0691768527030944
-0.070990540087223
-0.0713089853525161
-0.0704688727855682
-0.068850427865982
-0.0668388232588768
-0.0647885873913765
-0.0629810541868209
-0.0615781247615814
-0.060600109398365
-0.0599445812404155
-0.0594266690313816
-0.0588170737028121
-0.0578726343810558
-0.0563592612743377
-0.0540709272027015
-0.0508488304913044
-0.0465970784425735
-0.0412956401705741
-0.0350177772343158
-0.0279514975845813
-0.0204151645302772
-0.0128545127809047
-0.0058062262833118
0.0001763701438903
0.0046142376959323
0.0071803592145442
0.007749643176794
0.0064163133502006
0.0034776888787746
-0.0006070286035537
-0.0052690021693706
-0.0098877251148223
-0.0138577446341514
-0.0166623909026384
-0.0179439708590507
-0.0175561606884002
-0.0155842024832963
-0.0123225767165422
-0.0082116182893514
-0.0037501864135265
0.0005875304341316
0.0044102929532527
0.0074480660259723
0.00958270765841
0.0108634606003761
0.0114907976239919
0.0117650497704744
0.0120128020644187
0.0125124845653772
0.0134369358420372
0.0148206837475299
0.0165519826114177
0.0183888562023639
0.0199979525059461
0.0210049711167812
0.0210347063839435
0.019720010459423
0.016683030873537
0.0115294735878705
0.0038911309093236
-0.0064979400485754
-0.0197291504591703
-0.035670667886734
-0.0539461635053157
-0.0739431455731391
-0.0948491394519805
-0.1157089695334434
-0.1354991346597671
-0.1532177329063415
-0.1679790914058685
-0.1790923625230789
-0.1861092299222946
-0.1888433843851089
-0.1873704642057418
-0.1820046305656433
-0.1732473075389862
-0.1617157757282257
-0.1480684280395507
-0.1329441666603088
-0.1169223934412002
-0.1004982814192771
-0.084069550037384
-0.0679302737116813
-0.0522702187299728
-0.0371844470500946
-0.0226938426494598
-0.0087650418281555
0.0046759694814682
0.0177251622080802
0.0304675921797752
0.0429422184824943
0.0551200956106185
0.0668926760554313
0.0780592560768127
0.0883171185851097
0.0972720384597778
0.1044830456376075
0.1095381900668144
0.1121420413255691
0.1121869832277298
0.1097883582115173
0.1052829623222351
0.0992012694478035
0.092220164835453
0.0850924178957939
0.0785557180643081
0.0732443481683731
0.0696237236261367
0.0679558292031288
0.0683002173900604
0.0705451741814613
0.0744552016258239
0.0797230824828147
0.0860162824392318
0.0930104181170463
0.1004084125161171
0.107950821518898
0.1154266893863678
0.1226897090673446
0.1296710073947906
0.1363706737756729
0.1428260207176208
0.1490784436464309
0.1551538854837417
0.1610552817583084
0.1667647957801818
0.1722513288259506
0.1774756610393524
0.1823912262916565
0.1869384348392486
0.1910263001918792
0.1945068538188934
0.1971620619297027
0.1987207382917404
0.1989086270332336
0.1975167393684387
0.1944539248943328
0.1897600442171096
0.1835930794477462
0.1762119233608245
0.1679533272981643
0.1591928154230117
0.1502964794635772
0.141581654548645
0.1332943439483642
0.1255967766046524
0.1185590773820877
0.1121556460857391
0.1062686890363693
0.1007018834352493
0.0952064394950866
0.0895151123404502
0.0833699703216552
0.0765357166528701
0.0688100531697273
0.0600411742925643
0.0501429140567779
0.0390985161066055
0.0269576758146286
0.013832077383995
-0.0001160055398941
-0.0146965682506561
-0.0297188758850097
-0.0450124591588974
-0.0604400113224983
-0.0759083330631256
-0.0913797840476036
-0.1068773046135902
-0.1224771589040756
-0.1382906138896942
-0.1544325351715088
-0.1709755659103393
-0.1879051029682159
-0.2050856649875641
-0.2222323566675186
-0.2388886064291
-0.2544241845607757
-0.2680673003196716
-0.2789766490459442
-0.2863496541976928
-0.2895491123199463
-0.2882142961025238
-0.2823234796524048
-0.2721981406211853
-0.2584599256515503
-0.2419583797454834
-0.2236809432506561
-0.2046523243188858
-0.1858355849981308
-0.1680477857589721
-0.1518990248441696
-0.1377603262662887
-0.1257577836513519
-0.115787997841835
-0.1075570657849311
-0.1006428450345993
-0.0945683866739273
-0.0888751298189163
-0.0831882655620575
-0.0772630125284195
-0.0710062980651855
-0.0644793957471847
-0.0578862987458705
-0.0515496172010898
-0.0458744429051876
-0.0413010194897651
-0.0382503382861614
-0.0370661579072475
-0.0379577204585075
-0.0409533381462097
-0.0458732768893241
-0.0523270703852176
-0.059741586446762
-0.0674154609441757
-0.0745798349380493
-0.0804538503289222
-0.0843055695295333
-0.0855266898870468
-0.0837098211050033
-0.0787200778722763
-0.0707590356469154
-0.06038149446249
-0.0483996644616127
-0.035678394138813
-0.0229204185307025
-0.0105491271242499
0.0012787394225597
0.0125836618244647
0.0234744735062122
0.0340889655053615
0.0445494577288627
0.0549243539571762
0.0651988834142685
0.0752645060420036
0.084941953420639
0.0940314084291458
0.1023610830307006
0.1098153889179229
0.1163395941257476
0.1219231337308883
0.1265653520822525
0.1302323043346405
0.1328188776969909
0.1341272294521331
0.1338673532009124
0.1316867619752884
0.1272327899932861
0.1202320531010627
0.1105564683675766
0.0982608795166015
0.0836026072502136
0.0670525431632995
0.0492894425988197
0.0311577301472425
0.0135809108614921
-0.0025452077388763
-0.0164398811757564
-0.027491707354784
-0.0352973565459251
-0.0396944619715213
-0.0407749861478805
-0.0388670712709426
-0.0344837717711925
-0.0282461568713188
-0.0208094753324985
-0.0128166787326335
-0.0048636868596076
0.0025435052812099
0.0090304277837276
0.0143766961991786
0.0185118168592453
0.0214917473495006
0.0234695430845022
0.0246621388942003
0.0253127329051494
0.0256508495658636
0.025849251076579
0.0259785149246454
0.0259687975049018
0.0255993753671646
0.0245291739702224
0.0223605446517467
0.0187244676053524
0.013374887406826
0.0062663592398166
-0.0024122484028339
-0.0122568048536777
-0.0227080471813678
-0.0331287905573844
-0.0428790487349033
-0.0513847097754478
-0.0581959038972854
-0.0630231201648712
-0.0657471343874931
-0.066409632563591
-0.0651903375983238
-0.0623778104782104
-0.0583396255970001
-0.0534849241375923
-0.048213668167591
-0.0428675413131713
-0.0377007648348808
-0.0328718274831771
-0.0284488722681999
-0.0244256108999252
-0.0207443386316299
-0.0173195227980613
-0.0140559375286102
-0.0108559653162956
-0.0076130181550979
-0.0041935071349143
-0.0004170387983322
0.0039448961615562
0.0091323852539062
0.0153274834156036
0.0225794464349746
0.0307502299547195
0.0394932404160499
0.0482717156410217
0.0564171820878982
0.0632185190916061
0.0680219754576683
0.0703248232603073
0.069852165877819
0.0666085630655288
0.0608976408839225
0.0533105060458183
0.044689230620861
0.0360591635107994
0.0285169258713722
0.0230847969651222
0.0205605179071426
0.0213906317949295
0.0255975201725959
0.0327819660305976
0.0421954989433288
0.052856795489788
0.0636879876255989
0.0736520066857338
0.0818790197372436
0.0877726674079895
0.0910767242312431
0.0918827950954437
0.0905798077583313
0.0877587497234344
0.0840942114591598
0.0802381783723831
0.0767492726445198
0.0740496516227722
0.0723977014422416
0.0718755275011062
0.0723859071731567
0.0736480802297592
0.0752025544643402
0.0764527320861816
0.0767506211996078
0.0755026638507843
0.072261705994606
0.0667869076132774
0.0590737089514732
0.0493518039584159
0.0380461104214191
0.0257162638008594
0.0129956305027008
0.0005364827811717
-0.0110382288694381
-0.0211762674152851
-0.0294328518211841
-0.035503152757883
-0.0392416045069694
-0.0406602695584297
-0.0399112999439239
-0.0372560322284698
-0.0330192781984806
-0.0275361500680446
-0.0211032964289188
-0.0139492098242044
-0.0062317606061697
0.0019488167017698
0.0105321165174245
0.0194709450006485
0.0287015251815319
0.0381259731948375
0.0476073920726776
0.0569644682109355
0.065957099199295
0.0742689818143844
0.0815028250217437
0.0871969982981681
0.0908616706728935
0.0920321270823478
0.0903372764587402
0.0855708569288253
0.0777465552091598
0.0671232417225837
0.054195087403059
0.0396511480212211
0.02431346103549
0.0090574659407138
-0.0052752755582332
-0.017953909933567
-0.0284151881933212
-0.0363014265894889
-0.0414797365665435
-0.0440387055277824
-0.0442592501640319
-0.0425625219941139
-0.0394453778862953
-0.0354217812418937
-0.0309832543134689
-0.0265706740319728
-0.0225457251071929
-0.0191647261381149
-0.0165634080767631
-0.0147599577903747
-0.0136756971478462
-0.0131635889410972
-0.0130374059081077
-0.013100266456604
-0.0131710544228553
-0.0131068974733352
-0.0128215476870536
-0.0123003423213958
-0.0116121247410774
-0.0109210759401321
-0.0104943886399269
-0.0106825307011604
-0.0118587836623191
-0.0143398344516754
-0.0183190032839775
-0.0238248705863952
-0.0307061448693275
-0.0386436730623245
-0.0471860095858573
-0.0558018758893013
-0.0639434158802032
-0.0711091235280036
-0.076896846294403
-0.0810414552688598
-0.0834313109517097
-0.0841077268123626
-0.0832555070519447
-0.0811801105737686
-0.0782650262117385
-0.074916735291481
-0.0715127512812614
-0.0683644264936447
-0.065695896744728
-0.0636363252997398
-0.0622221231460571
-0.0614071488380432
-0.0610812902450561
-0.0610939338803291
-0.0612794384360313
-0.0614842921495437
-0.061587817966938
-0.0615144819021225
-0.0612465143203735
-0.0608357191085815
-0.0604082569479942
-0.0601610839366912
-0.0603451877832412
-0.0612328276038169
-0.0630711913108825
-0.0660286247730255
-0.070148654282093
-0.0753290131688118
-0.0813343375921249
-0.0878375321626663
-0.0944689139723777
-0.1008535698056221
-0.1066373661160469
-0.1115150526165962
-0.1152635663747787
-0.1177621856331825
-0.118987038731575
-0.1189914420247078
-0.1178843826055526
-0.1158071234822273
-0.1129077523946762
-0.1093178391456604
-0.1051333099603653
-0.1004029214382171
-0.0951321572065353
-0.0893000364303588
-0.0828724801540374
-0.0758047699928283
-0.0680438205599784
-0.0595448277890682
-0.0503008514642715
-0.0403694845736026
-0.0298841185867786
-0.0190444886684417
-0.0080911107361316
0.0027162842452526
0.0131042785942554
0.0227910596877336
0.0315108075737953
0.0390521623194217
0.0452883876860141
0.0501862354576587
0.0538027733564376
0.0562883056700229
0.057896539568901
0.0589798912405967
0.0599553808569908
0.0612557642161846
0.0632854849100112
0.0663850754499435
0.0708016008138656
0.0766659155488014
0.0839817225933075
0.0926328971982002
0.1024087145924568
0.1130373924970626
0.1242173239588737
0.1356396228075027
0.1470011174678802
0.1580160558223724
0.1684344261884689
0.1780561208724975
0.1867273151874542
0.1943282634019851
0.200770616531372
0.2060115784406662
0.2100835740566253
0.2131296545267105
0.2154252380132675
0.2173661887645721
0.2194198966026306
0.2220472693443298
0.2256098389625549
0.2302931249141693
0.2360840439796447
0.2428146749734878
0.2502427995204925
0.2581150829792022
0.2661802768707275
0.2741702497005462
0.2817861139774322
0.2887125313282013
0.2946592271327972
0.2994053661823272
0.3028206825256347
0.3048548698425293
0.3055021464824676
0.3047565519809723
0.3025786280632019
0.2988821864128113
0.2935342788696289
0.2863649725914001
0.2771876454353332
0.2658162713050842
0.2520664036273956
0.2357541620731353
0.216711550951004
0.1948131322860717
0.1699978709220886
0.1422779858112335
0.111740231513977
0.0785480439662933
0.0429508090019226
0.0053017139434814
-0.0339249968528747
-0.0741409957408905
-0.1146820783615112
-0.1548539400100708
-0.1939577162265777
-0.2312951385974884
-0.2661788463592529
-0.2979695200920105
-0.3261352181434631
-0.3503041267395019
-0.3702835142612457
-0.3860372304916382
-0.3976375162601471
-0.4052252769470215
-0.4090005755424499
-0.4092358350753784
-0.4062911570072174
-0.4006162583827972
-0.3927342891693115
-0.3832078576087951
-0.372589498758316
-0.3613722026348114
-0.3499617576599121
-0.338670015335083
-0.3277142345905304
-0.3172225058078766
-0.3072509169578552
-0.297809362411499
-0.28889000415802
-0.2804951667785644
-0.2726587653160095
-0.265450119972229
-0.2589588165283203
-0.253268837928772
-0.2484287768602371
-0.2444278746843338
-0.2411912381649017
-0.2386010885238647
-0.2365324944257736
-0.2348787188529968
-0.2335560023784637
-0.2324999868869781
-0.2316620945930481
-0.2310032546520233
-0.2304863482713699
-0.2300717234611511
-0.2297119349241256
-0.2293438911437988
-0.2288864403963089
-0.2282494753599167
-0.227347195148468
-0.2261023968458175
-0.2244366854429245
-0.2222619801759719
-0.2194893658161163
-0.2160456776618957
-0.2118824273347854
-0.2069751322269439
-0.2013179808855056
-0.1949164569377899
-0.1877805143594741
-0.1799200773239135
-0.1713405102491378
-0.162038505077362
-0.1520036906003952
-0.1412230134010315
-0.1296813637018203
-0.1173566430807113
-0.1042162626981735
-0.0902293249964714
-0.0753958448767662
-0.0597749203443527
-0.0434979200363159
-0.0267631560564041
-0.0098160654306411
0.0070773959159851
0.0236588716506958
0.0397033393383026
0.0550374239683151
0.0695529729127883
0.0832183808088302
0.0960784256458282
0.1082375198602676
0.1198359280824661
0.1310285180807113
0.1419623643159866
0.1527484804391861
0.1634411066770553
0.1740380823612213
0.1844918578863144
0.1947174370288849
0.2046013623476028
0.2140188068151474
0.2228540927171707
0.2310165762901306
0.2384494990110397
0.2451329976320266
0.251082181930542
0.2563413977622986
0.2609778344631195
0.2650775611400604
0.268736183643341
0.2720334529876709
0.2750014066696167
0.2776057720184326
0.2797446846961975
0.2812591195106506
0.2819518744945526
0.2816172242164612
0.2800757586956024
0.2772015333175659
0.2729361653327942
0.2672944068908691
0.2603665292263031
0.2523170113563537
0.2433774620294571
0.2338377684354782
0.2240311950445175
0.2143014669418335
0.2049620896577835
0.1962656378746032
0.1883860975503921
0.1814136952161789
0.1753582209348678
0.1701556295156479
0.1656804233789444
0.1617665737867355
0.1582308411598205
0.1548918932676315
0.1515803635120391
0.1481367945671081
0.1444041281938552
0.1402254253625869
0.1354381889104843
0.1298577785491943
0.1232710927724838
0.1154561936855316
0.1062130481004715
0.0953860431909561
0.0828728079795837
0.0686272531747818
0.0526736825704574
0.0351369976997375
0.0162693262100219
-0.0035452991724014
-0.0238077044486999
-0.0439380705356597
-0.0633242428302764
-0.0813702642917633
-0.0975372940301895
-0.1113830208778381
-0.1225771903991699
-0.1308208853006363
-0.1356993466615677
-0.1367054283618927
-0.1335459351539611
-0.1264715194702148
-0.1163537949323654
-0.1045066565275192
-0.0923839509487152
-0.0812713056802749
-0.0720599144697189
-0.0651466101408004
-0.0604488104581832
-0.0574952214956283
-0.055562749505043
-0.053835391998291
-0.0515553057193756
-0.0481393486261367
-0.0432468205690383
-0.0367983281612396
-0.0289622545242309
-0.0201279073953628
-0.0108668655157089
-0.0018759071826934
0.006100594997406
0.0123656839132308
0.0163678377866745
0.0177817642688751
0.0165592730045318
0.0129438489675521
0.007442221045494
0.0007548779249191
-0.0063133388757705
-0.012942299246788
-0.0183814018964767
-0.0220263302326202
-0.0234759896993637
-0.022558718919754
-0.0193268209695816
-0.0140295773744583
-0.0070722103118896
0.0010386258363723
0.0097568035125732
0.0185552388429641
0.0269747450947761
0.0346641466021537
0.0414042994379997
0.0471032708883285
0.0517735183238983
0.0555136501789093
0.0584952160716056
0.0609399043023586
0.0630830377340316
0.0651317536830902
0.0672220140695571
0.0693746283650398
0.0714612305164337
0.0731970965862274
0.0741718113422393
0.0739174410700798
0.0719998329877853
0.0681127682328224
0.0621522776782512
0.054248921573162
0.0447576791048049
0.0342239141464233
0.0233317799866199
0.0128325335681438
0.0034605674445629
-0.0041493885219097
-0.0095319524407386
-0.0124369971454143
-0.0128472298383712
-0.0109686721116304
-0.007195346057415
-0.0020528025925159
0.0038716588169336
0.0100021995604038
0.0158337950706481
0.0209657717496156
0.0251186992973089
0.0281469076871871
0.03004090487957
0.030910849571228
0.0309559628367424
0.0304258950054645
0.0295762419700622
0.0286283548921346
0.0277380626648664
0.0269637703895568
0.0262349843978881
0.0253376066684722
0.0239322073757648
0.0216098576784133
0.0179676786065101
0.012680247426033
0.0055627301335334
-0.003374621272087
-0.0138969272375106
-0.025553360581398
-0.0377184264361858
-0.0496567822992801
-0.060608796775341
-0.0698860064148902
-0.0769555121660232
-0.0814971998333931
-0.0834284126758575
-0.0828976482152938
-0.0802508369088172
-0.0759741812944412
-0.0706282779574394
-0.064791053533554
-0.0590066649019718
-0.0537326410412788
-0.0492957793176174
-0.0458697117865085
-0.0434762425720691
-0.0420075356960296
-0.041262462735176
-0.040989376604557
-0.0409291759133338
-0.0408539175987243
-0.0406010821461677
-0.0401061102747917
-0.0394282415509223
-0.0387569814920425
-0.0383959412574768
-0.0387271419167518
-0.0401502102613449
-0.0429996326565742
-0.0474667400121688
-0.0535475090146064
-0.0610184744000434
-0.0694425404071807
-0.0782095491886138
-0.0866080224514007
-0.0939154401421547
-0.0994899123907089
-0.1028449088335037
-0.103699155151844
-0.1019991934299469
-0.0979081317782402
-0.0917712450027465
-0.0840753391385078
-0.0753960460424423
-0.0663297474384307
-0.0574268735945224
-0.0491394065320491
-0.0417848490178585
-0.0355272963643074
-0.0303796455264091
-0.0262278951704502
-0.0228679403662681
-0.0200464650988578
-0.0175037160515785
-0.0150122791528701
-0.0124107226729393
-0.0096377469599246
-0.0067665874958038
-0.0040267705917358
-0.0017875209450721
-0.0004908144474029
-0.0005562081933021
-0.0022889450192451
-0.0058101899921894
-0.0110190548002719
-0.0175889804959297
-0.0249954089522361
-0.0325738117098808
-0.0396013855934143
-0.0453851297497749
-0.0493417344987392
-0.0510590821504592
-0.0503332652151584
-0.0471843816339969
-0.0418519414961338
-0.0347620882093906
-0.0264666005969047
-0.017567716538906
-0.0086442455649375
-0.0001898910850286
0.0074298046529293
0.0139997247606515
0.0194566566497087
0.0238723345100879
0.0274220146238803
0.0303423516452312
0.0328864455223083
0.0352879650890827
0.0377343334257602
0.0403320975601673
0.0430596806108951
0.0457330122590065
0.0480125918984413
0.0494573600590229
0.0496083535254001
0.0480791851878166
0.0446356870234012
0.0392504855990409
0.0321265235543251
0.0236880276352167
0.0145353358238935
0.0053715789690613
-0.0030792066827416
-0.0101485354825854
-0.0152902444824576
-0.0181375723332166
-0.0185467302799224
-0.0166132859885692
-0.0126486914232373
-0.0071211429312825
-0.0005806422559544
0.0064115449786186
0.0133410533890128
0.0197858307510614
0.0254460796713829
0.030156273394823
0.0338823497295379
0.036706119775772
0.0387951508164405
0.0403651408851146
0.0416470579802989
0.0428552515804767
0.0441463813185691
0.045577947050333
0.0470815785229206
0.0484541356563568
0.0493699833750724
0.0494220778346061
0.0481903105974197
0.0453239567577838
0.0406197607517242
0.0340770706534385
0.0259174555540084
0.0165656581521034
0.00660100299865
-0.0033028307370841
-0.0124434027820825
-0.0201677437871694
-0.0259573087096214
-0.0294936150312423
-0.0306831467896699
-0.0296434871852397
-0.0266669336706399
-0.0221738927066326
-0.0166600160300731
-0.0106407608836889
-0.0046005984768271
0.0010497397743165
0.0060078403912484
0.0101008554920554
0.0132873766124248
0.0156408101320266
0.0173219013959169
0.0185437258332967
0.0195280835032463
0.0204648505896329
0.021486971527338
0.0226550921797752
0.0239400565624237
0.0252026282250881
0.0261844526976346
0.0265297405421733
0.0258422754704952
0.0237607322633266
0.0200331583619117
0.014578865841031
0.007524149492383
-0.0007953904569149
-0.0098620783537626
-0.0190336126834154
-0.0276286732405424
-0.03501708060503
-0.0406876727938652
-0.0442908257246017
-0.0456646457314491
-0.0448437556624412
-0.0420438759028911
-0.0376242808997631
-0.0320378392934799
-0.0257769860327243
-0.0193221904337406
-0.0130970738828182
-0.0074323527514934
-0.0025406135246157
0.0014963503926992
0.0047184685245156
0.0072533041238784
0.009275478310883
0.0109733613207936
0.0125230671837925
0.0140717700123786
0.0157262589782476
0.017534177750349
0.0194541476666927
0.0213286206126213
0.022879920899868
0.023740129545331
0.0235110744833946
0.0218412913382053
0.0185036733746528
0.0134562803432345
0.0068681761622428
-0.0008971337229013
-0.0093274358659982
-0.0178179051727056
-0.0257309433072805
-0.0324610769748687
-0.0375021435320377
-0.0405053906142711
-0.0413165688514709
-0.0399862006306648
-0.0367509312927722
-0.031991247087717
-0.026176692917943
-0.0198069512844085
-0.0133556835353374
-0.0072238836437463
-0.001710619078949
0.0029950693715363
0.0068123987875878
0.0097667975351214
0.0119789531454443
0.0136367920786142
0.0149588482454419
0.0161601025611162
0.0174208395183086
0.0188586693257093
0.0205056630074977
0.0222883000969886
0.0240133926272392
0.0253737494349479
0.0259874947369098
0.0254674013704061
0.0234944764524698
0.0198759846389293
0.0145881790667772
0.0078010675497353
-0.0001240484416484
-0.0086651528254151
-0.0171944536268711
-0.0250529386103153
-0.031630516052246
-0.0364344343543052
-0.039139874279499
-0.0396211445331573
-0.0379579067230224
-0.0344154797494411
-0.029400723055005
-0.0233981441706419
-0.0169067028909921
-0.0103952605277299
-0.0042708520777523
0.0011521484702825
0.0056793559342622
0.0092481132596731
0.0119163952767848
0.0138327376917004
0.0151994302868843
0.0162400472909212
0.0171733126044273
0.0181887354701757
0.0194180849939584
0.0209020376205444
0.0225616283714771
0.0241876803338527
0.0254523959010839
0.0259418170899152
0.0252171587198972
0.0229041557759046
0.018781853839755
0.0128422854468226
0.0053112735040485
-0.0033685062080621
-0.0125849954783916
-0.0216271597892045
-0.0297702476382255
-0.0363635309040546
-0.0409061945974826
-0.0430980399250984
-0.0428589321672916
-0.0403198525309562
-0.0357934907078743
-0.0297333151102066
-0.0226814560592174
-0.0152049334719777
-0.0078323250636458
-0.001002331264317
0.0049728443846106
0.0099260006099939
0.0138324238359928
0.0167905110865831
0.018991470336914
0.0206802040338516
0.0221122838556766
0.0235174521803855
0.0250772703438997
0.0269093587994575
0.0290390290319919
0.0313596874475479
0.0336101874709129
0.0353909395635128
0.0362212359905242
0.0356256067752838
0.0332268923521041
0.0288249440491199
0.0224455632269382
0.0143524268642067
0.0050265602767467
-0.0048801829107105
-0.0146164204925298
-0.023420238867402
-0.0306081287562847
-0.0356479957699775
-0.0382125675678253
-0.0382130667567253
-0.0358015149831771
-0.0313349477946758
-0.0253167301416397
-0.0183293409645557
-0.0109642781317234
-0.0037587573751807
0.0028520543128252
0.0085655804723501
0.0132251363247632
0.0168154239654541
0.0194420926272869
0.0213006101548671
0.0226401686668396
0.0237268395721912
0.0248067341744899
