bvp
-0.0043820282444357
-0.0036945305764675
-0.0032506487332284
-0.0029781972989439
-0.0027855541557073
-0.0025786929763853
-0.002274588914588
-0.001809598179534
-0.0011451542377471
-0.0002709603868424
0.0007952501764521
0.0020115741062909
0.0033195652067661
0.0046538040041923
0.0059504471719264
0.0071541266515851
0.0082218991592526
0.0091234538704156
0.0098410202190279
0.0103713432326912
0.0107274614274501
0.010937257669866
0.0110376691445708
0.0110643934458494
0.0110387755557894
0.0109559707343578
0.0107786329463124
0.0104401800781488
0.0098573360592126
0.0089461496099829
0.007638681679964
0.0059005594812333
0.0037464019842445
0.0012484131148084
-0.0014655919512733
-0.0042253769934177
-0.0068392064422369
-0.0091180503368377
-0.0108995921909809
-0.0120689086616039
-0.012572918087244
-0.0124257383868098
-0.0117028467357158
-0.0105261886492371
-0.0090465098619461
-0.0074260979890823
-0.0058206627145409
-0.0043615116737782
-0.0031417454592883
-0.002208181656897
-0.0015598625177517
-0.0011538370745256
-0.0009159825276583
-0.0007538811769336
-0.0005716240266337
-0.0002859326777979
0.0001611550105735
0.0007969910511747
0.0016193026676774
0.0026009662542492
0.0036972051020711
0.0048537333495914
0.0060141566209495
0.0071261590346693
0.0081465635448694
0.0090439561754465
0.0097982389852404
0.0103987650945782
0.0108433989807963
0.0111397905275225
0.0113064181059598
0.0113692181184887
0.01135422475636
0.0112786432728171
0.0111404322087764
0.0109090646728873
0.0105232447385787
0.0098981540650129
0.0089409835636615
0.0075709288939833
0.0057391910813748
0.0034463508054614
0.0007525887340307
-0.0022244520951062
-0.0053226165473461
-0.0083527974784374
-0.0111186960712075
-0.0134404078125953
-0.015178482979536
-0.0162501093000173
-0.0166347231715917
-0.0163711626082658
-0.0155480820685625
-0.0142914447933435
-0.0127519192174077
-0.0110891927033662
-0.0094514451920986
-0.0079555949196219
-0.0066756792366504
-0.0056415349245071
-0.0048438413068652
-0.0042408318258821
-0.0037670359015464
-0.0033457081299275
-0.002902262378484
-0.0023749894462525
-0.001721664564684
-0.0009226648835465
1.8351245671510696e-05
0.0010780752636492
0.0022213608026504
0.003407263662666
0.0045916987583041
0.0057304762303829
0.0067825410515069
0.0077117700129747
0.0084896916523575
0.0090995635837316
0.0095366612076759
0.0098048336803913
0.0099160205572843
0.009891677647829
0.0097591122612357
0.0095422286540269
0.0092499004676938
0.0088651068508625
0.0083405189216136
0.0076040118001401
0.006572704296559
0.0051730242557823
0.0033620735630393
0.0011436664499342
-0.0014245151542127
-0.0042327321134507
-0.0071302074939012
-0.0099437367171049
-0.0124974623322486
-0.0146306362003088
-0.0162155628204345
-0.0171729549765586
-0.0174790117889642
-0.0171650107949972
-0.0163133256137371
-0.0150494454428553
-0.013526763767004
-0.0119053721427917
-0.0103305671364068
-0.0089163379743695
-0.0077354917302727
-0.0068136914633214
-0.0061287148855626
-0.0056217671371996
-0.0052169044502079
-0.0048359837383031
-0.004406708292663
-0.0038682799786329
-0.0031758518889546
-0.0023042070679366
-0.0012504791375249
-3.4742290154099464e-05
0.0013015558943152
0.0027006422169506
0.004098055884242
0.0054328967817127
0.0066539123654365
0.0077224439010024
0.0086150988936424
0.0093251708894968
0.009860998019576
0.0102416286244988
0.0104906093329191
0.0106272473931312
0.0106553062796592
0.010553928092122
0.0102767515927553
0.009759702719748
0.0089347753673791
0.0077475546859204
0.0061755068600177
0.004242249764502
0.0020232803653925
-0.0003587837563827
-0.0027484414167702
-0.0049771182239055
-0.006883343681693
-0.008330131880939
-0.0092191025614738
-0.0095011070370674
-0.0091818952932953
-0.0083213653415441
-0.0070263082161545
-0.0054374644532799
-0.0037124415393918
-0.0020072273910045
-0.0004586256109178
0.0008310049306601
0.0018042689189314
0.0024517336860299
0.0028068791143596
0.002934826305136
0.0029189656488597
0.0028490214608609
0.0028106747195124
0.0028764689341187
0.0030991975218057
0.0035080052912235
0.004106834065169
0.0048762345686554
0.0057778973132371
0.0067599909380078
0.0077633499167859
0.008727672509849
0.0095972493290901
0.0103273410350084
0.0108888084068894
0.0112685784697532
0.0114681581035256
0.011500640772283
0.0113838762044906
0.0111302500590682
0.0107363248243927
0.0101760728284716
0.009401042945683
0.0083494381979107
0.0069629573263227
0.0052065523341298
0.0030850837938487
0.0006535470020025
-0.0019803831819444
-0.0046643349342048
-0.0072210137732326
-0.0094738081097602
-0.0112697966396808
-0.0124970162287354
-0.0130961155518889
-0.0130664529278874
-0.0124656995758414
-0.0114003680646419
-0.0100087635219097
-0.0084428014233708
-0.006851534359157
-0.0053656348027288
-0.0040842425078153
-0.0030668259132653
-0.0023307416122406
-0.0018533233087509
-0.0015780657995492
-0.0014261516043916
-0.0013127450365573
-0.0011614835821092
-0.0009111620602197
-0.0005177237908355
4.359160084277392e-05
0.000776125350967
0.0016612625913694
0.0026612346991896
0.003725292161107
0.0047966679558157
0.0058190752752125
0.0067429370246827
0.0075307381339371
0.0081596821546554
0.0086193215101957
0.0089055784046649
0.0090166572481393
0.0089515084400773
0.008705586194992
0.0082636959850788
0.0075956080108881
0.006657475605607
0.0053996052592992
0.0037798802368342
0.0017795278690755
-0.0005825562402606
-0.0032407720573246
-0.006082541309297
-0.008957166224718
-0.0116912256926298
-0.0141079761087894
-0.016049163416028
-0.0173952393233776
-0.0180780962109565
-0.0180854052305221
-0.0174601431936025
-0.0162964444607496
-0.0147295966744422
-0.0129192965105175
-0.0110291996970772
-0.0092075690627098
-0.0075714262202382
-0.0061952243559062
-0.0051064137369394
-0.0042880685068666
-0.0036852732300758
-0.0032164133153855
-0.002791718346998
-0.0023311616387218
-0.0017732684500515
-0.0010779540752992
-0.0002275892766192
0.0007737161358818
0.0019023050554096
0.0031191096641123
0.0043752430938184
0.0056180646643042
0.0067979041486978
0.0078734923154115
0.0088149216026067
0.0096060317009687
0.0102459164336323
0.0107463421300053
0.0111245969310402
0.0113950408995151
0.0115609690546989
0.0116068953648209
0.0114943552762269
0.0111646549776196
0.0105487294495105
0.0095815770328044
0.0082180621102452
0.00644765002653
0.0043045869097113
0.0018703711684793
-0.0007313653477467
-0.0033465609885752
-0.0058067860081791
-0.0079467184841632
-0.0096231782808899
-0.0107344686985015
-0.0112346280366182
-0.0111385993659496
-0.0105176987126469
-0.0094871902838349
-0.0081897377967834
-0.0067782085388898
-0.0053978012874722
-0.0041682049632072
-0.0031708069145679
-0.0024433149956166
-0.0019808206707239
-0.0017428362043574
-0.0016630006721243
-0.0016589866718277
-0.0016444161301478
-0.001541556790471
-0.0012910158839076
-0.0008573364466428
-0.0002304087392985
0.0005764113739132
0.0015303884865716
0.0025860769674181
0.0036928448826074
0.0048001445829868
0.0058609088882803
0.006835214793682
0.007694074884057
0.0084225181490182
0.0090209059417247
0.0095005491748452
0.0098715741187334
0.0101288761943578
0.0102437222376465
0.0101629858836531
0.0098151369020342
0.0091228261590003
0.008020631968975
0.0064740371890366
0.004495691973716
0.0021539726294577
-0.0004306869814172
-0.0030998568981885
-0.0056760762818157
-0.0079822177067399
-0.0098596988245844
-0.0111868102103471
-0.0118945026770234
-0.0119740525260567
-0.0114760724827647
-0.0105020999908447
-0.0091885570436716
-0.0076861218549311
-0.0061403033323585
-0.0046764849685132
-0.0033882621210068
-0.0023290696553885
-0.0015108443330973
-0.0009094857377931
-0.0004735074471682
-0.0001346732024103
0.0001808933448046
0.0005431404570117
0.001010286505334
0.00162166391965
0.0023913939949125
0.003307705046609
0.004339468665421
0.0054430128075182
0.0065665254369378
0.0076563819311559
0.0086652617901563
0.0095571987330913
0.0103079443797469
0.0109043391421437
0.0113452710211277
0.0116416038945317
0.0118131525814533
0.0118819288909435
0.0118602756410837
0.0117375925183296
0.0114723639562726
0.0109945703297853
0.0102191437035799
0.0090647563338279
0.0074735381640493
0.005429305601865
0.0029695299454033
0.0001887655816972
-0.0027680487837642
-0.0057237693108618
-0.0084917079657316
-0.0108949542045593
-0.0127834565937519
-0.0140503011643886
-0.014644137583673
-0.0145751163363456
-0.0139131098985672
-0.0127777969464659
-0.0113220904022455
-0.0097126625478267
-0.0081100855022668
-0.006650454364717
-0.0054321624338626
-0.0045080380514264
-0.0038815406151115
-0.0035108313895761
-0.0033215049188584
-0.003221396356821
-0.0031136865727603
-0.0029097190126776
-0.0025413664989173
-0.0019697942771017
-0.0011878937948495
-0.0002168987412005
0.0008994929958134
0.0021017489489167
0.0033225475344806
0.0044950330629944
0.0055597303435206
0.0064706001430749
0.0071998685598373
0.0077399155125021
0.0081015480682253
0.0083099054172635
0.0083988243713974
0.0084020011126995
0.0083400774747133
0.0082084964960813
0.0079724658280611
0.007569764740765
0.006920070387423
0.0059404778294265
0.0045649432577192
0.0027640620246529
0.0005607488565146
-0.0019642408005893
-0.004679637029767
-0.0074201016686856
-0.0100068375468254
-0.0122683923691511
-0.0140583720058202
-0.0152701158076524
-0.0158491693437099
-0.0158002264797687
-0.0151850245893001
-0.0141126774251461
-0.0127244293689727
-0.0111734261736273
-0.0096048293635249
-0.0081415046006441
-0.006873486097902
-0.0058500533923506
-0.0050773425027728
-0.0045227836817502
-0.0041252071969211
-0.0038077430799603
-0.0034897986333817
-0.0030970382504165
-0.0025709411129355
-0.0018769172020256
-0.0010073216399177
2.09055287996307e-05
0.0011716540902853
0.0023966424632817
0.0036424589343369
0.0048562940210103
0.0059903743676841
0.007005475461483
0.0078738573938608
0.0085819270461797
0.0091302609071135
0.0095295812934637
0.0097973868250846
0.0099569726735353
0.0100336270406842
0.0100456578657031
0.0099936053156852
0.0098533406853675
0.0095762126147747
0.0090942392125725
0.0083294212818145
0.0072089903987944
0.0056850994005799
0.0037527591921389
0.0014592842198908
-0.0010970912408083
-0.0037769770715385
-0.0064147720113396
-0.0088366046547889
-0.010879666544497
-0.012411736883223
-0.0133486855775117
-0.013665422797203
-0.0133959595113992
-0.0126242283731698
-0.0114716375246644
-0.0100826481357216
-0.0086068408563733
-0.0071800919249653
-0.0059091243892908
-0.0048623848706483
-0.0040677692741155
-0.0035151280462741
-0.0031609872821718
-0.0029351827688515
-0.0027521029114723
-0.0025268637109547
-0.0021902571897953
-0.0016966969706118
-0.0010263982694596
-0.0001845138613134
0.0008028501179069
0.0018941460875794
0.0030378443188965
0.0041794502176344
0.0052686035633087
0.0062628434970974
0.0071303537115454
0.0078535079956054
0.0084299482405185
0.0088704321533441
0.0091946460306644
0.0094245383515954
0.0095770386978983
0.0096584409475326
0.0096589159220457
0.0095480345189571
0.0092755760997533
0.0087776258587837
0.0079871034249663
0.0068493839353322
0.0053382571786642
0.0034669386222958
0.0012936177663505
-0.0010797209106385
-0.0035157979000359
-0.005855550058186
-0.0079363025724887
-0.0096141211688518
-0.0107842087745666
-0.0113924294710159
-0.0114376014098525
-0.0109678981825709
-0.0100724250078201
-0.0088683506473898
-0.0074856644496321
-0.0060514388605952
-0.0046756695955991
-0.0034418336581438
-0.0024031666107475
-0.0015823086723685
-0.000971567351371
-0.0005340124480426
-0.0002095405943691
7.280847057700157e-05
0.0003818180412054
0.0007744235917925
0.001289356034249
0.0019441202748566
0.0027352611068636
0.0036416088696569
0.0046288124285638
0.0056530679576098
0.0066657802090048
0.0076203690841794
0.0084779635071754
0.009210743010044
0.0098048793151974
0.0102625116705894
0.0105998497456312
0.010839463211596
0.0109988525509834
0.0110798841342329
0.0110605675727128
0.010891318321228
0.0105008957907557
0.009811632335186
0.0087580420076847
0.0073037659749388
0.0054547130130231
0.003267346182838
0.0008483473211526
-0.0016563503304496
-0.0040791276842355
-0.0062506766989827
-0.0080206701532006
-0.009276526980102
-0.0099562890827655
-0.0100539987906813
-0.0096183847635984
-0.0087440377101302
-0.0075564896687865
-0.0061955559067428
-0.0047993352636694
-0.0034898919984698
-0.0023608636111021
-0.0014687411021441
-0.0008312929421663
-0.0004315732512623
-0.0002228469820693
-0.0001349113881587
-8.566223550587893e-05
3.319699317216873e-06
0.0001939198700711
0.0005255530704744
0.0010142729151993
0.0016542155062779
0.0024206258822232
0.0032744710333645
0.0041688405908644
0.0050556669011712
0.0058905784972012
0.0066359024494886
0.0072632394731044
0.0077558462508022
0.0081099411472678
0.0083342213183641
0.008444981649518
0.0084555484354496
0.0083655919879674
0.0081557491794228
0.0077870553359389
0.0072044800035655
0.0063465456478297
0.0051600923761725
0.0036152489483356
0.0017176098190248
-0.0004841862246394
-0.002899058163166
-0.0054022567346692
-0.0078477403149008
-0.0100823156535625
-0.011961493641138
-0.0133652798831462
-0.0142130032181739
-0.0144744906574487
-0.0141736743971705
-0.0133845945820212
-0.0122205428779125
-0.0108177382498979
-0.0093174837529659
-0.0078499540686607
-0.0065209083259105
-0.0054026180878281
-0.0045295394957065
-0.0038977274671196
-0.0034683395642787
-0.0031759846024215
-0.0029401902575045
-0.0026789489202201
-0.0023233711253851
-0.0018288100836798
-0.0011781618231907
-0.0003784190921578
0.0005453258636407
0.0015556968282908
0.002607729518786
0.0036534948740154
0.0046477913856506
0.0055530401878058
0.0063415528275072
0.0069959419779479
0.0075095524080097
0.0078871203586459
0.0081429723650217
0.0082942927256226
0.0083497259765863
0.0082973772659897
0.0080991657450795
0.0076956255361437
0.0070181787014007
0.006003466900438
0.0046085454523563
0.002826296724379
0.0006961743347346
-0.0016935721505433
-0.0042126779444515
-0.0067035472020506
-0.009000901132822
-0.0109521318227052
-0.0124335028231143
-0.0133612444624304
-0.0137013308703899
-0.0134762655943632
-0.01276137214154
-0.0116705549880862
-0.0103395618498325
-0.0089104352518916
-0.0075153154321014
-0.0062607224099338
-0.0052165193483233
-0.0044118016958236
-0.0038375055883079
-0.0034542677458375
-0.0032022458035498
-0.0030105910263955
-0.0028066178783774
-0.00252405856736
-0.0021104444749653
-0.0015341422986239
-0.00078832404688
0.0001102264504879
0.0011255941353738
0.0022093702573329
0.003308892250061
0.0043746992014348
0.0053660841658711
0.0062540061771869
0.0070204292424023
0.0076566543430089
0.0081632966175675
0.0085496762767434
0.0088293449953198
0.0090118180960416
0.0090933563187718
0.0090502854436635
0.008837885223329
0.0083968229591846
0.0076665235683321
0.0066016591154038
0.0051866653375327
0.0034455077257007
0.0014453351031988
-0.0007077625486999
-0.0028797083068639
-0.0049228887073695
-0.00669268053025
-0.0080639608204364
-0.0089445002377033
-0.0092858271673321
-0.009092042222619
-0.0084213810041546
-0.007377203553915
-0.0060917218215763
-0.0047064651735126
-0.003352953121066
-0.002138091251254
-0.0011358906049281
-0.0003835731185972
0.000119284261018
0.0004080298822373
0.0005445783026516
0.000603936612606
0.0006614942103624
0.0007857701275497
0.0010342260356992
0.0014467278961092
0.002037831582129
0.0027948538772761
0.0036831188481301
0.0046534454450011
0.0056495228782296
0.0066159493289887
0.0075053917244076
0.0082825301215052
0.0089257499203085
0.0094277281314134
0.0097934016957879
0.0100352196022868
0.0101672289893031
0.010196984745562
0.0101149855181574
0.0098871672526001
0.0094578433781862
0.0087633598595857
0.0077491323463618
0.0063846688717603
0.0046753399074077
0.002669018227607
0.0004554472398012
-0.0018415461527183
-0.0040774792432785
-0.0061041712760925
-0.0077873957343399
-0.0090225785970687
-0.0097463279962539
-0.009941678494215
-0.0096374191343784
-0.0089049413800239
-0.0078519713133573
-0.0066092461347579
-0.0053127161227166
-0.0040863864123821
-0.0030274388846009
-0.0021963489707559
-0.0016144081018865
-0.0012671645963564
-0.0011111402418464
-0.0010821409523487
-0.0011042710393667
-0.0010992337483912
-0.0009958673035725
-0.0007394506828859
-0.0002991696819663
0.0003284976701252
0.001121393404901
0.0020366697572171
0.0030177722219377
0.0040034460835158
0.0049374047666788
0.0057759154587984
0.0064911488443613
0.0070700510405004
0.007510834839195
0.0078191747888922
0.008003169670701
0.0080651426687836
0.0079928282648324
0.0077559202909469
0.0073092831298708
0.0065990234725177
0.0055718692019581
0.0041908985003829
0.0024531483650207
0.0004009706899523
-0.0018769791349768
-0.0042554344981908
-0.006588383577764
-0.0087254475802183
-0.0105284769088029
-0.0118880420923233
-0.012735710479319
-0.0130504118278622
-0.0128588564693927
-0.0122290831059217
-0.0112598165869712
-0.0100689362734556
-0.0087801776826381
-0.0075087780132889
-0.0063493479974567
-0.0053681470453739
-0.0046007987111806
-0.0040519526228308
-0.0036947624757885
-0.0034757221583276
-0.003325511701405
-0.0031695740763098
-0.0029376798775047
-0.0025735716335475
-0.0020416465122252
-0.0013294756645336
-0.0004479149065446
0.0005706246593035
0.0016762984450906
0.0028088204562664
0.0039064288139343
0.0049142804928123
0.0057910294272005
0.0065127895213663
0.0070732282474637
0.0074803088791668
0.0077496492303907
0.0078948223963379
0.0079174684360623
0.0077996207401156
0.0075018173083662
0.0069709834642708
0.0061544068157672
0.0050124190747737
0.0035294664558023
0.0017251087119802
-0.0003398229600861
-0.0025661629624664
-0.0048257447779178
-0.0069726705551147
-0.008857543580234
-0.0103468121960759
-0.0113426353782415
-0.011796741746366
-0.0117152100428938
-0.0111540332436561
-0.0102084064856171
-0.008998597972095
-0.0076549272052943
-0.0063048070296645
-0.0050610452890396
-0.0040100975893437
-0.0032025203108787
-0.002648850204423
-0.002322326414287
-0.002167296828702
-0.0021102679893374
-0.0020699908491224
-0.0019669898319989
-0.0017351873684674
-0.0013323922175914
-0.000744076212868
1.973658800125122e-05
0.0009305865969508
0.001946666277945
0.0030153836123645
0.004076802637428
0.0050721759907901
0.0059545296244323
0.006694525014609
0.0072803273797035
0.0077137537300586
0.0080037340521812
0.0081578372046351
0.0081735085695981
0.0080320863053202
0.0076988264918327
0.0071296645328402
0.0062836962752044
0.0051388964056968
0.0037051732651889
0.0020287523511797
0.0001879462506622
-0.0017144388984888
-0.0035588175524026
-0.0052189594134688
-0.0065764505416154
-0.0075363009236752
-0.0080395322293043
-0.0080704670399427
-0.0076570753008127
-0.0068651139736175
-0.0057898140512406
-0.0045455261133611
-0.0032511209137737
-0.0020142192952334
-0.0009196433238685
-2.360483631491661e-05
0.0006482345052063
0.0011009667068719
0.0013689324259757
0.001510951668024
0.0016008345410227
0.0017145653255283
0.0019187768921256
0.0022627711296081
0.0027731428854167
0.0034517575986683
0.0042777694761753
0.0052128694951534
0.0062102079391479
0.0072237434796988
0.0082113873213529
0.0091336704790592
0.0099552832543849
0.0106500107795
0.0112039931118488
0.0116130653768777
0.0118733458220958
0.0119698420166969
0.0118702491745352
0.0115265231579542
0.0108827641233801
0.0098879495635628
0.0085112219676375
0.0067563019692897
0.0046714963391423
0.0023514190688729
-7.133197505027056e-05
-0.0024420744739472
-0.004602959845215
-0.0064118742011487
-0.0077594290487468
-0.0085808327421545
-0.008860969915986
-0.0086334217339754
-0.007973913103342
-0.006989749148488
-0.0058068046346306
-0.0045552477240562
-0.0033559063449501
-0.0023069051094353
-0.0014710910618305
-0.0008692860719747
-0.000482951872982
-0.0002644925843924
-0.0001500062644481
-7.017422467470169e-05
4.087755223736167e-05
0.0002377829514443
0.0005587500054389
0.0010237926617264
0.0016351176891475
0.0023792393039911
0.0032300376333296
0.0041510723531246
0.0050975722260773
0.0060207177884876
0.006874737329781
0.0076231439597904
0.0082410108298063
0.0087139476090669
0.009035836905241
0.0092056049033999
0.0092205079272389
0.0090662399306893
0.0087099745869636
0.008102424442768
0.0071896808221936
0.0059296321123838
0.0043062488548457
0.0023387810215353
8.653197437524796e-05
-0.0023509585298597
-0.0048409663140773
-0.0072325211949646
-0.0093751279637217
-0.0111366948112845
-0.0124187096953392
-0.0131665933877229
-0.013374263420701
-0.0130832763388752
-0.0123757757246494
-0.0113626206293702
-0.0101695088669657
-0.0089222518727183
-0.0077327252365648
-0.0066873654723167
-0.0058394740335643
-0.0052065639756619
-0.0047717858105897
-0.0044876281172037
-0.0042845467105507
-0.0040859933942556
-0.0038238025736063
-0.0034483023919165
-0.0029326435178518
-0.0022719758562743
-0.0014794277958571
-0.0005822193343192
0.0003819693811237
0.0013704961165785
0.0023416797630488
0.0032581810373812
0.0040882304310798
0.0048070033080875
0.005399162415415
0.0058609102852642
0.0061986092478036
0.0064223017543554
0.0065355198457837
0.0065260310657322
0.0063621774315834
0.0059961145743727
0.0053728353232145
0.0044426741078495
0.003173456992954
0.0015606600791215
-0.0003642751835286
-0.0025301165878772
-0.0048280311748385
-0.0071195303462445
-0.0092513272538781
-0.0110750123858451
-0.0124669410288333
-0.0133450180292129
-0.0136783551424741
-0.0134884603321552
-0.0128443092107772
-0.0118518155068159
-0.0106378030031919
-0.009332425892353
-0.0080540273338556
-0.0068968506529927
-0.005921765230596
-0.005152232479304
-0.0045767850242555
-0.0041563371196389
-0.0038334061391651
-0.0035417831968516
-0.0032169381156563
-0.0028063752688467
-0.0022768119815737
-0.0016158131184056
-0.0008291801204904
6.277425563894212e-05
0.0010290999198332
0.0020325847435742
0.0030335139017552
0.0039931829087436
0.004878721665591
0.0056670387275516
0.0063453619368374
0.0069093145430088
0.0073614087887108
0.007711389567703
0.0079739335924386
0.0081593161448836
0.0082613006234169
0.0082503287121653
0.0080762729048728
0.0076789297163486
0.0070014684461057
0.0060044284909963
0.0046788780018687
0.0030553741380572
0.0012060619192197
-0.0007603336125612
-0.0027105223853141
-0.0045038214884698
-0.0060091512277722
-0.0071192448958754
-0.0077634709887206
-0.0079173911362886
-0.0076051265932619
-0.0068929553963243
-0.0058759367093443
-0.0046634883619844
-0.0033678996842354
-0.0020940776448696
-0.000928844558075
6.857980042695999e-05
0.0008724769577383
0.0014914791099727
0.0019626752473413
0.0023399281781166
0.002683168509975
0.0030522893648594
0.0035000478383153
0.0040618204511702
0.0047493297606706
0.0055516986176371
0.0064400420524179
0.0073733287863433
0.0083056567236781
0.0091932006180286
0.0099989576265215
0.0106953009963035
0.0112647712230682
0.0116999810561537
0.0120023507624864
0.0121792806312441
0.0122414920479059
0.0121996942907571
0.0120577542111277
0.0118032880127429
0.0114012556150555
0.0107965609058737
0.0099259000271558
0.0087338760495185
0.0071886777877807
0.005294089205563
0.0030956305563449
0.0006796056404709
-0.0018351813778281
-0.0043114926666021
-0.0066104321740567
-0.0086067728698253
-0.0102004865184426
-0.011325592175126
-0.0119571536779403
-0.0121149830520153
-0.011861465871334
-0.0112922135740518
-0.0105214267969131
-0.0096660107374191
-0.0088319443166255
-0.0081040244549512
-0.0075392369180917
-0.0071634836494922
-0.0069707836955785
-0.0069258576259016
-0.0069715045392513
-0.0070398231036961
-0.007063397206366
-0.0069823926314711
-0.0067496411502361
-0.0063375877216458
-0.0057431124150753
-0.0049848351627588
-0.0040960758924484
-0.0031191958114504
-0.0021015619859099
-0.0010914159938693
-0.0001330177765339
0.0007390076643787
0.0015032968949526
0.0021512084640562
0.0026849876157939
0.0031151061411947
0.0034531485289335
0.0037013969849795
0.0038452041335403
0.0038517594803124
0.0036742135416716
0.0032599978148937
0.0025647075381129
0.00156893779058
0.0002892048796638
-0.0012197855394333
-0.0028686570003628
-0.0045438795350492
-0.0061226077377796
-0.0074855340644717
-0.0085283061489462
-0.0091730514541268
-0.0093768890947103
-0.0091353598982095
-0.0084824636578559
-0.007488390430808
-0.0062522939406335
-0.004888417199254
-0.0035089494194835
-0.0022093460429459
-0.0010594048071652
-9.914045222103596e-05
0.0006619587074965
0.0012420343700796
0.0016807948704808
0.0020320396870374
0.0023546596057713
0.0027019563131034
0.0031140185892581
0.0036163686309009
0.0042206705547869
0.0049234754405915
0.0057052676565945
0.0065327985212206
0.007363679818809
0.0081522613763809
0.0088560339063405
0.0094398753717541
0.0098779518157243
0.0101557048037648
0.0102711534127593
0.0102314129471778
0.0100434608757495
0.0097047816962003
0.0092005413025617
0.0085068065673112
0.007594896480441
0.006437465082854
0.0050189923495054
0.0033468068577349
0.0014577542897313
-0.000580102787353
-0.0026705840136855
-0.0046976488083601
-0.0065388386137783
-0.0080815413966774
-0.0092367492616176
-0.0099480412900447
-0.0101972445845603
-0.0100060245022177
-0.0094318753108382
-0.0085593741387128
-0.0074889073148369
-0.0063255038112401
-0.005169004201889
-0.0041045695543289
-0.003193148644641
-0.0024640350602567
-0.0019124990794807
-0.0015044049359858
-0.0011865440756082
-0.000898499507457
-0.0005829520523548
-0.0001936450134962
0.0002994323149323
0.0009080956224352
0.0016272086650133
0.0024380963295698
0.0033121944870799
0.0042129233479499
0.0050970907323062
0.0059203403070569
0.0066455723717808
0.0072478116489946
0.0077131828293204
0.0080339070409536
0.0082015451043844
0.0082007916644215
0.008006446994841
0.0075859795324504
0.006907410454005
0.0059490506537258
0.0047092549502849
0.0032159350812435
0.0015301869716495
-0.000260928296484
-0.0020569814369082
-0.0037548278924077
-0.0052571883425116
-0.006481853313744
-0.0073702023364603
-0.0078905029222369
-0.0080362539738416
-0.0078250132501125
-0.0072991680353879
-0.0065246485173702
-0.0055848816409707
-0.0045712664723396
-0.003571675857529
-0.0026579916011542
-0.0018772925250232
-0.0012509580701589
-0.0007776962593197
-0.0004362987820059
-0.0001907881814986
2.071959897875786e-06
0.000186855206266
0.0004053334705531
0.0006918173748999
0.0010684442240744
0.0015432168729603
0.0021106747444719
0.002752959029749
0.0034421517048031
0.0041461298242211
0.0048355776816606
0.0054857982322573
0.0060711060650646
0.0065571824088692
0.0068982332013547
0.0070404098369181
0.0069278571754693
0.0065097985789179
0.0057502472773194
0.0046385810710489
0.0031983021181076
0.0014924990246072
-0.0003786321030929
-0.0022902498021721
-0.0041096331551671
-0.0057108169421553
-0.0069858357310295
-0.0078548230230808
-0.0082748159766197
-0.0082441857084631
-0.0078017325140535
-0.0070205801166594
-0.0059970710426568
-0.0048377057537436
-0.0036463313736021
-0.0025116323959082
-0.0014978747349232
-0.0006423583254218
4.172115586698055e-05
0.0005610233638435
0.0009384972508996
0.0012095208512619
0.0014174384996294
0.0016084008384495
0.0018236716277897
0.0020917891524732
0.0024267826229333
0.0028326092287898
0.0033074598759412
0.0038440781645476
0.0044284099712967
0.0050399806350469
0.0056544775143265
0.0062465108931064
0.0067888852208852
0.0072468593716621
0.0075718853622674
0.0077017964795231
0.0075690485537052
0.0071118241176009
0.0062841884791851
0.0050666444003582
0.0034759377595037
0.0015690089203417
-0.0005598932038992
-0.0027864938601851
-0.0049680140800774
-0.0069592408835887
-0.0086299981921911
-0.0098792500793933
-0.0106443604454398
-0.0109065296128392
-0.0106912236660718
-0.0100615825504064
-0.0091062942519783
-0.0079276664182543
-0.0066332342103123
-0.0053278608247637
-0.004103809595108
-0.0030299231875687
-0.0021438454277813
-0.001450901152566
-0.0009278855286538
-0.0005300242919474
-0.000201221788302
0.000115925213322
0.0004729406209662
0.0009097588481381
0.0014507601736113
0.0021038849372416
0.0028627610299736
0.0037094973959028
0.0046151713468134
0.0055412854999303
0.006446111947298
0.0072921700775623
0.0080491937696933
0.0086901756003499
0.009183689020574
0.009488402865827
0.0095524191856384
0.0093185622245073
0.0087348222732543
0.0077658942900598
0.0064037404954433
0.0046773366630077
0.0026582058053463
0.0004569966113194
-0.0017885529669001
-0.0039303144440054
-0.0058276401832699
-0.0073627280071377
-0.0084509123116731
-0.0090472251176834
-0.0091498112305998
-0.0087975710630416
-0.0080625042319297
-0.0070401509292423
-0.0058388882316648
-0.0045681586489081
-0.0033269203267991
-0.002192610874772
-0.0012123622000217
-0.0004020371707156
0.0002457305672578
0.0007522847736254
0.0011481995461508
0.0014705721987411
0.0017591801006346
0.0020516398362815
0.0023785603698343
0.0027605390641838
0.0032081697136163
0.0037224600091576
0.0042944243177771
0.0049060871824622
0.0055331951007246
0.0061489092186093
0.0067283632233738
0.0072513143531978
0.0076995533891022
0.0080512361600995
0.0082768937572836
0.0083381347358226
0.0081885606050491
0.007777476683259
0.0070571531541645
0.0059933084994554
0.004576202481985
0.0028303042054176
0.0008198358118534
-0.0013537304475903
-0.0035620089620351
-0.0056646028533577
-0.0075246258638799
-0.0090227853506803
-0.0100706908851861
-0.0106219314038753
-0.0106777362525463
-0.0102849397808313
-0.0095266867429018
-0.0085093127563595
-0.0073478622362017
-0.0061518624424934
-0.0050141182728111
-0.0040040956810116
-0.0031641621608287
-0.0025073650758713
-0.0020186970941722
-0.0016606518765911
-0.0013814400881528
-0.0011243266053497
-0.0008377181366086
-0.0004847028758376
-4.751398228108883e-05
0.0004739616997539
0.001065288670361
0.0017017817590385
0.0023548114113509
0.0029971587937325
0.0036061203572899
0.0041651129722595
0.0046634413301944
0.0050945430994033
0.0054545942693948
0.005742295179516
0.0059580304659903
0.0060993866063654
0.0061529129743576
0.0060874121263623
0.0058542597107589
0.0053961053490638
0.0046610883437097
0.0036168922670185
0.0022613713517785
0.0006301081739366
-0.0012011304497718
-0.0031236070208251
-0.0050109880976378
-0.0067357067018747
-0.0081836450845003
-0.0092673208564519
-0.0099346078932285
-0.0101721119135618
-0.0100056417286396
-0.0094968015328049
-0.00873305182904
-0.0078131724148988
-0.0068331910297274
-0.005876310635358
-0.0050066718831658
-0.0042653656564652
-0.0036694519221782
-0.0032138573005795
-0.0028750235214829
-0.0026179188862442
-0.002404817380011
-0.0022002775222063
-0.0019721158314496
-0.0016925081145018
-0.0013405969366431
-0.0009054532274603
-0.0003878164570778
0.0002015067730098
0.0008462674450129
0.0015282705426216
0.0022278167307376
0.0029232744127511
0.0035914252512156
0.0042088916525244
0.0047549111768603
0.0052148308604955
0.0055818390101194
0.0058550820685923
0.0060350783169269
0.0061176037415862
0.0060877781361341
0.0059181032702326
0.0055723171681165
0.0050140339881181
0.0042184465564787
0.0031836251728236
0.0019368724897503
0.000533937010914
-0.0009470090735703
-0.0024129729717969
-0.0037646705750375
-0.0049079004675149
-0.0057668075896799
-0.0062943017110228
-0.0064759799279272
-0.0063283760100603
-0.005894829519093
-0.0052396850660443
-0.0044395374134182
-0.0035734414122998
-0.0027148160152137
-0.0019252400379627
-0.0012504874030128
-0.0007184795103967
-0.0003374216612428
-9.492388926446438e-05
4.0081096813082695e-05
0.0001124071422964
0.0001722618471831
0.0002658045850694
0.0004285939503461
0.0006816976238042
0.0010299151763319
0.0014628660865128
0.0019578700885176
0.0024849858600646
0.0030142632313072
0.0035201685968786
0.0039817532524466
0.0043838848359882
0.0047194259241223
0.0049881655722856
0.0051937964744865
0.0053422832861542
0.0054409513249993
0.0054950332269072
0.005502083338797
0.0054484051652252
0.0053093386813998
0.0050525334663689
0.004643022082746
0.0040497281588613
0.003254513721913
0.0022625541314482
0.0011087474413216
-0.0001438846811652
-0.0014138780534267
-0.0026157584507018
-0.0036727674305438
-0.0045240139588713
-0.0051287314854562
-0.0054694288410246
-0.0055517596192657
-0.005401536822319
-0.0050625335425138
-0.0045952978543937
-0.0040716044604778
-0.0035620687995105
-0.003123863833025
-0.002795512555167
-0.0025958283804357
-0.0025227097794413
-0.0025542029179632
-0.0026539484970271
-0.0027790472377091
-0.0028872517868876
-0.0029421434737741
-0.0029170659836381
-0.0027973260730504
-0.0025798694696277
-0.0022722121793776
-0.0018916878616437
-0.0014635258121415
-0.0010169001761823
-0.0005796905606985
-0.0001735719852149
0.000188601668924
0.0005033719353377
0.0007768410723656
0.0010230673942714
0.0012587949167937
0.0014975136145949
0.0017456931527704
0.0020000368822366
0.0022461467888206
0.0024589961394667
0.0026032999157905
0.0026353104040026
0.0025098163168877
0.0021910348441451
0.001662336057052
0.0009318008087575
3.2629817724227905e-05
-0.0009808046743273
-0.0020385682582855
-0.0030622915364801
-0.0039758896455168
-0.0047171195037662
-0.0052445507608354
-0.0055392114445567
-0.0056031174026429
-0.0054570566862821
-0.0051391539163887
-0.0047015119343996
-0.0042019253596663
-0.0036939003039151
-0.0032198261469602
-0.0028077652677893
-0.0024704013485461
-0.0022060293704271
-0.0020030091982334
-0.0018461421132087
-0.0017197064589709
-0.0016069383127614
-0.0014895722270011
-0.0013476208550855
-0.001160264131613
-0.000910438131541
-0.0005908454768359
-0.0002065839944407
0.0002262309426441
0.0006848337361589
0.0011466010473668
0.0015939286677166
0.0020143520087003
0.0023999121040105
0.0027475478127598
0.0030579890590161
0.0033338500652462
0.0035787713713943
0.0037962854839861
0.0039877258241176
0.004150363150984
0.0042751594446599
0.0043438961729407
0.0043295389041304
0.0042023728601634
0.0039378246292471
0.0035213707014918
0.0029513698536902
0.0022416242863982
0.0014215346891433
0.0005331378197297
-0.0003726130817085
-0.0012408823240548
-0.0020188440103083
-0.002659268444404
-0.0031230316963046
-0.0033837184309959
-0.0034333814401179
-0.0032861838117241
-0.0029771896079182
-0.0025560329668223
-0.0020785531960427
-0.0015980834141373
-0.0011572174262255
-0.0007842299528419
-0.0004939897917211
-0.0002886736765503
-0.0001588915474712
-8.774455636739731e-05
-5.567120388150215e-05
-4.240265116095543e-05
-2.5622081011533737e-05
2.051563933491707e-05
0.0001232074573636
0.0003045024350285
0.0005746898241341
0.0009300056844949
0.0013547025155276
0.0018251545261591
0.0023149300832301
0.0027997193392366
0.0032591293565928
0.003676040098071
0.0040379492565989
0.0043388409540057
0.0045774020254611
0.0047540231607854
0.0048698275350034
0.0049260039813816
0.0049211815930902
0.0048472993075847
0.0046873399987816
0.0044178776443004
0.0040152193978428
0.003461878048256
0.0027515729889273
0.001893451437354
0.0009156093001365
-0.0001355819404125
-0.0012020908761769
-0.0022224716376513
-0.0031378646381199
-0.0038973484188318
-0.0044630919583141
-0.0048124743625521
-0.0049381190910935
-0.0048485212028026
-0.0045691863633692
-0.004142774734646
-0.0036254050210118
-0.0030784229747951
-0.002558680716902
-0.0021099802106618
-0.0017581670545041
-0.0015110527165234
-0.0013606818392872
-0.0012856931425631
-0.0012547047808766
-0.0012320098467171
-0.0011829542927443
-0.0010764691978693
-0.0008884337730705
-0.0006075161509215
-0.0002379375509917
0.0002034418284893
0.0006929687224328
0.0012061106972396
0.0017216694541275
0.0022244453430175
0.0027061062864959
0.0031635200139135
0.0035958858206868
0.0040019401349127
0.0043784929439425
0.0047212447971105
0.0050250175409018
0.00528125744313
0.0054752752184867
0.0055842567235231
0.0055757923983037
0.0054102833382785
0.0050494074821472
0.0044672326184809
0.0036584287881851
0.002640577731654
0.001452601281926
0.0001522111706435
-0.0011886074207723
-0.0024903058074414
-0.0036727413535118
-0.0046623153612017
-0.0053996378555893
-0.0058466657064855
-0.0059913909062743
-0.0058496706187725
-0.005464325658977
-0.0048992363736033
-0.0042287241667509
-0.0035267896018922
-0.0028584906831383
-0.0022734319791197
-0.0018026214092969
-0.0014585191383957
-0.0012355670332908
-0.0011111851781606
-0.0010499181225895
-0.0010099480859935
-0.0009484477341175
-0.0008257953450083
-0.000611322466284
-0.0002899700775742
0.0001349463127553
0.0006451397202908
0.0012125181965529
0.0018034046515822
0.0023845639079809
0.0029307927470654
0.0034287094604223
0.0038750269450247
0.0042741415090858
0.0046369112096726
0.0049778213724493
0.0053104534745216
0.0056423163041472
0.0059687504544854
0.006267346907407
0.0064970958046615
0.006604197435081
0.0065302182920277
0.0062198974192142
0.0056309751234948
0.004744884558022
0.0035741073079407
0.0021646365057677
0.0005934624932706
-0.0010384840425103
-0.0026175563689321
-0.0040320553816854
-0.0051867081783711
-0.0060134148225188
-0.0064772684127092
-0.0065778461284935
-0.0063466019928455
-0.0058412766084074
-0.0051385220140218
-0.0043255542404949
-0.0034910384565591
-0.0027159331366419
-0.0020642867311835
-0.0015756855718791
-0.00126245431602
-0.0011105625890195
-0.001082647126168
-0.0011247028596699
-0.0011760029010474
-0.001179183833301
-0.0010877954773604
-0.0008699269965291
-0.0005096555687487
-8.383765816688538e-06
0.0006154589354991
0.0013299095444381
0.0020953109487891
0.0028715662192553
0.0036247498355805
0.0043297344818711
0.0049694622866809
0.0055342214182019
0.0060210777446627
0.0064316568896174
0.0067685218527913
0.0070314379408955
0.0072128158062696
0.0072917849756777
0.0072304457426071
0.006977189797908
0.0064774281345307
0.0056870887055993
0.0045838151127099
0.0031735056545585
0.0014931939076632
-0.0003884828765876
-0.0023742672055959
-0.0043453960679471
-0.0061733112670481
-0.0077355215325951
-0.008931316435337
-0.009693382307887
-0.0099945105612277
-0.0098500000312924
-0.0093160662800073
-0.0084822745993733
-0.0074578416533768
-0.0063564190641045
-0.0052825659513473
-0.004320272244513
-0.0035253160167485
-0.0029228753410279
-0.0025093336589634
