bvp
-0.0169760361313819
-0.0159011762589216
-0.014744359999895
-0.0135754402726888
-0.0124551868066191
-0.0114318840205669
-0.0105378292500972
-0.0097849601879715
-0.0091635501012206
-0.0086454153060913
-0.0081895813345909
-0.0077497158199548
-0.007282979786396
-0.0067571830004453
-0.0061533106490969
-0.0054635182023048
-0.0046879304572939
-0.0038341097533702
-0.0029184133745729
-0.0019657893572002
-0.0010075157042592
-7.775984704494476e-05
0.0007917080074548
0.0015778292436152
0.0022696759551763
0.002867012983188
0.0033764156978577
0.0038068534340709
0.0041647879406809
0.0044504716061055
0.0046574925072491
0.004774042405188
0.0047828648239374
0.0046607982367277
0.0043817963451147
0.0039238044992089
0.0032769404351711
0.0024522594176232
0.0014894728083163
0.0004584373673424
-0.0005489863688126
-0.0014326387317851
-0.0020976748783141
-0.0024680509231984
-0.0024989261291921
-0.0021831279154866
-0.0015498044667765
-0.0006574961007572
0.0004148766747675
0.001576286740601
0.0027318834327161
0.0037935923319309
0.0046911272220313
0.0053797294385731
0.005844151135534
0.0060987900942564
0.0061825769953429
0.0061500477604568
0.0060626342892646
0.0059811030514538
0.0059581310488283
0.006032426841557
0.0062250732444226
0.0065373540855944
0.0069514419883489
0.0074345851317048
0.0079439058899879
0.0084309447556734
0.0088484389707446
0.0091584287583827
0.0093374578282237
0.0093779545277357
0.0092876497656106
0.0090862922370433
0.0087979137897491
0.0084403557702898
0.0080172028392553
0.007516493089497
0.0069147530011832
0.0061820810660719
0.0052877650596201
0.0042081703431904
0.0029360703192651
0.0014881659299135
-9.161699563264848e-05
-0.0017335533630102
-0.0033475498203188
-0.0048311846330761
-0.0060814535245299
-0.0070115579292178
-0.0075678676366806
-0.007739127613604
-0.0075554307550191
-0.0070809219032526
-0.0064033297821879
-0.0056204884313046
-0.004826620221138
-0.0041019092313945
-0.0035055885091423
-0.0030716306064277
-0.0028062362689524
-0.0026878484059125
-0.0026723272167146
-0.002702854340896
-0.0027204505167901
-0.0026721258182078
-0.0025160538498312
-0.0022245226427912
-0.0017848410643637
-0.001198163954541
-0.0004786890931427
0.0003455579280853
0.0012338273227214
0.002137859351933
0.0030084871686995
0.0038016089238226
0.0044844797812402
0.0050411527045071
0.0054734554141759
0.0057955170050263
0.0060229934751987
0.0061618769541382
0.0062022535130381
0.0061177434399724
0.0058678034693002
0.0054027144797146
0.0046732705086469
0.0036429087631404
0.0022977581247687
0.0006534471176564
-0.0012403172440826
-0.003298167604953
-0.0054046008735895
-0.0074281822890043
-0.0092389080673456
-0.010723945684731
-0.0118035105988383
-0.0124481599777936
-0.0126926135271787
-0.0126383192837238
-0.0124390963464975
-0.0122714545577764
-0.0122993635013699
-0.0126437246799469
-0.0133618619292974
-0.0144388414919376
-0.0157911796122789
-0.0172817260026931
-0.018741076812148
-0.0199905596673488
-0.0208650361746549
-0.021233482286334
-0.0210133995860815
-0.0201767142862081
-0.0187467001378536
-0.01678610406816
-0.0143789583817124
-0.0116098709404468
-0.0085439924150705
-0.0052131242118775
-0.001613569445908
0.0022849035449326
0.0065238564275205
0.0111386813223361
0.0161408670246601
0.0215011090040206
0.0271353051066398
0.0328974910080432
0.038584005087614
0.0439496636390686
0.048730157315731
0.0526634827256202
0.0555100180208683
0.0570740886032581
0.0572260022163391
0.0559189021587371
0.0531965531408786
0.0491929724812507
0.0441236197948455
0.0382668189704418
0.0319385007023811
0.0254654753953218
0.0191604644060134
0.0133002353832125
0.0081085655838251
0.0037474669516086
0.0003174152225255
-0.0021382346749305
-0.0036277901381254
-0.0042022867128252
-0.0039442777633666
-0.0029609221965074
-0.0013826712965965
0.000638099387288
0.002931909635663
0.0053180959075689
0.0076102130115032
0.009622074663639
0.0111741982400417
0.0121006183326244
0.012256845831871
0.0115278698503971
0.0098352804780006
0.0071450769901275
0.0034755915403366
-0.001099370419979
-0.0064530093222856
-0.0124094206839799
-0.0187497213482856
-0.0252240169793367
-0.0315697230398654
-0.0375340171158313
-0.0428957417607307
-0.0474828518927097
-0.0511854216456413
-0.0539641305804252
-0.0558510795235633
-0.0569409802556037
-0.0573739968240261
-0.057312972843647
-0.0569192916154861
-0.0563326515257358
-0.055656548589468
-0.0549484342336654
-0.0542162954807281
-0.0534258969128131
-0.0525177419185638
-0.0514255911111831
-0.0500906817615032
-0.0484722182154655
-0.0465542823076248
-0.0443473719060421
-0.0418856143951416
-0.0392215736210346
-0.036419041454792
-0.0335456170141696
-0.0306661203503608
-0.0278362296521663
-0.0250966362655162
-0.0224672965705394
-0.0199432149529457
-0.0174960400909185
-0.015081794001162
-0.0126500558108091
-0.0101520046591758
-0.0075495988130569
-0.0048266742378473
-0.0019961036741733
0.0009016674011945
0.0038064215332269
0.006647964939475
0.0093555953353643
0.0118667222559452
0.0141346333548426
0.0161346085369586
0.0178669691085815
0.01935550943017
0.0206408370286226
0.0217710770666599
0.0227931961417198
0.0237456336617469
0.0246519930660724
0.0255166962742805
0.0263243317604064
0.0270442590117454
0.0276385731995105
0.0280707217752933
0.0283145513385534
0.0283623468130826
0.0282290205359458
0.0279523469507694
0.0275896806269884
0.0272105522453784
0.0268861316144466
0.026679178699851
0.0266369394958019
0.026785735040903
0.0271264351904392
0.0276337265968322
0.0282609574496746
0.0289474502205848
0.0296253859996795
0.0302268527448177
0.030691472813487
0.030974306166172
0.0310529265552759
0.0309301167726516
0.0306304842233657
0.0301938448101282
0.0296682622283697
0.0291032548993825
0.0285430327057838
0.0280206929892301
0.0275549665093421
0.0271496716886758
0.0267957523465156
0.0264748148620128
0.0261621475219726
0.0258299820125103
0.025451211258769
0.025001747533679
0.0244631320238113
0.0238266065716743
0.0230946913361549
0.0222780629992485
0.021388778463006
0.0204313192516565
0.0193957611918449
0.0182564593851566
0.0169753171503543
0.0155072379857301
0.0138070313259959
0.0118396431207656
0.0095928013324737
0.007087237201631
0.0043812226504087
0.001567575498484
-0.0012375821825116
-0.0039106938056647
-0.0063361767679452
-0.0084196608513593
-0.0100986082106828
-0.0113488165661692
-0.01218600012362
-0.0126613155007362
-0.0128502994775772
-0.012839057482779
-0.0127121619880199
-0.0125431483611464
-0.0123879807069897
-0.0122818890959024
-0.0122383162379264
-0.0122493961825966
-0.0122900512069463
-0.0123262675479054
-0.012324278242886
-0.0122579131275415
-0.0121134901419281
-0.011891009286046
-0.0116008566692471
-0.0112581029534339
-0.0108790900558233
-0.010482857003808
-0.0100939814001321
-0.0097427703440189
-0.0094619616866111
-0.0092799989506602
-0.0092129511758685
-0.0092598898336291
-0.0094045586884021
-0.0096220560371875
-0.0098879802972078
-0.0101875653490424
-0.0105209052562713
-0.0109015125781297
-0.0113504771143198
-0.0118894483894109
-0.0125333787873387
-0.0132844597101211
-0.0141281811520457
-0.0150313526391983
-0.015942370519042
-0.0167934466153383
-0.0175042022019624
-0.0179861076176166
-0.0181484390050172
-0.0179080888628959
-0.0172032937407493
-0.016007162630558
-0.0143370935693383
-0.0122588649392127
-0.0098832072690129
-0.0073535763658583
-0.0048287757672369
-0.0024636131711304
-0.0003892695531249
0.0013023037463426
0.0025661662220954
0.0034042680636048
0.0038598095998167
0.0040080370381474
0.0039434740319848
0.0037651788443326
0.0035636806860566
0.0034109903499484
0.0033538350835442
0.0034114746376872
0.0035784235224127
0.003829919733107
0.0041280463337898
0.0044289724901318
0.0046919705346226
0.0048876404762268
0.0050017796456813
0.0050344849005341
0.0049966135993599
0.0049047553911805
0.0047752913087606
0.0046186372637748
0.0044340193271636
0.0042060455307364
0.0039061475545167
0.0034993812441825
0.0029532182961702
0.0022450145334005
0.0013672681525349
0.0003315294161438
-0.0008298587054014
-0.0020663747563958
-0.0033154394477605
-0.004509475082159
-0.0055828485637903
-0.0064792046323418
-0.0071590533480048
-0.0076051740907132
-0.0078242234885692
-0.0078449174761772
-0.0077130193822085
-0.007484090514481
-0.0072157569229602
-0.0069602755829691
-0.0067578162997961
-0.0066317217424511
-0.0065871989354491
-0.006613970734179
-0.0066909478046
-0.0067908721975982
-0.0068846163339912
-0.0069437967613339
-0.0069423848763108
-0.0068596587516367
-0.0066829766146838
-0.0064089423976838
-0.0060445219278335
-0.0056079248897731
-0.005126828327775
-0.0046338061802089
-0.0041609099134802
-0.0037341795396059
-0.0033687138929963
-0.0030664224177598
-0.0028186680283397
-0.0026129314210265
-0.0024397091474384
-0.0022970796562731
-0.002192614134401
-0.002142860321328
-0.0021702649537473
-0.0022974833846092
-0.002540748566389
-0.0029040991794317
-0.0033738515339791
-0.003913199994713
-0.0044593843631446
-0.0049264882691204
-0.0052156038582324
-0.0052306586876511
-0.0048964084126055
-0.004175167530775
-0.0030782569665461
-0.0016692101489752
-5.684420466423035e-05
0.0016213902272284
0.0032206727191805
0.0046089463867247
0.0056828227825462
0.006378261372447
0.0066762194037437
0.0066024134866893
0.0062199407257139
0.0056169549934566
0.0048937555402517
0.0041517098434269
0.00348537764512
0.0029796343296766
0.0027105247136205
0.0027439193800091
0.003127944888547
0.0038816290907561
0.0049847480840981
0.0063732271082699
0.0079428944736719
0.0095613775774836
0.0110856592655181
0.012381438165903
0.0133398538455367
0.013889092952013
0.0140003580600023
0.0136870918795466
0.0129970060661435
0.0119994897395372
0.0107723027467727
0.0093908850103616
0.0079213790595531
0.0064162341877818
0.0049122311174869
0.0034320401027798
0.0019893576391041
0.0005960969720035
-0.0007312106899917
-0.0019678156822919
-0.00307935802266
-0.0040224054828286
-0.0047486312687397
-0.0052135763689875
-0.0053878100588917
-0.0052660307846963
-0.0048703365027904
-0.0042472230270504
-0.003461436368525
-0.0025889491662383
-0.0017078341916203
-0.0008874898776412
-0.0001806733198463
0.0003799009136855
0.0007832264527678
0.0010401313193142
0.0011796923354268
0.0012434956151992
0.0012794598005712
0.0013339209835976
0.0014434882905334
0.0016307034529745
0.0019035260193049
0.0022563221864402
0.0026720794849097
0.0031253839842975
0.0035853518638759
0.0040193386375904
0.0043980129994452
0.0047007007524371
0.0049181110225617
0.0050515029579401
0.0051107453182339
0.0051109194755554
0.0050665256567299
0.0049864030443131
0.0048709316179156
0.0047103995457291
0.0044850283302366
0.0041679441928863
0.0037309001199901
0.0031503483187407
0.0024122400209307
0.0015172405401244
0.0004857428721152
-0.0006402169819921
-0.0017979325493797
-0.0029083024710416
-0.0038853751029819
-0.0046500940807163
-0.0051450547762215
-0.0053466828539967
-0.0052713057957589
-0.0049734599888324
-0.0045363488607108
-0.0040552327409386
-0.0036184203345328
-0.0032933298498392
-0.00312025193125
-0.0031103836372494
-0.0032460684888064
-0.0034848409704864
-0.0037677602376788
-0.0040292856283485
-0.0042055021040141
-0.0042398944497108
-0.0040880222804844
-0.003722520545125
-0.0031364280730485
-0.0023402483202517
-0.0013544782996177
-0.0002053176867775
0.0010745984036475
0.0024443899746984
0.0038538086228072
0.005243778694421
0.0065505793318152
0.0077125569805502
0.0086751598864793
0.0093918293714523
0.009822342544794
0.0099321072921156
0.009694367647171
0.0090939570218324
0.0081296022981405
0.006814147811383
0.0051743863150477
0.0032523442059755
0.0011087264865636
-0.0011742510832846
-0.0034950743429362
-0.0057410914450883
-0.0077993129380047
-0.0095670837908983
-0.0109620951116085
-0.0119305336847901
-0.0124517073854804
-0.0125382076948881
-0.0122310742735862
-0.0115919196978211
-0.0106953252106904
-0.0096222860738635
-0.0084537742659449
-0.0072635826654732
-0.0061109075322747
-0.0050348113290965
-0.0040523656643927
-0.0031613942701369
-0.0023470972664654
-0.0015893463278189
-0.0008678056765347
-0.0001649232581257
0.0005319338524714
0.0012296012137085
0.0019297313410788
0.0026293424889445
0.0033211002591997
0.0039938334375619
0.0046331686899065
0.0052228667773306
0.005746659822762
0.0061901421286165
0.006543771829456
0.0068062832579016
0.0069852015003561
0.0070930826477706
0.0071423202753067
0.0071425111964344
0.0070994445122778
0.0070117451250553
0.0068661989644169
0.0066349687986075
0.0062755327671766
0.0057359091006219
0.0049677505157887
0.0039440421387553
0.002674605930224
0.0012138485908508
-0.0003424927126616
-0.0018712789751589
-0.0032419105991721
-0.0043369424529373
-0.0050704139284789
-0.0054005347192287
-0.0053331153467297
-0.0049157394096255
-0.0042255902662873
-0.003356052795425
-0.0024050627835094
-0.0014635947300121
-0.0006065759807825
0.0001104252878576
0.0006515702698379
0.0010002052877098
0.0011563638690859
0.0011322265490889
0.0009468167554587
0.0006218545604497
0.0001784053165465
-0.0003672905731946
-0.0010061936918646
-0.0017332256538793
-0.0025403467006981
-0.0034110154956579
-0.0043186950497329
-0.0052293865010142
-0.006106125190854
-0.006913217715919
-0.0076204319484531
-0.0082070603966712
-0.0086631020531058
-0.0089867822825908
-0.009180225431919
-0.0092438459396362
-0.0091710053384304
-0.0089449491351842
-0.0085378214716911
-0.0079118693247437
-0.007024195510894
-0.0058372868224978
-0.0043354774825274
-0.0025393944233655
-0.0005087643512524
0.0016658715903759
0.0038767121732234
0.0060153240337967
0.0079912543296813
0.0097494833171367
0.0112815834581851
0.0126231964677572
0.0138336392119526
0.0149658378213644
0.016042111441493
0.0170440841466188
0.0179154742509126
0.0185722522437572
0.0189159028232097
0.0188498236238956
0.0182981491088867
0.0172225814312696
0.0156327858567237
0.0135890617966651
0.0111964810639619
0.008590368553996
0.0059169339947402
0.0033140568993985
0.0008960822597146
-0.0012553883716464
-0.0030957241542637
-0.0046165715903043
-0.0058397846296429
-0.0068077873438596
-0.0075725400820374
-0.0081861987709999
-0.0086952298879623
-0.0091364895924925
-0.0095346486195921
-0.0099006285890936
-0.0102308122441172
-0.010508319362998
-0.010706914588809
-0.010798143222928
-0.010761184617877
-0.0105910263955593
-0.0103009790182113
-0.0099196415394544
-0.009484427049756
-0.009034289047122
-0.0086048832163214
-0.0082271564751863
-0.0079266978427767
-0.0077206748537719
-0.0076117925345897
-0.0075813410803675
-0.0075832856819033
-0.0075402562506496
-0.0073449006304144
-0.006871273741126
-0.0059956694021821
-0.004621707368642
-0.0027046503964811
-0.000269881915301
0.0025813626125454
0.0056821312755346
0.0088203307241201
0.0117631368339061
0.0142834465950727
0.0161869563162326
0.0173360556364059
0.0176652539521455
0.0171848163008689
0.0159740857779979
0.014166347682476
0.0119264274835586
0.009426299482584
0.0068248310126364
0.0042547732591629
0.0018182997591793
-0.0004105297848582
-0.0023809080012142
-0.00406214594841
-0.005443550646305
-0.0065347771160304
-0.0073635871522128
-0.0079722702503204
-0.0084136920049786
-0.0087441923096776
-0.0090139666572213
-0.0092601850628852
-0.0095062479376792
-0.0097656603902578
-0.0100458292290568
-0.0103487642481923
-0.0106706302613019
-0.0110029615461826
-0.0113346073776483
-0.0116534726694226
-0.011948081664741
-0.0122072864323854
-0.0124183278530836
-0.01256550475955
-0.0126291699707508
-0.0125852143391966
-0.0124072292819619
-0.0120700700208544
-0.011551596224308
-0.0108337085694074
-0.0099054407328367
-0.0087670078501105
-0.0074316496029496
-0.0059254504740238
-0.0042872568592429
-0.0025675690267235
-0.0008262493647634
0.0008693530689924
0.0024490049108862
0.0038494057953357
0.0050243465229868
0.005949595477432
0.0066223386675119
0.0070577301084995
0.0072843809612095
0.0073391636833548
0.0072612129151821
0.0070862830616533
0.0068436679430305
0.0065562375821173
0.0062413052655756
0.0059109292924404
0.0055724792182445
0.0052294353954494
0.0048823663964867
0.0045303595252335
0.004172162618488
0.0038079270161688
0.003442820161581
0.0030898824334144
0.0027685486711561
0.0024989638477563
0.0022947867400944
0.0021565868519246
0.0020679864101111
0.0019974811002612
0.0019053486175835
0.0017516585066914
0.0015034121461212
0.0011406769044697
0.0006622322835028
9.023630991578102e-05
-0.0005293861031532
-0.0011323071084916
-0.0016445061191916
-0.0019912309944629
-0.0021057073026895
-0.0019384184852242
-0.0014642709866166
-0.0006846962496638
0.0003735339269042
0.0016597765497863
0.0031020548194646
0.0046126823872327
0.0060961842536926
0.0074595636688172
0.0086276913061738
0.009563822299242
0.0102904858067631
0.0109040904790163
0.0115754138678312
0.0125290947034955
0.0140041476115584
0.0162085145711898
0.0192804001271724
0.0232609994709491
0.0280814878642559
0.0335696637630462
0.039476178586483
0.0455112420022487
0.0513815134763717
0.0568204075098037
0.0616091676056385
0.0655897408723831
0.0686674639582634
0.0707987844944
0.071966178715229
0.072149857878685
0.0713045448064804
0.0693465396761894
0.0661573857069015
0.0616133585572242
0.0556385293602943
0.0482566356658935
0.0396156907081604
0.0299789756536483
0.0196901187300682
0.0091245174407958
-0.0013592354953289
-0.0114558823406696
-0.0209333803504705
-0.0296390652656555
-0.0374958254396915
-0.0444917455315589
-0.0506662763655185
-0.0560924522578716
-0.0608557499945163
-0.0650344938039779
-0.0686857923865318
-0.0718389526009559
-0.0744962245225906
-0.0766379609704017
-0.0782316178083419
-0.0792455300688743
-0.0796639174222946
-0.079498067498207
-0.0787914842367172
-0.0776179134845733
-0.0760722905397415
-0.0742562562227249
-0.0722622200846672
-0.0701609551906585
-0.0679952055215835
-0.0657787844538688
-0.0634997487068176
-0.0611264333128929
-0.0586177036166191
-0.0559367500245571
-0.053063478320837
-0.050001822412014
-0.0467811152338981
-0.0434527993202209
-0.0400848090648651
-0.0367552675306797
-0.0335438624024391
-0.0305199678987264
-0.0277310777455568
-0.0251947958022356
-0.0228959340602159
-0.0207908153533935
-0.018817264586687
-0.0169057473540306
-0.0149903707206249
-0.0130195179954171
-0.0109633896499872
-0.0088170189410448
-0.0066000688821077
-0.0043528825044631
-0.0021267812699079
2.8388574719429016e-05
0.0020736921578645
0.0039863511919975
0.0057620424777269
0.0074137318879365
0.0089673791080713
0.0104568675160408
0.011919867247343
0.0133940316736698
0.0149118620902299
0.0164945181459188
0.0181470680981874
0.019856808707118
0.0215947553515434
0.0233206562697887
0.0249909497797489
0.026566382497549
0.0280161201953887
0.0293190628290176
0.0304641220718622
0.031449519097805
0.0322812348604202
0.0329709276556968
0.0335338786244392
0.0339876264333725
0.034351360052824
0.0346452444791793
0.0348880439996719
0.0350937321782112
0.0352699309587478
0.0354189909994602
0.0355415977537632
0.0356418564915657
0.0357305370271205
0.0358243808150291
0.0359425097703933
0.0361011214554309
0.0363077633082866
0.0365571305155754
0.0368299037218093
0.0370956882834434
0.0373188480734825
0.0374635346233844
0.037496194243431
0.0373860374093055
0.0371044278144836
0.0366251617670059
0.0359260737895965
0.0349888280034065
0.0337959118187427
0.0323305651545524
0.0305849388241767
0.0285725556313991
0.0263359528034925
0.0239460244774818
0.021495833992958
0.0190912578254938
0.0168387126177549
0.0148319182917475
0.0131412260234355
0.0118074156343936
0.0108399679884314
0.0102188820019364
0.0098989438265562
0.0098157292231917
0.0098927766084671
0.0100493868812918
0.0102082835510373
0.0103029012680053
0.0102836424484848
0.010121944360435
0.0098122972995042
0.0093714306131005
0.0088323559612035
0.008233293890953
0.0076055265963077
0.0069649154320359
0.0063090166077017
0.0056200209073722
0.0048714713193476
0.0040353904478251
0.0030894342344254
0.0020234631374478
0.0008426640415564
-0.0004328051581978
-0.0017703955527395
-0.003130595665425
-0.0044730729423463
-0.005760374944657
-0.0069615733809769
-0.0080580366775393
-0.0090471720322966
-0.0099404538050293
-0.0107584446668624
-0.0115271667018532
-0.0122762406244874
-0.0130361504852771
-0.0138331810012459
-0.0146842412650585
-0.0155938453972339
-0.0165523048490285
-0.0175346359610557
-0.0185023173689842
-0.0194088853895664
-0.020207243040204
-0.0208567362278699
-0.0213292110711336
-0.0216122344136238
-0.0217086002230644
-0.0216331742703914
-0.0214087404310703
-0.0210621431469917
-0.0206200182437896
-0.0201044790446758
-0.0195304080843925
-0.0189033858478069
-0.018218744546175
-0.0174645092338323
-0.016627887263894
-0.0157029218971729
-0.0146970869973301
-0.0136350076645612
-0.0125580709427595
-0.0115192048251628
-0.0105747235938906
-0.0097756963223218
-0.0091588534414768
-0.0087392684072256
-0.0085091851651668
-0.0084420964121818
-0.0084975603967905
-0.0086261080577969
-0.0087764803320169
-0.0089043453335762
-0.008978514932096
-0.0089827273041009
-0.0089146355167031
-0.0087839011102914
-0.0086098760366439
-0.0084177087992429
-0.008232457563281
-0.0080740451812744
-0.007955702021718
-0.0078852297738194
-0.0078665800392627
-0.0078997984528541
-0.0079787066206336
-0.0080876303836703
-0.0082005783915519
-0.0082848267629742
-0.0083071319386363
-0.0082396380603313
-0.00806450471282
-0.007776454091072
-0.0073813525959849
-0.0068924925290048
-0.0063278703019022
-0.0057080066762864
-0.0050535323098301
-0.0043831309303641
-0.0037120636552572
-0.0030518099665641
-0.0024111387319862
-0.0017984519945457
-0.0012249015271663
-0.0007063361699692
-0.000262783432845
8.445605635643005e-05
0.000318347767461
0.0004323853645473
0.0004343064501881
0.0003470222000032
0.0002077252138406
6.43809325993061e-05
-3.1423987820744514e-05
-3.3193035051226616e-05
9.420188143849372e-05
0.0003715637139976
0.0008042841218411
0.0013827914372086
0.0020847083069384
0.0028782307635992
0.0037259350065141
0.0045885290019214
0.0054283258505165
0.0062120305374264
0.006913133431226
0.0075140851549804
0.0080069527029991
0.0083925807848572
0.0086796460673213
0.0088830469176173
0.0090202782303094
0.0091060111299157
0.0091475117951631
0.0091445641592144
0.0090938815847039
0.0089939208701252
0.0088475486263632
0.0086633143946528
0.0084562553092837
0.0082469144836068
0.0080574750900268
0.0079075638204813
0.0078117721714079
0.007777938619256
0.0078054335899651
0.0078834565356373
0.0079907588660717
0.0080984374508261
0.0081741278991103
0.0081850457936525
0.0080999843776226
0.0078919315710663
0.0075418390333652
0.0070421653799712
0.0063990456983447
0.0056332657113671
0.0047797420993447
0.0038838111795485
0.0029953003395348
0.0021639787591993
0.0014362698420882
0.0008503153221681
0.00043000432197
0.0001815957948565
9.373435750603676e-05
0.000139053328894
0.0002775245229713
0.0004626406589522
0.0006488552899099
0.0007973384927026
0.000879174855072
0.0008772897999733
0.0007884142687544
0.0006236392655409
0.0004058823687955
0.0001659949484746
-6.182381184771657e-05
-0.0002455378999002
-0.0003600354830268
-0.0003909207007382
-0.0003366082091815
-0.000206705648452
-1.808407250791788e-05
0.0002092574723064
0.0004562218673527
0.0007076926995068
0.0009539960883557
0.0011907240841537
0.0014176832046359
0.0016385840717703
0.0018619007896631
0.0021028099581599
0.002385513158515
0.0027422888670116
0.0032061231322586
0.003798930440098
0.0045208898372948
0.0053454069420695
0.0062204059213399
0.00707429042086
0.0078250784426927
0.0083911120891571
0.0087003055959939
0.0086964275687932
0.0083452016115188
0.0076408605091273
0.0066092815250158
0.0053062038496136
0.0038107857108116
0.0022131698206067
0.0005981363356113
-0.00096873100847
-0.0024472512304782
-0.0038200914859771
-0.0050843665376305
-0.0062434808351099
-0.0073030549101531
-0.0082691870629787
-0.0091463895514607
-0.0099352933466434
-0.0106313591822981
-0.0112242819741368
-0.0116980010643601
-0.0120334550738334
-0.0122140860185027
-0.0122307939454913
-0.0120844710618257
-0.0117864338681101
-0.011357108131051
-0.010823305696249
-0.0102147925645113
-0.0095608541741967
-0.0088884346187114
-0.0082224113866686
-0.0075857900083065
-0.0069985133595764
-0.0064752465113997
-0.0060228453949093
-0.0056387847289443
-0.005311856046319
-0.0050259111449122
-0.0047645363956689
-0.0045137591660022
-0.0042633945122361
-0.0040094256401062
-0.0037576567847281
-0.0035249986685812
-0.0033362361136823
-0.0032188452314585
-0.0031973363365978
-0.0032869991846382
-0.0034889625385403
-0.0037883115001022
-0.0041551711037755
-0.0045481519773602
-0.0049192113801836
-0.005218360107392
-0.0053971000015735
-0.0054113320074975
-0.0052244272083044
-0.0048096487298607
-0.0041515929624438
-0.0032482254318892
-0.0021151411347091
-0.0007896148599684
0.0006694061448797
0.0021856413222849
0.0036735325120389
0.0050494750030338
0.0062436875887215
0.0072092819027602
0.0079262917861342
0.0084007028490304
0.0086598601192235
0.0087460521608591
0.008709616959095
0.008601302281022
0.008464241400361
0.0083279954269528
0.0082063917070627
0.0080995038151741
0.0079988734796643
0.0078930202871561
0.007770737633109
0.0076217893511056
0.0074359430000185
0.0072020529769361
0.0069094151258468
0.00655098259449
0.0061244741082191
0.0056306244805455
0.005071310326457
0.0044482410885393
0.0037620598450303
0.0030126669444143
0.0022006831131875
0.0013285176828503
0.0004010801203548
-0.0005738651379942
-0.0015867084730416
-0.002626079134643
-0.0036761290393769
-0.0047133192420005
-0.0057053128257393
-0.0066139372065663
-0.0074026514776051
-0.0080449152737855
-0.0085292030125856
-0.0088592264801263
-0.0090497806668281
-0.0091210501268506
-0.0090946881100535
-0.0089915059506893
-0.0088294316083192
-0.0086219888180494
-0.0083773992955684
-0.0080987028777599
-0.0077855600975453
-0.0074362456798553
-0.0070485854521393
-0.0066209728829562
-0.0061537902802228
-0.0056494791060686
-0.005110774654895
-0.0045390869490802
-0.0039346078410744
-0.0032976362854242
-0.0026297038421034
-0.0019341938896104
-0.0012173012364655
-0.0004891471471637
0.0002365261316299
0.0009445891482755
0.0016211067559197
0.0022546660620719
0.0028365447651594
0.0033613245468586
0.003828409127891
0.0042416304349899
0.0046061286702752
0.0049257837235927
0.0052015408873558
0.0054289121180772
0.0055970167741179
0.005691660568118
0.0056997612118721
0.0056109903380274
0.0054169399663805
0.0051116468384861
0.0046953586861491
0.0041791629046201
0.0035866922698915
0.002952663693577
0.0023206057958304
0.0017392708687111
0.0012562796473503
0.00091023882851
0.0007235019002109
0.0006983203347772
0.0008178814314305
0.0010501479264348
0.0013525867834687
0.0016782965976744
0.0019838616717606
0.0022367180790752
0.0024184617213904
0.0025237780064344
0.0025581282097846
0.0025354945100843
0.0024755899794399
0.0024011130444705
0.0023349933326244
0.0022965739481151
0.0022983215749263
0.0023456204216927
0.0024383850395679
0.0025714640505611
0.0027341381646692
0.0029116685036569
0.0030890055932104
0.0032536461949348
0.0033968139905482
0.0035141124390065
0.0036048355977982
0.003669542260468
0.0037083481438457
0.0037215994670987
0.0037120291963219
0.0036854837089776
0.0036476533859968
0.0035997084341943
0.0035378937609493
0.003455696394667
0.0033451518975198
0.0031976085156202
0.0030030782800167
0.0027482921723276
0.0024178370367735
0.0019989456050097
0.0014866172568872
0.0008882916299626
0.0002265718067064
-0.000462979049189
-0.0011377674527466
-0.0017545509617775
-0.0022752061486244
-0.0026715556159615
-0.0029287266079336
-0.0030471114441752
-0.0030421044211834
-0.0029403842054307
-0.0027745433617383
-0.0025783486198633
-0.0023826551623642
-0.0022127632983028
-0.0020874729380011
-0.0020176421385258
-0.0020039516966789
-0.0020367433317005
-0.0020993906073272
-0.0021724079269915
-0.0022356377448886
-0.0022704889997839
-0.0022636991925537
-0.0022099378984421
-0.0021111804526299
-0.0019741379655897
-0.0018081322778016
-0.0016237990930676
-0.0014318246394395
-0.0012419897830113
-0.0010630892356857
-0.0009029235807247
-0.0007662986754439
-0.0006518156733363
-0.0005515877855941
-0.0004555532650556
-0.000356909527909
-0.0002547381445765
-0.0001542715472169
-6.578618194907904e-05
-1.5529803931713104e-06
2.7598347514867783e-05
1.3538519851863384e-05
-5.108420737087727e-05
-0.0001755861449055
-0.0003699706867337
-0.000639604171738
-0.0009806406451389
-0.0013779940782114
-0.0018057889537885
-0.0022311061620712
-0.0026191787328571
-0.0029376533348113
-0.0031600496731698
-0.0032682416494935
-0.0032540743704885
-0.0031206742860376
-0.0028818014543503
-0.0025589449796825
-0.0021788468584418
-0.0017713367706164
-0.0013656375231221
-0.0009866902837529
-0.0006530082901008
-0.0003751406329683
-0.0001550509477965
1.2932898243889213e-05
0.0001408361422363
0.0002450438623782
0.0003428463242016
0.0004500458016991
0.0005803045351058
0.0007439429173246
0.0009459833381697
0.0011849895818158
0.0014538192190229
0.0017418218776583
0.0020361775532364
0.0023218002170324
0.0025825488846749
0.0028046169318258
0.0029789987020194
0.0031017696019262
0.0031744295265525
0.0032036448828876
0.0031979775521904
0.0031635959167033
0.0031016902066767
0.0030076697003096
0.0028725326992571
0.0026859680656343
0.00243810727261
0.0021188298705965
0.0017176202964037
0.0012266322737559
0.0006461688317358
-1.0654155630618334e-05
-0.0007162988185882
-0.0014304853975772
-0.0021052947267889
-0.0026929574087262
-0.0031533874571323
-0.0034590016584843
-0.003596716094762
-0.003567871171981
-0.0033872812055051
-0.0030820057727396
-0.0026887157000601
-0.0022491831332445
-0.0018048877827823
-0.0013916925527155
-0.0010361047461628
-0.0007533382740803
-0.0005453357589431
-0.0004005568334832
-0.0002983050071634
-0.0002144236350432
-0.0001249702472705
-8.891482139006257e-06
0.0001491712027927
0.0003568991669453
0.0006145848892629
0.0009171005804091
0.0012550696264952
0.0016154660843312
0.0019838735461235
0.0023465533740818
0.0026900926604866
0.003001180011779
0.003267983905971
0.0034818321000784
0.0036382256075739
0.003735342528671
0.003770416136831
0.0037382477894425
0.0036326909903436
0.003447150811553
0.0031732225324958
0.0028012681286782
0.0023232069797813
0.0017343279905617
0.001035465975292
0.000237486208789
-0.0006354334764182
-0.0015467790653929
-0.0024507674388587
-0.0032953070476651
-0.0040264874696731
-0.0045956084504723
-0.0049663325771689
-0.0051198219880461
-0.0050574666820466
-0.0048000905662775
-0.0043831672519445
-0.0038509473670274
-0.0032523260451853
-0.0026375171728432
-0.0020533227361738
-0.0015369317261502
-0.0011109092738479
-0.0007819336606189
-0.0005427307914942
-0.0003751695039682
-0.0002542054280638
-0.0001532806199975
-4.945065302308649e-05
7.4354640673846e-05
0.000229477576795
0.0004222300485707
0.000654456729535
0.0009231406147591
0.0012187655083835
0.0015245395479723
0.0018181848572567
0.0020753373391926
0.0022731786593794
0.0023936927318573
0.0024265935644507
0.0023716450668871
0.0022384217008948
0.0020425517577677
0.0018003422301262
0.0015243664383888
0.0012218469055369
0.0008959147962741
0.0005478951497934
0.0001785032218322
-0.0002131651854142
-0.0006310368771664
-0.0010804119519889
-0.0015629886183887
-0.002071195282042
-0.0025847966317087
-0.0030726296827197
-0.0034988461993634
-0.0038293241523206
-0.0040366719476878
-0.0041034962050616
-0.0040221814997494
-0.0037939273752272
-0.0034309918992221
-0.0029588537290692
-0.0024132747203111
-0.0018348905723541
-0.0012664060341194
-0.0007502103107981
-0.0003224449465051
-6.605405360460281e-06
0.0001890952698886
0.0002716257586143
0.0002615605480968
0.0001886659883894
8.5528998170048e-05
-1.74963497556746e-05
-9.532726835459472e-05
-0.0001300197327509
-0.0001105898991227
-3.1089410185813904e-05
0.0001096887281164
0.0003064727643504
0.0005477193044498
0.0008181585581041
0.00110122282058
0.00138192018494
0.0016501529607921
0.0019011076074093
0.0021317014470696
0.0023369085974991
0.002508977195248
0.002638830570504
0.0027175713330507
0.0027366699650883
0.0026867929846048
0.00255684601143
0.0023356019519269
0.0020165019668638
0.0016028338577598
0.0011106863385066
0.0005696776206605
2.090813359245658e-05
-0.0004888524417765
-0.0009160574409179
-0.0012292475439608
-0.001413159770891
-0.0014670243253931
-0.0014015850611031
-0.0012377608800306
-0.0010042825015261
-0.0007330197840929
-0.000454974011518
-0.0001978131476789
1.662410795688629e-05
0.0001742127351462
0.0002688515232875
0.0003030253574252
0.0002887394512072
0.0002456504153087
0.0001974361948668
0.0001696144463494
0.0001869737170636
0.0002693008864298
0.0004277497646398
0.0006628492847084
0.0009646222461014
0.0013156129280105
0.0016951682046055
0.0020823471713811
0.0024566003121435
0.0027985591441392
0.0030932161025702
0.0033331140875816
0.0035187548492103
0.0036561493761837
0.0037520555779337
0.003809132380411
0.0038242659065872
0.0037897527217864
0.0036944169551134
0.0035249050706624
0.0032679035793989
0.0029112969059497
0.0024450253695249
0.0018642290960997
0.0011739190667867
0.0003930547973141
-0.0004438433097675
-0.001289511565119
-0.0020905439741909
-0.0027950583025813
-0.0033596367575228
-0.0037547708489
-0.0039681857451796
-0.0040049315430223
-0.0038847145624458
-0.0036391203757375
-0.0033094100654125
-0.0029421844519674
-0.0025814352557063
-0.0022604023106396
-0.0019974501337856
-0.0017956646624952
-0.0016441841144114
-0.0015220657223835
-0.0014049742603674
-0.0012707007117569
-0.0011008587898686
-0.0008815551991574
-0.0006055781850591
-0.0002745347155723
0.0001011877902783
0.0005044434219598
0.0009146130178123
0.001311111729592
0.0016753785312175
0.0019919970072805
0.0022509400732815
0.0024493159726262
0.0025896504521369
0.0026763454079627
0.0027141314931213
0.0027075388934463
0.00265783094801
0.00255943601951
0.0024007777683436
0.0021678565535694
0.0018456331454217
0.0014186820480972
0.0008761938661336
0.0002200189046561
-0.0005311369895935
-0.0013441806659102
-0.0021768829319626
-0.0029817847535014
-0.0037090256810188
-0.0043105725198984
-0.0047467853873968
-0.004992926493287
-0.0050420030020177
-0.0049035577103495
-0.0046001058071851
-0.004162251483649
-0.0036242278292775
-0.0030218642204999
-0.002393131610006
-0.0017783751245588
-0.0012166280066594
-0.0007390849059447
-0.0003638793132267
-9.41762700676918e-05
8.011877071112394e-05
0.0001775330165401
0.000219214183744
0.0002248291275463
0.0002111527719534
0.0001929010031744
0.0001842322526499
0.0001978899817913
0.0002420548698864
0.0003187052789144
0.0004243261064402
0.0005501284031197
0.0006811452331021
0.0007973933825269
0.0008795973844826
0.0009166795643977
0.0009086246136575
0.0008627598290331
0.0007872165879234
0.0006855930550955
0.0005554670351557
0.000390134693589
0.0001802261103875
-8.634821278974414e-05
-0.0004242194991093
-0.0008465991704724
-0.0013576759956777
-0.0019463780336081
-0.0025854504201561
-0.0032354008872061
-0.0038496351335197
-0.0043778615072369
-0.0047693541273474
-0.0049790842458605
-0.0049759079702198
-0.00474907271564
-0.0043100109323859
-0.0036899773404002
-0.0029365085065364
-0.0021085948683321
-0.0012692634481936
-0.0004781140014529
0.000215190462768
0.000777646433562
0.0011968880426138
0.0014795504976063
0.0016458503669127
0.0017237490974366
0.0017450989689677
0.0017439145594835
0.0017539409454911
0.0018036636756733
0.001911140512675
0.0020819795317947
0.0023111107293516
0.0025865798816084
0.0028932322748005
0.0032152642961591
0.0035374762956053
0.0038448171690106
0.0041211121715605
0.0043502869084477
0.0045206844806671
0.0046282326802611
0.0046755815856158
0.0046687265858054
0.0046137808822095
0.0045151500962674
0.0043748263269662
0.0041914712637662
0.0039590136148035
0.003666462842375
0.0032991720363497
0.0028401718009263
0.0022728152107447
0.0015871173236519
0.0007880891789682
-9.835371747612952e-05
-0.0010250082705169
-0.0019292156212031
-0.0027431694325059
-0.0034059477038681
-0.0038738981820642
-0.004125905688852
-0.0041629937477409
-0.0040053399279713
-0.0036895500961691
-0.0032652793452143
-0.0027889900375157
-0.0023156492970883
-0.0018915162654593
-0.0015488414792343
-0.0013015688164159
-0.0011439303634688
-0.0010537368943914
-0.0009990610415115
-0.0009460232686251
-0.0008649309165775
-0.0007333265384659
-0.0005373766180127
-0.0002724759979173
5.7719647884368896e-05
0.0004429531400091
0.0008673868724144
0.0013106123078614
0.0017489718738943
0.002156589180231
0.0025072931312024
0.0027795108035206
0.0029617697000503
0.0030541245359927
0.0030657979659736
0.003011759603396
0.0029084894340485
0.0027693593874573
0.0026021429803222
0.0024100590962916
0.0021945796906948
0.0019587355200201
0.0017116232775151
0.0014721459010615
0.0012680508662015
0.0011297973105683
0.0010833034757524
0.001145037356764
0.0013183457776904
0.0015902314335107
0.0019306088797748
0.002294956240803
0.002630328759551
0.0028837309218943
0.0030098799616098
0.0029767369851469
0.0027683484368026
0.0023846859112381
0.0018401955021545
0.0011616360861808
0.0003845496103167
-0.0004500827053561
-0.0012982505140826
-0.0021157292649149
-0.0028617167845368
-0.0035020562354475
-0.0040109660476446
-0.0043723406270146
-0.0045809894800186
-0.0046413326635956
-0.00456337723881
-0.004360026679933
-0.004047630354762
-0.0036471984349191
-0.0031840023584663
-0.0026861762162297
-0.0021837092936038
-0.0017068403540179
-0.0012822555145248
-0.0009284394327551
-0.0006525283679366
-0.00044975313358
-0.0003065519267693
-0.0002074677031487
-0.0001425138907507
-0.0001103285467252
-0.0001166954170912
-0.0001728486968204
-0.0002949023619294
-0.0005013111513108
-0.000808221346233
-0.0012247716076672
-0.0017492101760581
-0.0023663653992116
-0.003046762663871
-0.0037476455327123
-0.0044160289689898
-0.0049941278994083
-0.005427396390587
-0.005673520732671
-0.0057093296200037
-0.0055326907895505
-0.0051597482524812
-0.0046214731410145
