bvp
0.0040154103189706
0.0052628358826041
0.0064492761157453
0.0075224223546683
0.0084463525563478
0.0092036519199609
0.0097939036786556
0.0102312313392758
0.0105406092479825
0.0107497489079833
0.0108775040134787
0.0109222922474145
0.0108543187379837
0.0106151979416608
0.0101256519556045
0.0092999674379825
0.0080663580447435
0.0063901166431605
0.004291009157896
0.0018474960234016
-0.0008117705583572
-0.0035251439549028
-0.0061187245883047
-0.0084254005923867
-0.0103013310581445
-0.0116415042430162
-0.0123931420966982
-0.0125627201050519
-0.0122126964852213
-0.0114476783201098
-0.0103969275951385
-0.0092001752927899
-0.007993197068572
-0.0068899486213922
-0.0059671122580766
-0.0052570039406418
-0.0047497935593128
-0.0044019329361617
-0.0041471295990049
-0.003907851409167
-0.0036070104688405
-0.0031806051265448
-0.0025883780326694
-0.0018174469005316
-0.0008785889367572
0.0002013390767388
0.0013858489692211
0.0026304358616471
0.003881903598085
0.005081869661808
0.0061765369027853
0.0071280081756412
0.0079202810302376
0.008556667715311
0.0090521294623613
0.0094264457002282
0.009700296446681
0.0098922094330191
0.0100129125639796
0.0100553836673498
0.0099856974557042
0.0097434343770146
0.0092522362247109
0.008435028605163
0.0072314445860683
0.0056157456710934
0.0036111865192651
0.0012957584112882
-0.0012040324509143
-0.0037298300303518
-0.0061131692491471
-0.0081964489072561
-0.009849602356553
-0.0109832640737295
-0.0115595115348696
-0.0115962838754057
-0.0111621534451842
-0.0103629697114229
-0.009324999526143
-0.0081800492480397
-0.0070517044514417
-0.0060405260883271
-0.0052133821882307
-0.004599766805768
-0.004192663822323
-0.0039527122862637
-0.0038159757386893
-0.003706305520609
-0.0035500042140483
-0.0032869582064449
-0.002876809798181
-0.002301950007677
-0.0015662969090044
-0.0006901760352775
0.000293503049761
0.0013396253343671
0.0023936086799949
0.0033998847939074
0.0043111937120556
0.0050948923453688
0.0057364515960216
0.006239254027605
0.0066204639151692
0.0069051003083586
0.0071191182360053
0.007279553450644
0.0073824180290102
0.0073953513056039
0.0072619770653545
0.0069156130775809
0.0062922686338424
0.0053394753485918
0.0040274979546666
0.0023643723689019
0.0004059397615492
-0.0017457886133342
-0.0039545069448649
-0.006067459937185
-0.0079348841682076
-0.0094277309253811
-0.0104521457105875
-0.0109597453847527
-0.0109533555805683
-0.0104860393330454
-0.0096503030508756
-0.0085610933601856
-0.0073405997827649
-0.0061069950461387
-0.0049638282507658
-0.0039887209422886
-0.0032243053428828
-0.0026751344557851
-0.0023103039711713
-0.0020703291520476
-0.0018787879962474
-0.0016567823477089
-0.0013362418394535
-0.0008703537750989
-0.0002398357028141
0.0005470981122925
0.0014617147389799
0.0024660003837198
0.0035204209852963
0.0045838961377739
0.0056129889562726
0.006565399467945
0.0074052801355719
0.0081089856103062
0.0086695784702897
0.0090960431843996
0.0094063160941004
0.0096188122406601
0.0097456704825162
0.0097854789346456
0.0097153577953577
0.0094881542026996
0.0090404050424695
0.0083091240376234
0.007247828412801
0.0058361943811178
0.0040867910720407
0.0020513297058641
-0.0001774728298187
-0.002472419058904
-0.0046869879588484
-0.0066757509484887
-0.0083138402551412
-0.0095115946605801
-0.0102245099842548
-0.0104569867253303
-0.0102575775235891
-0.0097082499414682
-0.0089115677401423
-0.0079764015972614
-0.0070043131709098
-0.0060814628377556
-0.0052750892937183
-0.0046288319863379
-0.0041568358428776
-0.0038419910706579
-0.003640100127086
-0.0034882766194641
-0.0033175726421177
-0.0030668906401842
-0.0026913529727607
-0.0021650230046361
-0.0014830384170636
-0.0006626948015764
0.0002609811490401
0.0012456871336326
0.0022511864081025
0.0032404132653027
0.0041768508963286
0.0050267991609871
0.0057650050148367
0.0063777975738048
0.0068640252575278
0.007235107012093
0.0075111384503543
0.0077127525582909
0.0078528560698032
0.0079292254522442
0.0079184807837009
0.0077751232311129
0.0074378377757966
0.0068427203223109
0.0059401262551546
0.0047080302610993
0.0031575378961861
0.0013341098092496
-0.0006816908717155
-0.0027771610766649
-0.0048183305189013
-0.0066671031527221
-0.0081995502114295
-0.0093209575861692
-0.00997662730515
-0.0101587334647774
-0.009906468912959
-0.0092980442568659
-0.0084367804229259
-0.0074340915307402
-0.0063953679054975
-0.0054129296913743
-0.0045615429989993
-0.0038919495418667
-0.0034236009232699
-0.0031409915536642
-0.0029981031548231
-0.0029304968193173
-0.0028687813319265
-0.0027485354803502
-0.0025183307006955
-0.0021467506885528
-0.0016245918814092
-0.000961948884651
-0.0001833453716244
0.0006772858323529
0.0015807185554876
0.0024848817847669
0.0033465735614299
0.0041252472437918
0.004788429941982
0.0053155338391661
0.0057000792585313
0.0059501570649445
0.0060847951099276
0.00612673163414
0.0060931025072932
0.0059853554703295
0.0057835029438138
0.0054485970176756
0.0049315909855067
0.0041860933415591
0.0031808535568416
0.0019076685421168
0.0003865674370899
-0.0013302320148795
-0.0031586559489369
-0.0049892524257302
-0.0066994251683354
-0.0081692123785614
-0.0092966519296169
-0.0100103830918669
-0.0102784158661961
-0.0101115647703409
-0.009561245329678
-0.0087115513160824
-0.0076663731597363
-0.0065349088981747
-0.0054190000519156
-0.0044039650820195
-0.0035519690718501
-0.0028969675768166
-0.0024421014823019
-0.0021603335626423
-0.001999125117436
-0.0018893117085099
-0.0017575840465724
-0.0015402259305119
-0.0011920682154595
-0.000687928404659
-2.10287980735302e-05
0.000797988846898
0.0017423138488084
0.0027726253028959
0.0038426867686212
0.0049038175493478
0.0059088692069053
0.0068182055838406
0.00760497758165
0.0082570193335413
0.008776712231338
0.0091778915375471
0.0094772242009639
0.0096814762800931
0.009776821359992
0.0097267292439937
0.0094789899885654
0.0089774848893284
0.008175728842616
0.0070514809340238
0.0056184213608503
0.0039289775304496
0.0020685291383415
0.0001456628087908
-0.0017190780490636
-0.0034053726121783
-0.0048049371689558
-0.0058328872546553
-0.0064384452998638
-0.0066116931848227
-0.0063848728314042
-0.0058279549703001
-0.0050369631499052
-0.0041183847934007
-0.0031749883200973
-0.0022943471558392
-0.0015412322245538
-0.0009548049420118
-0.000548047479242
-0.000307367183268
-0.0001946231350302
-0.0001539746299386
-0.0001215944066643
-3.616791218519211e-05
0.0001508528366684
0.0004693581722676
0.0009310226887464
0.0015314093325287
0.0022502790670841
0.0030535692349076
0.003900644602254
0.0047529046423733
0.0055769141763448
0.0063426010310649
0.0070227570831775
0.0075960364192724
0.0080509008839726
0.0083869025111198
0.0086104394868016
0.0087250955402851
0.0087200682610273
0.0085629895329475
0.0082028545439243
0.0075828018598258
0.0066560949198901
0.0053988425061106
0.0038201864808797
0.0019716219976544
-5.218380829319358e-05
-0.0021271281875669
-0.004119396675378
-0.0059010651893913
-0.007362097967416
-0.0084216305986046
-0.0090370867401361
-0.0092083672061562
-0.0089763179421424
-0.0084162298589944
-0.0076269404962658
-0.0067167440429329
-0.0057893549092113
-0.00493278587237
-0.0042105931788682
-0.0036544480826705
-0.0032629126217216
-0.0030101486481726
-0.0028572734445333
-0.0027592293918132
-0.0026681327726691
-0.0025366870686411
-0.0023234598338603
-0.0019980394281446
-0.0015436389949172
-0.0009571881964802
-0.00024871295318
0.0005589956417679
0.0014319757465273
0.0023292754776775
0.0032096407376229
0.0040392251685261
0.0047954954206943
0.0054642674513161
0.0060351868160068
0.0065007540397346
0.0068543306551873
0.0070817624218761
0.0071519073098897
0.0070158373564481
0.0066164499148726
0.0059031113050878
0.0048454268835484
0.003442543791607
0.0017277614679187
-0.0002305647358298
-0.0023318463936448
-0.0044504003599286
-0.0064474991522729
-0.0081884246319532
-0.0095617352053523
-0.0104939481243491
-0.0109551241621375
-0.0109584396705031
-0.0105575853958725
-0.0098401214927434
-0.0089151747524738
-0.0078985299915075
-0.0068978574126958
-0.0060005793347954
-0.0052667148411273
-0.004724777303636
-0.0043694516643881
-0.0041634486988186
-0.0040459474548697
-0.003946591168642
-0.0037992533762007
-0.0035514247138053
-0.0031691757030785
-0.0026376689784228
-0.0019585071131587
-0.0011465759016573
-0.000227402895689
0.0007658409886062
0.0017964809667319
0.0028279323596507
0.0038260342553257
0.0047627193853259
0.0056202602572739
0.0063924035057425
0.0070800823159515
0.0076804924756288
0.0081743346527218
0.0085200583562254
0.0086572933942079
0.008516302332282
0.0080313887447118
0.0071561960503458
0.0058775497600436
0.0042252545244991
0.0022763861343264
0.0001510269939899
-0.0020015030167996
-0.004020735155791
-0.0057531055063009
-0.0070687402039766
-0.0078768897801637
-0.0081397350877523
-0.007878553122282
-0.0071674557402729
-0.0061195050366222
-0.0048704110085964
-0.0035600303672254
-0.0023128846660256
-0.001222941558808
-0.0003473539836704
0.0002919943071901
0.000703927129507
0.0009238333441317
0.0010089026764035
0.0010301424190402
0.0010631568729877
0.0011796844191849
0.0014375098980963
0.0018704039976
0.0024841371923685
0.0032592865172773
0.0041579790413379
0.0051330318674445
0.0061367508023977
0.0071266936138272
0.0080685233697295
0.008936446160078
0.0097114443778991
0.0103783160448074
0.0109212733805179
0.0113178808242082
0.0115342512726783
0.0115233128890395
0.0112255942076444
0.0105757657438516
0.0095180924981832
0.0080256192013621
0.006114499643445
0.0038495764601975
0.0013417225563898
-0.001261556521058
-0.0037915480788797
-0.0060793282464146
-0.0079785091802477
-0.0093826344236731
-0.0102337375283241
-0.0105243679136037
-0.0102956499904394
-0.0096313003450632
-0.0086477193981409
-0.0074818576686084
-0.0062768245115876
-0.0051639592275023
-0.0042444379068911
-0.0035765166394412
-0.0031713724602013
-0.0029971692711114
-0.0029897452332079
-0.0030662384815514
-0.0031372541561722
-0.0031169997528195
-0.0029340167529881
-0.0025416100397706
-0.0019227860029786
-0.001088386401534
-7.27528240531683e-05
0.0010717287659645
0.0022824043408036
0.0034950387198477
0.0046523450873792
0.0057101822458207
0.0066387890838086
0.007420927286148
0.0080484524369239
0.0085148327052593
0.0088029187172651
0.008874325081706
0.0086691183969378
0.0081186285242438
0.0071663400158286
0.005786282941699
0.0039921049028635
0.0018398356623947
-0.0005721105844713
-0.0031085186637938
-0.0056106867268681
-0.0079142544418573
-0.0098676197230815
-0.0113488379865884
-0.0122788036242127
-0.0126302596181631
-0.0124320918694138
-0.0117641929537057
-0.0107430797070264
-0.009504952467978
-0.008188359439373
-0.0069176545366644
-0.0057913567870855
-0.004875237122178
-0.0041976165957748
-0.0037480073515325
-0.0034809908829629
-0.0033249685075134
-0.0031943446956574
-0.0030028754845261
-0.0026757284067571
-0.0021592415869235
-0.0014274292625486
-0.0004834998399019
0.0006444570608437
0.0019121626392006
0.0032682362943887
0.0046594208106398
0.0060320436023175
0.0073343212716281
0.0085210492834448
0.0095571596175432
0.0104171633720397
0.0110790962353348
0.0115143842995166
0.01167918369174
0.0115135814994573
0.0109523385763168
0.0099432123824954
0.0084641743451356
0.0065348567441105
0.0042220312170684
0.001640111207962
-0.0010551745072007
-0.0036834767088294
-0.0060634692199528
-0.0080353552475571
-0.0094782086089253
-0.0103215854614973
-0.0105523718520998
-0.0102167418226599
-0.0094143711030483
-0.0082840155810117
-0.0069829463027417
-0.0056636435911059
-0.0044526834972202
-0.0034372704103589
-0.0026595229282975
-0.0021159066818654
-0.0017644600011408
-0.0015399348922073
-0.00136853242293
-0.0011771968565881
-0.0009003565646708
-0.00048662815243
9.550387039780615e-05
0.0008547804318368
0.0017775744199752
0.0028314793016761
0.0039720963686704
0.0051511088386178
0.0063225128687918
0.0074462993070483
0.0084913410246372
0.0094378553330898
0.0102749932557344
0.0109898373484611
0.011553575284779
0.0119145540520548
0.0120010944083333
0.0117317046970129
0.0110301952809095
0.0098428586497902
0.0081545794382691
0.0060015670023858
0.0034773026127368
0.0007269672933034
-0.0020694632548838
-0.0047189034521579
-0.0070360661484301
-0.0088627832010388
-0.0100865634158253
-0.010656482540071
-0.0105909695848822
-0.0099726449698209
-0.0089315436780452
-0.0076237497851252
-0.0062103942036628
-0.0048376079648733
-0.0036200245376676
-0.0026320563629269
-0.0019059091573581
-0.0014332146383821
-0.0011701498879119
-0.0010451837442815
-0.0009684606920927
-0.0008439144585281
-0.0005836187629029
-0.0001222456339746
0.0005714420694857
0.0014918514061719
0.0026033343747258
0.0038497191853821
0.0051637021824717
0.0064761536195874
0.0077238357625901
0.008856221102178
0.0098404129967093
0.0106602320447564
0.0113087687641382
0.011777015402913
0.0120429527014493
0.0120660979300737
0.0117875756695866
0.0111345639452338
0.010033281520009
0.0084307361394166
0.0063168797641992
0.0037398778367787
0.0008109901100397
-0.0023039961233735
-0.0054055675864219
-0.0082853958010673
-0.0107491370290517
-0.0126374177634716
-0.0138458767905831
-0.0143409548327326
-0.0141642419621348
-0.0134211080148816
-0.0122597040608525
-0.010849917307496
-0.009363261051476
-0.0079520475119352
-0.0067325946874916
-0.0057754595763981
-0.0051004877313971
-0.0046778647229075
-0.0044381879270076
-0.0042888028547167
-0.0041301548480987
-0.0038695372641086
-0.0034330219496041
-0.0027749417349696
-0.00188214040827
-0.000771471473854
0.0005153586389496
0.0019159949151799
0.0033544623292982
0.0047523588873445
0.0060397940687835
0.0071640070527791
0.0080945426598191
0.0088227437809109
0.0093555431813001
0.0097039034590125
0.0098672378808259
0.0098212752491235
0.0095163686200976
0.0088858176022768
0.0078627355396747
0.0064034266397356
0.0045078685507178
0.002227617893368
-0.0003371220082044
-0.0030456723179668
-0.0057307141833007
-0.0082175889983773
-0.0103439260274171
-0.011976147070527
-0.0130236335098743
-0.0134497061371803
-0.0132755227386951
-0.0125767849385738
-0.0114747546613216
-0.0101198041811585
-0.0086684841662645
-0.0072597544640302
-0.0059975669719278
-0.0049447398632764
-0.0041245901957154
-0.0035234473180025
-0.0030942468438297
-0.002764985198155
-0.0024518528953194
-0.0020739906467497
-0.0015667306724935
-0.0008903914131224
-3.276480128988624e-05
0.0009933902183547
0.0021549430675804
0.0034053451381623
0.004693784750998
0.0059723602607846
0.0071986676193773
0.0083356266841292
0.0093518663197755
0.010223327204585
0.0109340092167258
0.0114737376570701
0.0118312761187553
0.0119837652891874
0.011889380402863
0.0114898737519979
0.0107211340218782
0.0095275305211544
0.007878566160798
0.005785000976175
0.0033107115887105
0.0005744732916355
-0.0022627681028097
-0.0050203124992549
-0.0075207636691629
-0.0096085611730813
-0.0111638978123664
-0.012113600037992
-0.0124388076364994
-0.0121774207800626
-0.0114189814776182
-0.0102928280830383
-0.0089512076228857
-0.0075477380305528
-0.0062160762026906
-0.0050549460574984
-0.0041200625710189
-0.0034218188375234
-0.0029301359318196
-0.0025865535717457
-0.0023182588629424
-0.0020485918503254
-0.0017051671165972
-0.0012278668582439
-0.0005754517042078
0.0002700353506952
0.0013010199181735
0.0024851434864103
0.0037707551382482
0.0050962455570697
0.0063988217152655
0.0076218275353312
0.0087223369628191
0.0096762618049979
0.0104765109717845
0.011124906130135
0.011622373946011
0.0119598740711808
0.0121113620698452
0.0120306480675935
0.0116533078253269
0.0109057296067476
0.0097216721624135
0.0080623105168342
0.0059344423934817
0.0034015350975096
0.0005839606747031
-0.0023521878756582
-0.0052150981500744
-0.0078107300214469
-0.0099665988236665
-0.0115542821586132
-0.0125058814883232
-0.012819267809391
-0.0125516084954142
-0.0118063949048519
-0.0107187265530228
-0.0094380974769592
-0.0081097325310111
-0.0068585039116442
-0.0057756821624934
-0.0049094525165855
-0.0042631924152374
-0.0038020671345293
-0.003463608212769
-0.0031692180782556
-0.0028378455899655
-0.0024007312022149
-0.0018111265962943
-0.0010469744447618
-0.0001102893147617
0.0009756758809089
0.0021717178169637
0.0034287134185433
0.0046936338767409
0.0059148524887859
0.0070464918389916
0.0080525409430265
0.0089105023071169
0.0096133425831794
0.0101682692766189
0.010591615922749
0.01089758425951
0.0110805891454219
0.011101147159934
0.010886063799262
0.0103422868996858
0.0093775484710931
0.0079224482178688
0.0059514776803553
0.003498597536236
0.0006606145761907
-0.0024123452603816
-0.005533636547625
-0.0085008582100272
-0.0111195296049118
-0.0132261160761117
-0.0147057203575968
-0.015502531081438
-0.0156243490055203
-0.0151415029540658
-0.0141770876944065
-0.0128876622766256
-0.0114390179514884
-0.0099824396893382
-0.0086357239633798
-0.0074732489883899
-0.0065253097563982
-0.005782198626548
-0.0052014873363077
-0.0047185644507408
-0.0042576268315315
-0.0037424257025122
-0.0031073847785592
-0.0023070834577083
-0.0013224012218415
-0.0001622231211513
0.0011399831855669
0.002533464692533
0.0039592189714312
0.0053582796826958
0.006677970290184
0.0078767444938421
0.0089268404990434
0.0098139969632029
0.0105363493785262
0.0111033748835325
0.0115327984094619
0.0118440343067049
0.0120480321347713
0.0121341245248913
0.0120599288493394
0.011753162369132
0.0111253419890999
0.0100922351703047
0.0085979532450437
0.0066361082717776
0.0042599933221936
0.0015795612707734
-0.0012513734400272
-0.0040529072284698
-0.0066394321620464
-0.0088420212268829
-0.0105302743613719
-0.0116269923746585
-0.0121117169037461
-0.0120178684592247
-0.0114273466169834
-0.0104606635868549
-0.0092627005651593
-0.0079854428768157
-0.006768369115889
-0.0057202074676752
-0.0049065616913139
-0.0043454673141241
-0.0040112347342073
-0.0038444604724645
-0.0037652631290256
-0.0036883573047816
-0.0035365673247724
-0.0032490491867065
-0.0027854009531438
-0.0021286213304847
-0.0012871015351265
-0.0002929928014054
0.0008042224217206
0.0019464660435914
0.003074871841818
0.0041356449946761
0.0050856890156865
0.0058975452557206
0.006560674868524
0.0070789409801363
0.0074657974764704
0.007737617008388
0.0079042315483093
0.0079577965661883
0.0078665912151336
0.0075778132304549
0.007026033475995
0.0061455396935343
0.0048878081142902
0.0032406405080109
0.001241123303771
-0.0010227414313703
-0.0034205203410238
-0.0057941684499382
-0.0079760961234569
-0.0098084481433033
-0.0111630894243717
-0.0119600920006632
-0.0121787022799253
-0.0118557838723063
-0.0110742542892694
-0.0099502680823206
-0.0086217746138572
-0.0072334040887653
-0.0059169926680624
-0.0047732945531606
-0.0038609933108091
-0.0031949328258633
-0.0027498053386807
-0.0024665473029017
-0.002263939473778
-0.0020556203089654
-0.001765219727531
-0.0013345944462344
-0.0007274922681972
6.903230678290129e-05
0.001045559765771
0.0021733914036303
0.0034076385200023
0.0046901223249733
0.0059555461630225
0.0071410797536373
0.0081963874399662
0.0090911714360117
0.0098164044320583
0.0103795761242508
0.0107969930395483
0.0110829751938581
0.0112380487844347
0.0112417098134756
0.0110518597066402
0.0106110703200101
0.0098597016185522
0.0087510552257299
0.0072634853422641
0.0054104169830679
0.0032481630332767
0.0008769362466409
-0.0015673827147111
-0.0039288406260311
-0.006050462834537
-0.007793323136866
-0.0090533448383212
-0.0097728352993726
-0.0099444584921002
-0.0096096331253647
-0.0088542252779006
-0.0077982880175113
-0.0065768365748226
-0.005319538526237
-0.0041382759809494
-0.0031200852245092
-0.0023194537498056
-0.0017516340594738
-0.0013934157323092
-0.001192289404571
-0.0010788348736241
-0.0009782118722796
-0.0008200409356504
-0.0005468090530484
-0.0001189104514196
0.0004839627072215
0.0012622694484889
0.0021970702800899
0.0032526873983442
0.0043802321888506
0.0055217491462826
0.0066159600391983
0.0076061896979808
0.0084489863365888
0.0091189295053482
0.0096079008653759
0.0099199023097753
0.010061202570796
0.0100287478417158
0.0098022259771823
0.0093432385474443
0.0086027802899479
0.0075344471260905
0.0061106411740183
0.0043399981223046
0.002277931664139
2.236408181488514e-05
-0.0023004920221865
-0.0045514274388551
-0.0065930411219596
-0.0083040548488497
-0.0095904227346181
-0.0103925466537475
-0.0106903230771422
-0.0105056995525956
-0.0099009741097688
-0.0089719453826546
-0.0078355437144637
-0.0066136149689555
-0.0054168589413166
-0.0043318308889865
-0.0034134138841181
-0.0026849352288991
-0.0021425255108624
-0.0017587622860446
-0.0014872077153995
-0.001270200475119
-0.001048065489158
-0.000767431105487
-0.0003868499479722
0.0001203013816848
0.000764072057791
0.0015373198548331
0.0024178163148462
0.0033733821474015
0.0043668849393725
0.0053598317317664
0.0063158208504319
0.0072015137411653
0.0079856207594275
0.0086408481001853
0.0091491099447011
0.0095054814592003
0.0097155254334211
0.0097841713577508
0.009701351635158
0.0094339093193411
0.008929313160479
0.0081279929727315
0.0069786887615919
0.0054548513144254
0.0035698749125003
0.0013859309256076
-0.0009890813380479
-0.0034169466234743
-0.0057489927858114
-0.0078421235084533
-0.0095709627494215
-0.0108400527387857
-0.0115958750247955
-0.0118333054706454
-0.0115941353142261
-0.0109603535383939
-0.0100423702970147
-0.0089625790715217
-0.0078395660966634
-0.0067760227248072
-0.005849041044712
-0.0051021296530961
-0.0045415628701448
-0.0041421307250857
-0.0038597797974944
-0.0036414884962141
-0.0034309993498027
-0.0031744393054395
-0.0028260750696063
-0.0023544835858047
-0.0017476300708949
-0.001011656364426
-0.000164866563864
0.0007654778892174
0.0017435541376471
0.0027289930731058
0.003684091148898
0.0045780991204082
0.0053872228600084
0.006092982366681
0.006682111416012
0.0071493638679385
0.0074998391792178
0.00774633185938
0.0078997584059834
0.0079564899206161
0.0078909415751695
0.0076567316427826
0.0071943216025829
0.006443640217185
0.0053591635078191
0.0039231833070516
0.0021560601890087
0.0001223993021994
-0.0020724206697195
-0.0042963637970387
-0.0064079286530613
-0.0082716839388012
-0.0097725596278905
-0.0108280442655086
-0.0113962246105074
-0.0114795705303549
-0.01112518645823
-0.0104196108877658
-0.00947633292526
-0.0084193376824259
-0.0073663718067109
-0.0064127827063202
-0.005619594361633
-0.0050101969391107
-0.0045751198194921
-0.0042821015231311
-0.0040868362411856
-0.0039399806410074
-0.00379169289954
-0.0035959826782345
-0.0033136787824332
-0.0029150336049497
-0.0023841282818466
-0.0017218289431184
-0.0009440551511943
-7.757940329611301e-05
0.0008444641716778
0.0017870994051918
0.0027176681905984
0.003610243089497
0.004448034800589
0.00521972309798
0.005914319306612
0.0065218294039368
0.0070363795384764
0.0074541424401104
0.0077653555199503
0.0079461503773927
0.0079555939882993
0.0077389180660247
0.0072367321699857
0.0063999444246292
0.0052060857415199
0.0036717627663165
0.0018587841186672
-0.000127603765577
-0.0021495285909622
-0.0040551624260842
-0.0057001407258212
-0.0069662327878177
-0.0077748764306306
-0.0080939922481775
-0.0079381586983799
-0.0073644258081912
-0.006464528851211
-0.0053535527549684
-0.0041555874049663
-0.0029869661666452
-0.0019409451633691
-0.0010796743445098
-0.0004324237816035
5.830544978380203e-06
0.0002724467776715
0.0004257559776306
0.0005303593352437
0.0006471336819231
0.0008278805762529
0.0011122622527182
0.0015252027660608
0.0020749883260577
0.0027539778966456
0.0035417447797954
0.0044092205353081
0.0053229443728923
0.006248221732676
0.0071512544527649
0.0080023370683193
0.0087804049253463
0.0094746015965938
0.0100790690630674
0.0105851832777261
0.0109772495925426
0.0112304426729679
0.0113076753914356
0.011158138513565
0.0107224583625793
0.0099442964419722
0.0087857609614729
0.0072415024042129
0.0053454907611012
0.0031720190308988
0.0008326435345225
-0.0015336731448769
-0.0037755444645881
-0.0057465746067464
-0.0073242960497736
-0.008425623178482
-0.0090136621147394
-0.0090972045436501
-0.0087273297831416
-0.0079924194142222
-0.0070086335763335
-0.0059041567146778
-0.0048013972118496
-0.0038030743598937
-0.0029839701019227
-0.0023863753303885
-0.0020188023336231
-0.001858020434156
-0.0018528532236814
-0.0019320661667734
-0.0020170882344245
-0.0020337167661637
-0.0019206460565328
-0.0016363447066396
-0.0011631001252681
-0.0005070932675153
0.0003047671634703
0.0012305177515372
0.0022206744179129
0.0032251642551273
0.0041977106593549
0.0050995466299355
0.0059031005948781
0.0065942946821451
0.0071733109652996
0.007650644518435
0.0080350935459136
0.0083183739334344
0.0084657575935125
0.0084180459380149
0.0081027597188949
0.0074491803534328
0.006403851788491
0.0049453619867563
0.0030961518641561
0.0009271489689126
-0.0014472382608801
-0.0038820356130599
-0.0062187365256249
-0.0083029251545667
-0.0099994698539376
-0.0112066464498639
-0.011871239170432
-0.0119972126558423
-0.0116415005177259
-0.0109016085043549
-0.0099007915705442
-0.0087726181373
-0.0076450128108263
-0.0066243950277566
-0.0057839015498757
-0.005158316809684
-0.0047440538182854
-0.0045042051933705
-0.004379766061902
-0.0043019214645028
-0.0041991788893938
-0.0040036458522081
-0.0036626458168029
-0.0031491899862885
-0.002463009674102
-0.0016238274984061
-0.000662580365315
0.0003847335465252
0.0014799609780311
0.0025844948831945
0.0036608115769922
0.0046750712208449
0.0056002736091613
0.0064184898510575
0.0071222223341465
0.0077132456935942
0.0081969257444143
0.008572063408792
0.008819312788546
0.0088956318795681
0.0087393661960959
0.0082823429256677
0.0074639078229665
0.0062453960999846
0.004624618217349
0.0026466599665582
0.0004054105957038
-0.0019647702574729
-0.004304704722017
-0.0064514344558119
-0.0082592666149139
-0.0096146585419774
-0.0104448003694415
-0.0107243293896317
-0.0104811936616897
-0.0097947241738438
-0.0087813958525657
-0.0075753796845674
-0.006312140263617
-0.0051153474487364
-0.004084394313395
-0.0032831733115017
-0.0027346205897629
-0.0024234084412455
-0.0023037870414555
-0.0023086173459887
-0.0023583215661346
-0.0023698634468019
-0.0022665704600512
-0.0019901441410183
-0.0015112608671188
-0.0008317758329212
2.187583595514297e-05
0.0010082554072141
0.0020787126850336
0.0031827576458454
0.0042724828235805
0.0053061381913721
0.006250926759094
0.0070859165862202
0.0078029511496424
0.0084012933075428
0.0088765425607562
0.0092106256633996
0.0093685537576675
0.0093004126101732
0.0089458608999848
0.0082450034096837
0.007156710140407
0.0056766015477478
0.0038473838940262
0.0017589482013136
-0.0004604014102369
-0.0026581345591694
-0.0046747084707021
-0.0063619734719395
-0.007600313052535
-0.0083126053214073
-0.0084737353026866
-0.0081123486161232
-0.0073031280189752
-0.0061553288251161
-0.0048017515800893
-0.0033839493989944
-0.0020335130393505
-0.0008559664711356
7.96271488070488e-05
0.0007449183613061
0.0011506518349051
0.0013410621322691
0.0013847178779542
0.0013626115396618
0.0013570017181336
0.0014423006214201
0.0016764500178396
0.0020949621684849
0.0027105449698865
0.0035138742532581
0.004472769331187
0.0055356090888381
0.0066407425329089
0.0077260732650756
0.0087364511564373
0.0096306391060352
0.0103858206421136
0.0109963081777095
0.0114657916128635
0.0117932930588722
0.0119588961824774
0.0119184637442231
0.0116079533472657
0.0109546827152371
0.0098951905965805
0.0083943279460072
0.0064585758373141
0.0041422853246331
0.0015474540414288
-0.0011834815377369
-0.0038821182679384
-0.0063738301396369
-0.0084986547008156
-0.0101302806288003
-0.0111906351521611
-0.0116570275276899
-0.0115621220320463
-0.010989430360496
-0.0100632794201374
-0.0089304111897945
-0.0077365562319755
-0.0066067911684513
-0.0056356023997068
-0.0048834844492375
-0.0043738884851336
-0.0040915440768003
-0.0039855525828897
-0.0039780610240995
-0.0039787665009498
-0.0039012632332742
-0.00367550435476
-0.0032551218755543
-0.0026199091225862
-0.0017743031494319
-0.0007442469941452
0.0004274791572242
0.0016884075012058
0.0029833398293703
0.0042580515146255
0.0054613091051578
0.006548611447215
0.0074871564283967
0.0082580940797925
0.0088529614731669
0.0092634847387671
0.009468731470406
0.0094272932037711
0.0090779270976781
0.0083495862782001
0.0071810372173786
0.0055433101952075
0.0034567252732813
0.0009992530103772
-0.0016974047757685
-0.0044650007039308
-0.007121012546122
-0.0094897551462054
-0.0114225130528211
-0.0128126265481114
-0.0136023191735148
-0.0137862134724855
-0.0134130641818046
-0.0125805158168077
-0.0114221787080168
-0.01009017881006
-0.0087339114397764
-0.0074787642806768
-0.0064120730385184
-0.0055781113915145
-0.00498001370579
-0.004586742259562
-0.0043416158296167
-0.0041713672690093
-0.0039975079707801
-0.0037479074671864
-0.0033645119983702
-0.002807582495734
-0.0020582103170454
-0.0011184094473719
-9.620096534490584e-06
0.0012293676845729
0.0025474815629422
0.0038890000432729
0.0052004689350724
0.0064363679848611
0.0075618070550262
0.0085512874647974
0.0093872444704175
0.0100589971989393
0.0105581935495138
0.0108697097748517
0.0109628578647971
0.0107895284891128
0.0102907009422779
0.0094076050445437
0.0080946357920765
0.0063345800153911
0.0041544213891029
0.0016340878792107
-0.0010959826176986
-0.0038664217572659
-0.0064889551140367
-0.0087821101769804
-0.0105950273573398
-0.0118242492899298
-0.012423388659954
-0.0124065801501274
-0.0118458485230803
-0.0108636785298585
-0.0096211899071931
-0.0083006080240011
-0.0070846984162926
-0.0061386739835143
-0.005596965085715
-0.005553972441703
-0.0060547161847352
-0.0070829247124493
-0.0085561107844114
-0.0103376219049096
-0.0122574642300605
-0.0141291264444589
-0.0157609432935714
-0.0169659238308668
-0.0175720602273941
-0.0174335651099681
-0.0164473205804824
-0.0145805571228265
-0.0119026880711317
-0.0085990941151976
-0.004949178546667
-0.001271435059607
0.0021452466025948
0.0050999615341424
0.0075091151520609
0.0094035845249891
0.0109046706929802
0.0121907051652669
0.0134617239236831
0.0149070154875516
0.0166782289743423
0.0188690219074487
0.0215034261345863
0.0245371051132679
0.0278714448213577
0.0313729867339134
0.0348908342421054
0.0382711887359619
0.0413713231682777
0.0440729968249797
0.0462916679680347
0.0479782484471797
0.0491129569709301
0.04969422519207
0.0497297123074531
0.0492342635989189
0.0482325218617916
0.0467620268464088
0.044874370098114
0.0426338389515876
0.0401151664555072
0.0374002680182457
0.0345708839595317
0.0316981449723243
0.0288348589092493
0.0260135848075151
0.0232489239424467
0.0205419864505529
0.0178863052278757
0.0152754839509725
0.0127104390412569
0.0102018099278211
0.007765669375658
0.0054156333208084
0.0031554400920867
0.0009758435189723
-0.0011420398950576
-0.0032206363976001
-0.0052811950445175
-0.0073404498398303
-0.0094087496399879
-0.0114918947219848
-0.0135996453464031
-0.0157591868191957
-0.0180231984704732
-0.0204634349793195
-0.0231520514935255
-0.0261378102004528
-0.0294239502400159
-0.0329541452229023
-0.036610759794712
-0.0402268096804618
-0.0436071455478668
-0.0465518124401569
-0.0488793738186359
-0.0504502020776271
-0.0511851161718368
-0.0510746054351329
-0.0501804016530513
-0.0486300624907016
-0.0466002821922302
-0.0442900396883487
-0.0418913662433624
-0.0395655408501625
-0.0374277792870998
-0.0355381034314632
-0.0338993296027183
-0.0324669033288955
-0.0311680138111114
-0.0299208704382181
-0.0286476723849773
-0.0272829253226518
-0.0257818847894668
-0.0241277441382408
-0.022335048764944
-0.0204497836530208
-0.0185442119836807
-0.0167072601616382
-0.0150361154228448
-0.013629094697535
-0.0125733464956283
-0.011927668005228
-0.0117096938192844
-0.0118922321125864
-0.0124066872522234
-0.0131527539342641
-0.0140127278864383
-0.0148665001615881
-0.0156055483967065
-0.016146820038557
-0.016447901725769
-0.0165212135761976
-0.0164378955960273
-0.0163135789334774
-0.0162804536521434
-0.0164571329951286
-0.0169240236282348
-0.0177066251635551
-0.018768748268485
-0.0200165100395679
-0.0213106404989957
-0.0224847048521041
-0.0233677607029676
-0.0238082818686962
-0.0236931964755058
-0.0229571610689163
-0.0215860921889543
-0.0196204148232936
-0.0171544030308723
-0.0143259316682815
-0.0112968645989894
-0.008229237049818
-0.0052637420594692
-0.0025047287344932
-1.2038275599479675e-05
0.0022024344652891
0.0041722804307937
0.0059664584696292
0.0076746139675378
0.0093904919922351
0.0111957620829343
0.0131484102457761
0.0152751076966524
0.0175658203661441
0.0199752524495124
0.0224334392696619
0.0248599499464035
0.0271764546632766
0.0293169077485799
0.0312338694930076
0.0328991152346134
0.034301571547985
0.0354469083249568
0.0363584831357002
0.037076361477375
0.0376527868211269
0.0381439924240112
0.0385961383581161
0.0390236005187034
0.0393868200480937
0.0395850017666816
0.0394715443253517
0.038885474205017
0.037687212228775
0.0357891134917736
0.0331770293414592
0.0299234129488468
0.0261877290904521
0.0221976265311241
0.0182128436863422
0.0144833931699395
0.0112164784222841
0.0085584707558155
0.0065869819372892
0.005307450890541
0.00465514883399
0.0045081153512001
0.0047126840800046
0.0051129162311553
0.0055729132145643
0.00598831102252
0.0062891468405723
0.0064374282956123
0.0064220242202281
0.0062535014003515
0.0059603527188301
0.0055858567357063
0.0051844622939825
0.0048162303864955
0.0045392476022243
0.0044005829840898
0.0044263154268264
0.0046167131513357
0.004951536655426
0.0054001864045858
0.0059297606348991
0.0065107680857181
0.0071222661063075
0.0077547542750835
0.0084092300385236
0.009092909283936
0.0098123122006654
0.0105666760355234
0.0113449394702911
0.0121256643906235
0.0128774968907237
0.0135558936744928
0.0140933766961097
0.0143922362476587
0.0143317319452762
0.0137892765924334
0.0126668717712163
0.0109153417870402
0.0085515016689896
0.0056639835238456
0.0024047694168984
-0.0010313335806131
-0.0044334302656352
-0.0076030399650335
-0.0103800585493445
-0.0126596493646502
-0.0143954874947667
-0.0155937140807509
-0.0163059215992689
-0.0166210662573575
-0.0166518837213516
-0.0165174826979637
-0.016327304765582
-0.0161688029766082
-0.0160987358540296
-0.0161381252110004
-0.0162706300616264
-0.0164451394230127
-0.0165847390890121
-0.0165999494493007
-0.0164012983441352
-0.0159109309315681
-0.0150743387639522
-0.0138721512630581
-0.0123317632824182
-0.0105317197740077
-0.0085904188454151
-0.0066425381228327
-0.0048136212863028
-0.0032000062055885
-0.0018576388247311
-0.0008004368282854
-6.2319450080394745e-06
0.0005729477852582
0.0010007331147789
0.0013478030450642
0.0016823797486722
0.0020622964948415
0.002530725672841
0.0031072639394551
0.0037705511786043
0.0044454364106059
0.0050090244039893
0.0053149280138313
0.0052230264991521
0.0046237483620643
0.0034562903456389
0.0017239029984921
-0.0004974207840859
-0.0030630691908299
-0.0057766120880842
-0.0084145842120051
-0.0107535980641841
-0.0125947725027799
-0.0137843675911426
-0.0142319006845355
-0.013923930004239
-0.0129276551306247
-0.0113802216947078
-0.0094667682424187
-0.0073926402255892
-0.0053531862795352
-0.0035072099417448
-0.0019608810544013
-0.000762877985835
9.29366797208786e-05
0.0006592040881514
0.0010211458429694
0.0012800898402929
0.0015389369800686
0.0018911166116595
0.0024108006618916
0.0031429636292159
0.0040975045412778
0.0052510784007608
0.0065547106787562
0.0079436367377638
0.0093464162200689
0.0106916958466172
0.0119143258780241
0.0129629084840416
0.013806746341288
0.0144391357898712
0.0148767698556184
0.0151561154052615
0.0153274238109588
0.0154464114457368
0.0155615685507655
0.015696482732892
0.0158337522298097
0.0159092992544174
0.0158192533999681
0.0154366176575422
0.0146345980465412
0.0133115379139781
0.0114127760753035
0.0089482022449374
0.0060018436051905
0.0027271963190287
-0.0006726594874635
-0.0039728432893753
-0.0069534983485937
-0.0094233071431517
-0.0112409526482224
-0.0123332329094409
-0.0127050522714853
-0.0124364607036113
-0.0116666527464985
-0.0105701815336942
-0.0093315616250038
-0.0081206317991018
-0.0070705944672226
-0.0062637813389301
-0.0057272850535809
-0.0054366122931241
-0.0053263418376445
-0.0053051449358463
-0.0052699884399771
-0.0051185190677642
-0.0047636171802878
-0.0041495491750538
-0.0032613850198686
-0.0021228529512882
-0.0007869570981711
0.0006748193409293
0.0021838387474417
0.003666162956506
0.005060349125415
0.0063187554478645
0.0074065858498215
0.0083034727722406
0.0090068243443965
0.0095312930643558
0.0099031468853354
0.0101528149098157
0.0103032551705837
0.0103512099012732
0.0102514596655964
0.0099181439727544
0.0092419423162937
0.0081123672425746
0.0064413491636514
0.0041876910254359
0.0013762908056378
-0.0018947441130876
-0.0054599167779088
-0.0091031650081276
-0.0125836767256259
-0.0156654678285121
-0.0181442759931087
-0.0198692791163921
-0.0207611173391342
-0.020824572071433
-0.0201478637754917
-0.0188856907188892
-0.0172338671982288
-0.015403090044856
-0.0135929174721241
-0.0119657879695296
-0.0106265684589743
-0.0096148392185568
-0.008910272270441
-0.0084460172802209
-0.0081243533641099
-0.0078327432274818
-0.0074613178148865
-0.0069186333566904
-0.0061419140547513
-0.0051027294248342
-0.0038083859253674
-0.0022980032954365
-0.0006341899279505
0.0011096047237515
0.0028638802468776
0.0045732501894235
0.0061992066912353
0.0077174501493573
0.0091113336384296
0.0103652589023113
0.0114632155746221
0.0123923020437359
0.013145750388503
0.0137198930606246
0.0141028109937906
0.014260372146964
0.0141308680176734
0.0136319966986775
0.012675859965384
0.0111892689019441
0.0091369170695543
0.0065414803102612
0.0034947022795677
0.0001552207395434
-0.0032680155709385
-0.0065418286249041
-0.0094376662746071
-0.0117598669603466
-0.0133685581386089
-0.0141919329762458
-0.0142306834459304
-0.0135591886937618
