bvp
0.0032925554551184
0.0034097502939403
0.0034158157650381
0.0032480265945196
0.0028312243521213
0.002091116271913
0.0009702442912384
-0.0005542204598896
-0.0024561830796301
-0.0046555222943425
-0.0070234192535281
-0.0093973269686102
-0.0116032315418124
-0.0134781375527381
-0.0148876570165157
-0.0157401692122221
-0.0159974545240402
-0.0156776197254657
-0.0148483039811253
-0.0136128179728984
-0.0120952110737562
-0.010427875444293
-0.0087392656132578
-0.0071393866091966
-0.0057058623060584
-0.0044764950871467
-0.0034511070698499
-0.0025988407433032
-0.0018665343523025
-0.0011879978701472
-0.0004941085353493
0.0002774996683001
0.0011742394417524
0.0022237114608287
0.0034342091530561
0.0047990977764129
0.0062994780018925
0.0079035572707653
0.0095673184841871
0.0112386820837855
0.0128626991063356
0.0143866213038563
0.0157654955983161
0.0169662535190582
0.0179691445082426
0.0187676735222339
0.0193653162568807
0.0197672061622142
0.0199685841798782
0.0199465192854404
0.0196623839437961
0.0190730523318052
0.0181434284895658
0.0168583691120147
0.0152338668704032
0.013323850929737
0.011218762025237
0.0090369712561368
0.0069127269089221
0.0049828104674816
0.0033728573471307
0.0021835062652826
0.0014781225472688
0.0012753074988722
0.0015474576503038
0.0022250665351748
0.0032058632932603
0.0043686376884579
0.005590480286628
0.0067618368193507
0.0077965706586837
0.0086391177028417
0.009267620742321
0.0096904784440994
0.0099388509988784
0.0100597403943538
0.010109300725162
0.0101437931880354
0.0102109797298908
0.0103458380326628
0.0105687733739614
0.0108837401494383
0.0112774111330509
0.0117213986814022
0.0121765993535518
0.0125964106991887
0.0129292570054531
0.0131246130913496
0.0131432395428419
0.0129676032811403
0.0126076787710189
0.0120979268103837
0.0114829372614622
0.0107955131679773
0.0100377686321735
0.0091740954667329
0.0081360787153244
0.0068352785892784
0.0051832287572324
0.0031183697283267
0.0006311275064945
-0.0022240248508751
-0.0053297942504286
-0.008515783585608
-0.0115759456530213
-0.0142926452681422
-0.0164647921919822
-0.0179363153874874
-0.0186180360615253
-0.0184986069798469
-0.0176448076963424
-0.01619079336524
-0.0143176447600126
-0.0122286174446344
-0.0101235872134566
-0.0081753199920058
-0.006512829568237
-0.0052152085117995
-0.0043134507723152
-0.0037945499643683
-0.0036063473671674
-0.0036659501492977
-0.0038721514865756
-0.0041206860914826
-0.0043215043842792
-0.0044133495539426
-0.0043695364147424
-0.0041938610374927
-0.00391136854887
-0.0035600047558546
-0.0031831068918108
-0.0028203595429658
-0.0025004390627145
-0.0022395029664039
-0.0020443750545382
-0.0019156821072101
-0.0018498236313462
-0.0018425388261675
-0.0018944730982184
-0.002018348313868
-0.0022465838119387
-0.0026336349546909
-0.003249917179346
-0.0041700508445501
-0.0054572075605392
-0.0071460725739598
-0.0092291086912155
-0.0116483056917786
-0.0142948888242244
-0.0170194283127784
-0.0196486767381429
-0.0220039673149585
-0.0239203851670026
-0.0252659246325492
-0.0259577929973602
-0.0259727928787469
-0.0253488011658191
-0.0241773501038551
-0.0225899312645196
-0.0207406133413314
-0.018787283450365
-0.0168731100857257
-0.0151100773364305
-0.0135682700201869
-0.0122734056785702
-0.0112111130729317
-0.0103352293372154
-0.0095780193805694
-0.0088608842343091
-0.0081059196963906
-0.007247220724821
-0.0062381727620959
-0.0050541744567453
-0.0036921282298862
-0.0021682903170585
-0.0005161063745617
0.0012184167280793
0.0029838690534234
0.004729151725769
0.0064090006053447
0.0079892463982105
0.0094464467838406
0.0107615077868103
0.0119110476225614
0.0128598269075155
0.0135583449155092
0.0139473360031843
0.0139666236937046
0.0135667361319065
0.0127238910645246
0.0114550944417715
0.0098259262740612
0.0079473461955785
0.0059638619422912
0.0040374207310378
0.0023307744413614
0.0009902492165565
0.0001266524195671
-0.0002000797539949
1.4794990420341492e-05
0.0007257647812366
0.0018454501405358
0.0032555349171161
0.00482141925022
0.0064082485623657
0.0078955963253974
0.0091902241110801
0.0102351028472185
0.0110126445069909
0.0115424348041415
0.0118749402463436
0.0120821362361311
0.012244252488017
0.0124337682500481
0.0127031654119491
0.0130811277776956
0.0135743580758571
0.0141701288521289
0.0148385092616081
0.015536330640316
0.0162143521010875
0.016826232895255
0.0173360109329223
0.0177213661372661
0.0179718304425477
0.0180830024182796
0.0180497169494628
0.0178597960621118
0.0174868237227201
0.0168834030628204
0.0159822516143322
0.0147094475105404
0.0130050871521234
0.0108434166759252
0.0082481876015663
0.0052996324375271
0.0021296706981956
-0.0010925388196483
-0.0041806204244494
-0.006953761447221
-0.009258110076189
-0.0109833255410194
-0.012071993201971
-0.0125214476138353
-0.0123818898573517
-0.0117527293041348
-0.0107723921537399
-0.009599077515304
-0.0083884578198194
-0.007275266572833
-0.0063595757819712
-0.0056973984465003
-0.0052984748035669
-0.0051322616636753
-0.0051393751055002
-0.0052446229383349
-0.0053679645061492
-0.0054323012009263
-0.0053688297048211
-0.0051216296851634
-0.0046553281135857
-0.0039641065523028
-0.0030733924359083
-0.0020336606539785
-0.0009118930902332
0.0002192889805883
0.0012939542066305
0.002261248184368
0.0030871860217303
0.003751907730475
0.0042441966943442
0.0045524560846388
0.004653250798583
0.0045030615292489
0.0040401830337941
0.0031981631182134
0.0019239238463342
0.0001944345422089
-0.0019690473563969
-0.0044922628439962
-0.0072504179552197
-0.0100816069170832
-0.0128040704876184
-0.0152336414903402
-0.0172041878104209
-0.018589112907648
-0.0193157363682985
-0.0193707142025232
-0.0187996886670589
-0.0177000258117914
-0.0162060298025608
-0.0144705474376678
-0.0126469153910875
-0.0108740162104368
-0.0092639932408928
-0.0078915068879723
-0.0067874118685722
-0.0059392200782895
-0.0052975416183471
-0.0047861570492386
-0.0043139928020536
-0.0037890935782343
-0.0031322571448981
-0.0022872765548527
-0.0012277509085834
4.146317951381207e-05
0.0014899466186761
0.003070343285799
0.0047252182848751
0.0063921157270669
0.008008137345314
0.009513946250081
0.0108567532151937
0.01199303381145
0.012889607809484
0.0135188363492488
0.0138492248952388
0.0138386823236942
0.0134347947314381
0.0125826559960842
0.0112394839525222
0.0093929590657353
0.0070779025554656
0.0043853716924786
0.0014600137947127
-0.001515271491371
-0.0043432330712676
-0.006836456246674
-0.0088369930163025
-0.010231758467853
-0.0109634054824709
-0.0110351778566837
-0.0105080408975481
-0.0094908038154244
-0.0081271901726722
-0.0065798144787549
-0.0050094411708414
-0.0035546217113733
-0.0023170681670308
-0.001353092957288
-0.0006722752004861
-0.0002442100085318
-9.171664714813232e-06
0.0001110406592488
0.0002013482153415
0.0003415993414819
0.0005974578671157
0.0010143211111426
0.0016148556023836
0.0023996485397219
0.0033489277120679
0.0044262167066335
0.0055847247131168
0.0067746951244771
0.0079497573897242
0.0090709468349814
0.0101070925593376
0.0110301170498132
0.0118065783753991
0.0123896338045597
0.0127151664346456
0.0127047291025519
0.0122752543538808
0.0113535355776548
0.0098941605538129
0.0078974524512887
0.0054213600233197
0.0025824424810707
-0.0004544691182672
-0.0034939525648951
-0.0063305054791271
-0.0087688919156789
-0.0106441415846347
-0.0118419211357831
-0.01231399923563
-0.0120815699920058
-0.0112275201827287
-0.009882959537208
-0.0082099512219429
-0.0063808797858655
-0.0045575452968478
-0.0028748419135808
-0.0014298246242105
-0.0002738358452916
0.0005893339402973
0.0011956305243074
0.0016088152769953
0.001910496270284
0.0021897284314036
0.002530017402023
0.0029982982669025
0.0036400416865944
0.0044780117459595
0.0055124051868915
0.006722857709974
0.0080703636631369
0.0095001496374607
0.0109489988535642
0.0123540591448545
0.0136575084179639
0.0148051809519529
0.015740729868412
0.016399260610342
0.0167048797011375
0.0165735930204391
0.0159215256571769
0.0146802878007292
0.0128167308866977
0.0103494776412844
0.0073574548587203
0.0039785299450159
0.0003987872041761
-0.0031654709018766
-0.0064900713041424
-0.0093646608293056
-0.0116129647940397
-0.0131120989099144
-0.0138061977922916
-0.0137117337435483
-0.012913629412651
-0.0115523524582386
-0.0098069906234741
-0.0078760702162981
-0.005954117514193
-0.0042067971080541
-0.0027510232757776
-0.001645051408559
-0.0008893159683793
-0.0004353690892457
-0.0002002599649131
-8.360831998288631e-05
1.612468622624874e-05
0.0001887397374957
0.0005028888117522
0.0009995535947382
0.0016899136826395
0.0025580374058336
0.0035661282017827
0.0046607367694377
0.0057791122235357
0.006856127642095
0.0078322803601622
0.0086598936468362
0.0093034449964761
0.0097321113571524
0.0099074803292751
0.0097751095890998
0.009266554377973
0.0083103720098733
0.0068480195477604
0.0048526721075177
0.0023470539599657
-0.0005878154188394
-0.0038173510693013
-0.0071668252348899
-0.0104372333735227
-0.0134236449375748
-0.0159373991191387
-0.0178287401795387
-0.0190037880092859
-0.01943214610219
-0.0191476605832576
-0.0182443931698799
-0.0168638955801725
-0.0151751898229122
-0.013354149647057
-0.011563072912395
-0.0099315103143453
-0.0085446387529373
-0.007442292291671
-0.0066244802437722
-0.0060573611408472
-0.0056792148388922
-0.0054099592380225
-0.005163799971342
-0.0048604812473058
-0.0044338149018585
-0.0038394802249968
-0.0030607748776674
-0.002109367866069
-0.0010211961343884
0.0001516193151473
0.0013518531341105
0.002527245087549
0.0036353187169879
0.0046429773792624
0.005522730294615
0.0062457020394504
0.0067731994204223
0.0070511400699615
0.0070100943557918
0.0065728430636227
0.0056699835695326
0.0042587863281369
0.0023385533131659
-4.0152110159397125e-05
-0.0027729975990951
-0.0057075452059507
-0.0086559271439909
-0.011412413790822
-0.0137763433158397
-0.0155776040628552
-0.0166966766119003
-0.0170752126723527
-0.0167199652642011
-0.0157013479620218
-0.0141448564827442
-0.0122155807912349
-0.0100964689627289
-0.0079629272222518
-0.0059609096497297
-0.0041936752386391
-0.0027168877422809
-0.0015387902967631
-0.0006241113878786
9.681889787316322e-05
0.0007138466462492
0.0013200188986957
0.0019959867931902
0.0028000585734844
0.0037640023510903
0.0048934752121567
0.0061724851839244
0.00756850047037
0.009036773815751
0.010525700636208
0.0119826272130012
0.0133589301258325
0.0146139627322554
0.0157153457403183
0.0166333131492137
0.0173317305743694
0.0177610516548156
0.0178558472543954
0.0175389647483825
0.0167351607233285
0.015391550026834
0.0134975500404834
0.0110984090715646
0.0082986801862716
0.0052548102103173
0.0021594944410026
-0.0007793316617608
-0.0033616079017519
-0.005415144842118
-0.0068116835318505
-0.0074812145903706
-0.0074203736148774
-0.0066913543269038
-0.0054144873283803
-0.0037545529194176
-0.0018988773226737
-3.161095082759857e-05
0.0016888922546058
0.0031456416472792
0.0042706318199634
0.0050466577522456
0.0055049411021173
0.0057163191959261
0.0057760723866522
0.0057871784083545
0.0058450438082218
0.0060251057147979
0.0063753826543688
0.0069140410050749
0.0076301754452288
0.0084879510104656
0.0094346329569816
0.0104095991700887
0.0113511094823479
0.0122010828927159
0.0129101276397705
0.0134423384442925
0.0137750636786222
0.0138908857479691
0.0137649308890104
0.0133541719987988
0.0125959087163209
0.0114184785634279
0.0097612272948026
0.0075965016148984
0.0049448823556303
0.0018804064020514
-0.0014713671989738
-0.0049423472955822
-0.0083386125043034
-0.0114605287089943
-0.0141225978732109
-0.0161728039383888
-0.0175101235508918
-0.018097348511219
-0.0179663188755512
-0.0172125529497861
-0.0159791763871908
-0.0144349168986082
-0.0127515587955713
-0.0110843814909458
-0.009558537043631
-0.0082620736211538
-0.0072424802929162
-0.0065048760734498
-0.0060143135488033
-0.0057037360966205
-0.0054854191839694
-0.0052645276300609
-0.0049546174705028
-0.0044916351325809
-0.0038416301831603
-0.0030011991038918
-0.0019932154100388
-0.0008601369336247
0.0003449479117989
0.0015670494176447
0.0027526286430656
0.0038498970679938
0.0048129302449524
0.00560810463503
0.0062162396498024
0.0066271685063838
0.006829188670963
0.0067992764525115
0.0064977700822055
0.0058692726306617
0.0048517538234591
0.003393383231014
0.0014729225076735
-0.0008822274394333
-0.0035868347622454
-0.0065017575398087
-0.0094491653144359
-0.0122343460097908
-0.0146697824820876
-0.0165967568755149
-0.0179016254842281
-0.0185263846069574
-0.01847312040627
-0.017802033573389
-0.0166226327419281
-0.0150785446166992
-0.0133292749524116
-0.0115322116762399
-0.009825806133449
-0.0083150304853916
-0.0070610879920423
-0.0060780402272939
-0.0053384467028081
-0.0047852713614702
-0.0043443515896797
-0.0039345957338809
-0.0034771850332617
-0.002905948087573
-0.0021772421896457
-0.0012749468442052
-0.0002086875028908
0.000991835957393
0.0022824411280453
0.0036104656755924
0.0049225632101297
0.0061717135831713
0.0073210718110203
0.0083444556221365
0.0092237750068306
0.0099454345181584
0.0104957707226276
0.0108536221086978
0.0109837390482425
0.0108360471203923
0.010351431556046
0.0094733908772468
0.0081635331735014
0.0064173573628067
0.0042763506062328
0.0018317025387659
-0.000782250193879
-0.003401587717235
-0.0058492263779044
-0.0079532451927661
-0.0095668239519
-0.0105858137831091
-0.0109597910195589
-0.0106957592070102
-0.0098557295277714
-0.0085490848869085
-0.0069184056483209
-0.0051199351437389
-0.0033039692789316
-0.001598791219294
-9.888224303722382e-05
0.001141732558608
0.0021099960431456
0.0028297645039856
0.0033556059934198
0.0037637786008417
0.0041394080035388
0.0045622079633176
0.0050953510217368
0.0057802638038992
0.0066353529691696
0.0076556056737899
0.0088129341602325
0.0100597124546766
0.0113371908664703
0.0125849423930048
0.0137467039749026
0.0147744426503777
0.0156325679272413
0.0162986665964126
0.0167578961700201
0.0169921070337295
0.0169679466634988
0.0166319757699966
0.0159184485673904
0.014767063781619
0.0131426472216844
0.011050553061068
0.0085458345711231
0.0057342983782291
0.0027647791430354
-0.0001847320236265
-0.0029249440412968
-0.0052764862775802
-0.0070917592383921
-0.0082712676376104
-0.0087707880884408
-0.008603218011558
-0.0078393463045358
-0.0066036619246006
-0.0050587952136993
-0.0033801095560193
-0.0017300012987107
-0.0002400309313088
0.0009990325197577
0.0019418564625084
0.0025883866474032
0.0029792829882353
0.0031865849159657
0.0032993382774293
0.0034073363058269
0.0035882680676877
0.0039002310950309
0.0043768677860498
0.0050242631696164
0.0058219176717102
0.0067282086238265
0.0076877437531948
0.0086382832378149
0.0095183700323104
0.0102759469300508
0.0108743105083704
0.0112937204539775
0.0115300063043832
0.0115887932479381
0.0114729637280106
0.0111689176410436
0.0106413383036851
0.0098363980650901
0.0086876787245273
0.0071280831471085
0.005111513659358
0.0026349611580371
-0.00024941470474
-0.0034332675859332
-0.0067605702206492
-0.0100446864962577
-0.0130900340154767
-0.0157128348946571
-0.0177603233605623
-0.0191293451935052
-0.0197787918150424
-0.0197314210236072
-0.0190680529922246
-0.01791662722826
-0.0164359658956527
-0.014794978313148
-0.0131508130580186
-0.0116320988163352
-0.0103300232440233
-0.0092939436435699
-0.0085291024297475
-0.0079993512481451
-0.0076376628130674
-0.0073615936562418
-0.0070881824940443
-0.0067450716160237
-0.0062772557139396
-0.0056510833092033
-0.004856513813138
-0.0039052031934261
-0.0028257393278181
-0.0016607022844254
-0.0004630736075341
0.0007114610634744
0.001812876202166
0.0028021149337291
0.0036525810137391
0.0043486133217811
0.0048827459104359
0.0052513601258397
0.0054465574212372
0.0054465727880597
0.0052111479453742
0.0046844743192195
0.0038042650558054
0.002517289482057
0.0007977974601089
-0.0013398486189544
-0.0038355386350303
-0.0065822890028357
-0.0094331689178943
-0.0122167328372597
-0.0147547647356987
-0.0168802011758089
-0.0184565335512161
-0.0193943250924348
-0.0196597389876842
-0.0192758534103631
-0.0183186791837215
-0.0169080272316932
-0.0151926539838314
-0.0133297834545373
-0.0114637287333607
-0.0097118504345417
-0.0081585831940174
-0.0068508302792906
-0.0057941866107285
-0.0049555250443518
-0.0042727449908852
-0.0036679608747363
-0.0030609532259404
-0.0023806425742805
-0.0015732035972177
-0.0006068195216357
0.0005266154184937
0.0018129833042621
0.0032205646857619
0.0047065829858183
0.0062220431864261
0.0077128992415964
0.0091221826151013
0.010397152043879
0.0114980246871709
0.0124032106250524
0.0131090879440307
0.0136239537969231
0.0139577221125364
0.0141106843948364
0.0140651911497116
0.0137840509414672
0.0132167199626564
0.0123118180781602
0.0110343396663665
0.0093838209286332
0.0074058892205357
0.0051916688680648
0.0028673848137259
0.0005802256055176
-0.0015157368034124
-0.0032741571776568
-0.0045740394853055
-0.0053371381945908
-0.0055374475196003
-0.0052008554339408
-0.0043995664454996
-0.0032439036294817
-0.0018696021288633
-0.0004197685047984
0.0009754537604749
0.0022163102403283
0.0032419208437204
0.0040286625735461
0.0045857704244554
0.0049521378241479
0.0051895710639655
0.0053717163391411
0.0055733853951096
0.0058612888678908
0.0062851794064044
0.0068718413822352
0.0076237814500927
0.0085217012092471
0.0095300311222672
0.0106037501245737
0.0116948951035738
0.0127587532624602
0.0137572959065437
0.0146577255800366
0.0154298730194568
0.0160473939031362
0.0164920780807733
0.0167558565735816
0.0168370679020881
0.0167316421866416
0.0164220221340656
0.0158695317804813
0.0150157557800412
0.0137939164415001
0.0121473623439669
0.0100493999198079
0.0075190509669482
0.0046294573694467
0.0015047083143144
-0.0016950187273323
-0.0047925971448421
-0.0076124118641018
-0.0099985636770725
-0.011830972507596
-0.0130363777279853
-0.013594688847661
-0.013540668413043
-0.0129592325538396
-0.0119747500866651
-0.0107351727783679
-0.0093922466039657
-0.0080828415229916
-0.0069154128432273
-0.0059603117406368
-0.005245164502412
-0.0047590625472366
-0.0044624363072216
-0.0042974231764674
-0.0041974633932113
-0.0040951357223093
-0.003928461112082
-0.003647583303973
-0.0032211544457823
-0.0026394955348223
-0.0019140357617288
-0.0010742489248514
-0.0001619351096451
0.0007758606225252
0.001693301834166
0.0025514643639326
0.0033210683614015
0.0039801746606826
0.0045109186321496
0.0049006110057234
0.0051452964544296
0.0052473256364464
0.0052043739706277
0.0049979835748672
0.0045886430889368
0.0039194514974951
0.0029282215982675
0.0015638349577784
-0.0001978818327188
-0.0023410655558109
-0.0048015085048973
-0.0074659781530499
-0.0101829813793301
-0.0127832181751728
-0.0151004139333963
-0.0169881246984004
-0.0183347985148429
-0.0190762542188167
-0.0192023944109678
-0.0187564138323068
-0.0178270805627107
-0.0165376961231231
-0.01503237336874
-0.0134574119001626
-0.0119417710229754
-0.0105833485722541
-0.0094416495412588
-0.0085351588204503
-0.0078449007123708
-0.0073235067538917
-0.0069053964689373
-0.0065176030620932
-0.0060915127396583
-0.0055715064518153
-0.0049189911223948
-0.0041143195703625
-0.0031579367350786
-0.0020692986436188
-0.0008829360594972
0.0003566000959835
0.0016002026386559
0.0028004548512399
0.0039175353012979
0.0049231704324483
0.0058025722391903
0.0065534859895706
0.0071812705136835
0.0076935472898185
0.0080980965867638
0.0084002241492271
0.0085947467014193
0.0086573679000139
0.0085430741310119
0.0081918146461248
0.0075394515879452
0.0065329829230904
0.005147255025804
0.0033993017859756
0.0013552891323342
-0.000873222365044
-0.003140858374536
-0.0052842237055301
-0.00714159803465
-0.0085743553936481
-0.0094844466075301
-0.0098249390721321
-0.0096035627648234
-0.0088787423446774
-0.0077495165169239
-0.0063421665690839
-0.0047955391928553
-0.0032463837414979
-0.0018144827336072
-0.0005883616395294
0.000384843442589
0.001102830749005
0.0016041570343077
0.0019561816006898
0.0022376966662704
0.002523859962821
0.0028780731372535
0.0033480832353234
0.003962832968682
0.0047305948100984
0.0056405989453196
0.0066681173630058
0.007780211046338
0.0089401025325059
0.0101107098162174
0.0112568475306034
0.0123451352119445
0.0133448410779237
0.0142306815832853
0.0149831343442201
0.0155862495303154
0.0160266794264316
0.0162918157875537
0.0163637287914752
0.0162125527858734
0.0157951358705759
0.0150605672970414
0.0139603735879063
0.0124613903462886
0.0105598261579871
0.0082929236814379
0.0057432008907198
0.0030334368348121
0.0003161171334795
-0.0022406373172998
-0.0044728810898959
-0.0062434263527393
-0.0074593052268028
-0.0080814929679036
-0.0081287520006299
-0.0076737301424145
-0.006829282734543
-0.0057294592261314
-0.0045114983804523
-0.003302245400846
-0.0022083588410168
-0.0013077586190775
-0.0006435879622586
-0.0002225546049885
-1.6503356164321303e-05
3.055168781429529e-05
-1.114042242988944e-05
-6.957276491448283e-05
-7.817271398380399e-05
1.782167237251997e-05
0.0002545616589486
0.0006462646415457
0.0011861640959978
0.0018493266543373
0.0025971333961933
0.0033839165698736
0.0041634691879153
0.0048937960527837
0.0055407937616109
0.0060814265161752
0.0065055089071393
0.0068135377950966
0.0070106410421431
0.0071003353223204
0.0070789395831525
0.0069298297166824
0.0066201402805745
0.0061015980318188
0.005314674694091
0.0041981046088039
0.0027052899822592
0.0008225012570619
-0.0014181067235767
-0.0039340066723525
-0.0065980153158307
-0.0092537943273782
-0.0117352567613124
-0.0138852559030056
-0.0155735313892364
-0.0167108457535505
-0.0172566510736942
-0.0172222964465618
-0.0166686307638883
-0.0156946945935487
-0.0144204273819923
-0.012969996780157
-0.0114593617618083
-0.0099882297217845
-0.0086347330361604
-0.0074517088942229
-0.0064655793830752
-0.0056780464947223
-0.0050687068141996
-0.0045991595834493
-0.0042218365706503
-0.0038909974973648
-0.0035686595365405
-0.0032251132652163
-0.0028390786610543
-0.002398308366537
-0.0018983527552336
-0.0013405748177319
-0.0007322140736505
-8.721533231437206e-05
0.0005748856347054
0.001231575384736
0.001859996584244
0.0024400341790169
0.0029580853879451
0.0034083840437233
0.0037884544581174
0.0040897377766668
0.0042886510491371
0.0043435073457658
0.0041987723670899
0.0037935371510684
0.0030711530707776
0.0019910875707864
0.0005442528054118
-0.001233291812241
-0.0032576853409409
-0.0054076476953923
-0.007540076971054
-0.0095047578215599
-0.0111578358337283
-0.0123763484880328
-0.0130752213299274
-0.0132220042869448
-0.0128417033702135
-0.0120099782943725
-0.0108389975503087
-0.0094599639996886
-0.0080053675919771
-0.0065948781557381
-0.0053254091180861
-0.0042628864757716
-0.0034362059086561
-0.0028367163613438
-0.0024244082160294
-0.002136833500117
-0.0018975120037794
-0.0016270256601274
-0.001257833559066
-0.0007458426989614
-7.346225902438164e-05
0.0007534665055572
0.001711054239422
0.0027640303596854
0.0038725095801055
0.0049965465441346
0.0060979947447776
0.0071428301744163
0.0081055406481027
0.0089716855436563
0.0097361383959651
0.0103985089808702
0.0109563581645488
0.0113963764160871
0.0116864461451768
0.0117737744003534
0.0115922652184963
0.0110769579187035
0.0101804584264755
0.0088878273963928
0.0072271493263542
0.0052728145383298
0.003141067456454
0.0009781098924577
-0.0010583447292447
-0.0028190230950713
-0.0041795130819082
-0.0050527174025774
-0.005396794527769
-0.0052173985168337
-0.004565997980535
-0.0035342620685696
-0.0022420501336455
-0.0008212989196181
0.000598257407546
0.0018999744206666
0.0029913312755525
0.0038157701492309
0.0043596182949841
0.0046498677693307
0.004745427519083
0.0047246790491044
0.0046714721247553
0.0046644764952361
0.0047704176977276
0.0050371931865811
0.0054874317720532
0.0061169331893324
0.006899525411427
0.0077942619100213
0.0087510738521814
0.0097161997109651
0.010638671927154
0.0114763658493757
0.0121999848634004
0.0127933258190751
0.0132491001859307
0.0135608650743961
0.0137134343385696
0.0136765837669372
0.0134050343185663
0.0128439255058765
0.0119385011494159
0.0106471311300992
0.008955493569374
0.0068888636305928
0.0045187417417764
0.0019601339008659
-0.0006401519640348
-0.0031210652086883
-0.0053277076222002
-0.0071299606934189
-0.0084357783198356
-0.0092003913596272
-0.0094318147748708
-0.0091881919652223
-0.0085657713934779
-0.0076830890029668
-0.0066660940647125
-0.0056346794590353
-0.0046909903176128
-0.0039104153402149
-0.0033349776640534
-0.0029703197069466
-0.0027888903860002
-0.0027385079301893
-0.002752810716629
-0.0027618901804089
-0.0027014454826712
-0.0025190159212797
-0.0021787695586681
-0.0016647644806653
-0.0009806687012314
-0.0001476410543546
0.0007979084039106
0.0018083555623888
0.0028303447179496
0.0038101670797914
0.0046996711753308
0.0054619908332824
0.0060745785012841
0.0065278531983494
0.0068190661258995
0.0069422489032149
0.0068776146508753
0.0065867970697581
0.0060174842365086
0.0051151402294635
0.0038391887210309
0.0021791541948914
0.0001640506088733
-0.0021359818056225
-0.0046128239482641
-0.0071284989826381
-0.0095293233171105
-0.0116627179086208
-0.0133928786963224
-0.014616085216403
-0.0152738373726606
-0.0153593048453331
-0.0149176800623536
-0.014041343703866
-0.0128577072173357
-0.0115099512040615
-0.0101346224546432
-0.008843446150422
-0.007715499959886
-0.0067961337044835
-0.0060960622504353
-0.0055924667976796
-0.005236729979515
-0.0049670422449707
-0.0047200368717312
-0.0044377646408975
-0.0040704761631786
-0.0035791718401014
-0.0029398354236036
-0.0021461709402501
-0.0012082965113222
-0.0001487092813476
0.0010018259054049
0.0022061392664909
0.0034196281339973
0.0045901867561042
0.0056633511558175
0.0065910229459404
0.0073387934826314
0.0078870533034205
0.0082238651812076
0.0083334920927882
0.0081874355673789
0.0077432040125131
0.006952506955713
0.005776363890618
0.0042019635438919
0.0022556218318641
8.230796083807945e-06
-0.0024279444478452
-0.0049110655672848
-0.0072865141555666
-0.0094039430841803
-0.0111332070082426
-0.0123771373182535
-0.0130793023854494
-0.0132288448512554
-0.0128637133166193
-0.0120698017999529
-0.0109714614227414
-0.0097124380990862
-0.0084339007735252
-0.0072555728256702
-0.0062614884227514
-0.0054922215640544
-0.0049445806071162
-0.0045787021517753
-0.0043308828026056
-0.0041274419054389
-0.0038955360651016
-0.0035700073931366
-0.0030990841332823
-0.0024507704656571
-0.0016172593459486
-0.0006150025874376
0.0005199802108108
0.0017398844938725
0.0029928626026958
0.0042300638742744
0.0054113781079649
0.0065082246437668
0.0075035518966615
0.0083893043920397
0.0091619826853275
0.0098173264414072
0.0103428363800048
0.0107089914381504
0.0108659993857145
0.0107506895437836
0.0102991601452231
0.0094595467671751
0.0082053896039724
0.0065494058653712
0.0045507131144404
0.0023106723092496
-3.722961992025376e-05
-0.0023375262971967
-0.0044259023852646
-0.0061486233025789
-0.007382477633655
-0.0080483835190534
-0.0081204827874898
-0.0076310294680297
-0.0066654868423938
-0.0053491136059165
-0.0038305995985865
-0.0022637746296823
-0.0007884451188147
0.0004865606315433
0.0014955452643334
0.0022207759320735
0.0026888414286077
0.0029607890173792
0.0031190472654998
0.0032518610823899
0.0034376962576061
0.0037353683728724
0.0041813598945736
0.0047902725636959
0.0055566909722983
0.0064587560482323
0.0074613154865801
0.0085181174799799
0.0095760831609368
0.010583059862256
0.0114962793886661
0.0122872767969965
0.0129423551261425
0.0134608158841729
0.0138500723987817
0.0141139216721057
0.014236700721085
0.0141742210835218
0.0138578936457633
0.0132079105824232
0.0121506284922361
0.0106382742524147
0.0086664585396647
0.0062849158421158
0.0035989396274089
0.0007596195209771
-0.0020546808373183
-0.0046601039357483
-0.0068884589709341
-0.0086045442149043
-0.0097192758694291
-0.0102008990943431
-0.0100804194808006
-0.0094454903155565
-0.0084255952388048
-0.0071732555516064
-0.0058431942015886
-0.004572972189635
-0.0034683048725128
-0.0025948397815227
-0.0019763805903494
-0.0015967104118317
-0.0014052051119506
-0.0013288357295095
-0.0012865636963397
-0.0012001709546893
-0.0010029064724221
-0.0006488318322226
-0.0001196726225316
0.0005754120647907
0.0014058800879865
0.0023276568390429
0.0032911547459661
0.0042476151138544
0.0051523931324481
0.0059676789678633
0.0066659529693424
0.0072314837016165
0.0076593477278947
0.00795404240489
0.0081254197284579
0.0081782974302768
0.0080996183678507
0.0078508108854293
0.0073693706654012
0.0065793651156127
0.0054084537550807
0.0038087610155344
0.0017764139920473
-0.0006376067176461
-0.0033288346603512
-0.0061506852507591
-0.0089311487972736
-0.0114917559549212
-0.0136677660048007
-0.0153276100754737
-0.0163882430642843
-0.0168235450983047
-0.01666478253901
-0.0159940905869007
-0.0149331660941243
-0.0136278280988335
-0.0122284162789583
-0.0108710248023271
-0.0096638398244977
-0.0086767170578241
-0.0079349428415298
-0.0074210334569215
-0.0070833517238497
-0.0068482416681945
-0.006633405573666
-0.0063606277108192
-0.0059661408886313
-0.005406345706433
-0.0046596201136708
-0.0037275594659149
-0.0026355711743235
-0.0014296385925263
-0.0001675130333751
0.0010919482447206
0.0022958333138376
0.0034007101785391
0.0043753050267696
0.0052024573087692
0.0058788959868252
0.006412036716938
0.006815799511969
0.0071063367649912
0.0072945593856275
0.0073761008679866
0.0073237246833741
0.0070850122720003
0.0065882224589586
0.0057579195126891
0.0045356806367635
0.0028985948301851
0.0008709342218935
-0.0014720694161951
-0.0040076002478599
-0.0065764691680669
-0.0090025812387466
-0.011116674169898
-0.0127781778573989
-0.0138909462839365
-0.0144117539748549
-0.0143530489876866
-0.0137803442776203
-0.0128024816513061
-0.0115556316450238
-0.0101844714954495
-0.0088234888389706
-0.0075816707685589
-0.0065327836200594
-0.0057107703760266
-0.0051094680093228
-0.0046879383735358
-0.004381354432553
-0.004113208502531
-0.0038055691402405
-0.0033887887839227
-0.0028117280453443
-0.0020478004589676
-0.001094305422157
2.9403716325759888e-05
0.0012833308428525
0.0026122487615793
0.0039549097418785
0.0052527743391692
0.0064554256387054
0.0075243189930915
0.0084374919533729
0.0091917607933282
0.0097985472530126
0.010276585817337
0.0106456689536571
0.0109192319214344
0.0110936257988214
0.0111399479210376
0.0110048223286867
0.0106199393048882
0.0099170356988906
0.0088439742103219
0.0073795365169644
0.0055466881021857
0.0034203873947262
0.0011242213658988
-0.0011848849244415
-0.0033386487048119
-0.0051790969446301
-0.0065766111947596
-0.007443874143064
-0.0077448617666959
-0.0074973595328629
-0.0067679500207304
-0.0056617767550051
-0.0043100011534988
-0.0028541185893118
-0.0014275987632572
-0.0001393971033394
0.000937505159527
0.0017714323475956
0.0023708241060376
0.0027787713333964
0.0030642512720078
0.0033087385818362
0.0035911865998059
0.0039765769615769
0.0045083593577146
0.0052037765271961
0.006054547149688
0.007032151799649
0.0080932015553116
0.0091849090531468
0.0102520287036895
0.0112439393997192
0.0121210208162665
0.0128583498299121
0.0134447403252124
0.013880556449294
0.0141769684851169
0.014351200312376
0.0144145088270306
0.0143598793074488
0.0141563266515731
0.0137504516169428
0.0130754802376031
0.0120663773268461
0.0106756445020437
0.0088874148204922
0.0067294500768184
0.0042783040553331
0.0016537429764866
-0.0009952806867659
-0.0035088579170405
-0.0057344487868249
-0.0075423927046358
-0.0088393380865454
-0.0095792170614004
-0.0097682531923055
-0.0094629684463143
-0.0087614608928561
-0.0077873147092759
-0.0066711534745991
-0.0055379592813551
-0.0044988887384533
-0.0036413033958524
-0.0030179130844771
-0.002640253631398
-0.0024798228405416
-0.0024766293354332
-0.0025525607634335
-0.0026268938090652
-0.002628959249705
-0.0025043396744877
-0.0022179076913744
-0.001756512094289
-0.0011283785570412
-0.000358697026968
0.0005139876157045
0.0014400822110474
0.0023638284765183
0.0032307682558894
0.0039948932826519
0.0046237092465162
0.0051006292924284
0.0054247989319264
0.0056078159250319
0.0056661842390894
0.0056099495850503
0.0054309330880641
0.005096023902297
0.0045495880767703
0.0037253387272357
0.0025649489834904
0.0010375035926699
-0.0008477540686726
-0.0030387588776648
-0.0054448852315545
-0.0079444274306297
-0.0103956777602434
-0.0126510579138994
-0.0145722161978483
-0.0160459317266941
-0.0169986002147197
-0.0174048542976379
-0.0172888431698083
-0.0167192891240119
-0.0157988667488098
-0.0146489534527063
-0.0133934607729315
-0.0121448263525962
-0.0109924469143152
-0.0099948411807417
-0.0091769304126501
-0.0085307518020272
-0.0080202780663967
-0.0075925225391983
-0.0071895690634846
-0.0067548798397183
-0.0062368148937821
-0.0055943285115063
-0.0048037958331406
-0.0038635241799056
-0.0027933903038501
-0.0016298921545967
-0.0004195538349449
0.0007872061105445
0.0019409817177802
0.0029977275989949
0.0039233532734215
0.0046974411234259
0.0053154085762798
0.0057880678214132
0.0061368797905743
0.006385464221239
0.0065475516021251
0.0066140759736299
0.006548220757395
0.006291592027992
0.0057754884473979
0.0049352040514349
0.0037283939309418
0.0021515018306672
0.0002477624220773
-0.0018927962519228
-0.0041403598152101
-0.0063395476900041
-0.0083280075341463
-0.0099559985101223
-0.0111058065667748
-0.0117079056799411
-0.0117490123957395
-0.0112711982801556
-0.0103632975369691
-0.0091454796493053
-0.0077507938258349
-0.006308336276561
-0.0049293925985693
-0.0036962428130209
-0.0026555429212749
-0.0018188557587563
-0.0011674365960061
-0.0006573502905666
-0.000227075535804
0.0001910668797791
0.0006598639301955
0.0012297849170863
0.0019336272962391
0.0027817739173769
0.0037609478458762
0.0048395488411188
0.0059768687933683
0.0071309702470898
0.0082640778273344
0.0093450108543038
0.0103472247719764
0.011247063986957
0.0120275430381298
0.0126826949417591
0.0132154487073421
0.013630136847496
0.0139229847118258
0.0140737174078822
0.014043248258531
0.0137777887284755
0.0132165709510445
0.0123051442205905
0.0110142193734645
0.009356016293168
0.0073904935270547
0.005220390856266
0.0029779435135424
0.0008082666900008
-0.0011457661166787
-0.0027566631324589
-0.0039254445582628
-0.0045937341637909
-0.0047503765672445
-0.004429874010384
-0.0037058382295072
-0.0026832781732082
-0.0014877915382385
-0.000249080825597
0.0009176079183816
0.0019262344576418
0.0027293320745229
0.0033203084021806
0.0037253610789775
0.0039897188544273
0.0041671190410852
0.0043138526380062
0.0044841435737907
0.0047244224697351
0.0050663161091506
0.0055222790688276
0.006086635403335
0.0067393854260444
0.0074501815252006
0.0081830322742462
0.0089014545083045
0.0095723941922187
0.0101685328409075
0.0106682246550917
0.0110533777624368
0.0113090900704264
0.0114256599918007
0.0113995037972927
0.01123021915555
0.0109120896086096
0.0104245850816369
0.0097304824739694
0.0087810978293418
0.0075240414589643
0.0059161316603422
0.0039411163888871
0.001623342745006
-0.0009666057303547
-0.0037132925353944
-0.0064680678769946
-0.0090711684897542
-0.011374233290553
-0.0132548753172159
-0.0146258771419525
-0.0154438931494951
-0.0157161336392164
-0.0155001226812601
-0.0148947276175022
-0.0140244755893945
-0.0130203375592827
-0.0120012937113642
-0.0110615845769643
-0.0102644925937056
-0.0096385590732097
-0.0091764293611049
-0.0088414121419191
-0.0085796369239687
-0.0083316126838326
-0.0080418325960636
-0.0076650884002447
-0.0071685425937175
-0.0065330485813319
-0.0057549476623535
-0.0048455437645316
-0.0038279215805232
-0.0027337851934134
-0.0016015812288969
-0.0004741754382848
0.0006056223064661
0.0016004764474928
0.0024824771098792
0.003235054668039
0.0038529732264578
0.004340115468949
0.0047056549228727
0.0049570184201002
0.0050894916057586
0.0050797616131603
0.0048871161416172
0.0044583454728126
0.0037363073788583
0.0026743481867015
0.0012533124536275
-0.0005048317834734
-0.0025321785360574
-0.0047201532870531
-0.0069309878163039
-0.0090138316154479
-0.0108249466866254
-0.0122455488890409
-0.0131924534216523
-0.0136240860447287
-0.0135433608666062
-0.0129962302744388
-0.0120667414739727
-0.0108681172132492
-0.0095280399546027
-0.0081706959754228
-0.0069010751321911
-0.0057941586710512
-0.004888379946351
-0.0041839983314275
-0.0036479353439062
-0.0032247405033558
-0.0028510054107755
-0.0024674013257026
-0.0020249702502042
-0.0014886963181197
-0.000840310123749
-7.866136729717255e-05
0.0007822162588126
0.0017163889715448
0.002691185567528
0.0036722908262163
0.0046258885413408
0.0055199600756168
0.0063273264095187
0.0070286216214299
0.007613671477884
0.0080820871517062
0.0084425490349531
0.0087082404643297
0.0088884020224213
0.0089797582477331
0.0089610097929835
0.0087917204946279
0.008416854776442
0.0077774981036782
0.0068257264792919
0.0055389432236552
0.0039296871982514
0.002050933195278
-3.7353020161390313e-06
-0.002108198357746
-0.0041186679154634
-0.005891503766179
-0.0073020323179662
-0.0082604242488741
-0.0087215732783079
-0.0086888596415519
-0.0082106739282608
-0.0073709641583263
-0.0062776827253401
-0.005049729719758
-0.0038020843639969
-0.0026314249262213
-0.0016060159541666
-0.0007621417753398
-0.0001050410792231
0.0003889519721269
0.0007681767456233
0.0010959818027913
0.0014374600723385
0.0018482638988643
0.0023673565592616
0.0030130916275084
0.0037833829410374
0.0046600829809904
0.0056148814037442
0.0066137951798737
0.0076203411445021
0.0085989702492952
0.0095184203237295
0.0103534497320652
0.0110851805657148
0.0117010399699211
0.0121951252222061
0.0125687066465616
0.0128286723047494
0.012982633896172
0.0130307581275701
0.0129577554762363
0.0127304857596755
0.0123011944815516
0.0116152428090572
0.0106227155774831
0.009289058856666
0.0076034995727241
0.0055878283455967
