bvp
0.0075532579794526
0.0086493492126464
0.0096509680151939
0.0105271507054567
0.0112570514902472
0.0118284476920962
0.0122275613248348
0.0124270757660269
0.0123814800754189
0.0120318848639726
0.011318203061819
0.010194931179285
0.0086458977311849
0.0066947434097528
0.0044102324172854
0.0019062575884163
-0.0006674549076706
-0.0031463394407182
-0.0053753377869725
-0.0072261928580701
-0.0086067952215671
-0.0094669163227081
-0.0098011353984475
-0.0096470434218645
-0.0090796984732151
-0.0082037160173058
-0.0071405381895601
-0.0060113170184195
-0.0049214791506528
-0.0039499783888459
-0.0031428842339664
-0.0025120617356151
-0.0020390625577419
-0.0016831075772643
-0.0013912436552345
-0.0011082490673288
-0.0007842052145861
-0.0003781113191507
0.0001409691467415
0.0007918869378045
0.0015782550908625
0.0024862098507583
0.0034853918477892
0.0045334687456488
0.005581637378782
0.0065799974836409
0.0074848276562988
0.0082682808861136
0.0089240819215774
0.009462003596127
0.009894173592329
0.0102215809747576
0.0104249473661184
0.0104616917669773
0.0102700125426054
0.0097788739949464
0.0089220032095909
0.0076538436114788
0.0059634330682456
0.0038828877732157
0.0014904220588505
-0.0010926648974418
-0.003713026177138
-0.0062025310471653
-0.0083978353068232
-0.0101613998413085
-0.0114007471129298
-0.0120781790465116
-0.0122094266116619
-0.0118576735258102
-0.0111258309334516
-0.0101436153054237
-0.0090487264096736
-0.007968028075993
-0.0070032086223363
-0.0062206829898059
-0.0056470339186489
-0.0052710976451635
-0.0050507257692515
-0.0049221590161323
-0.0048108370974659
-0.0046431380324065
-0.0043571013957262
-0.0039091971702873
-0.0032775341533124
-0.0024634024593979
-0.001490622293204
-0.0004018505569547
0.0007480327039957
0.0019009187817573
0.0030044328887015
0.0040179612115025
0.0049149566330015
0.0056824972853064
0.0063198916614055
0.0068371193483471
0.0072503937408328
0.0075726890936493
0.007802658714354
0.0079163517802953
0.0078639648854732
0.0075754174031317
0.0069766333326697
0.0060095805674791
0.0046474914997816
0.0029047592543065
0.0008423305116593
-0.0014349571429193
-0.0037894328124821
-0.006065756548196
-0.00810709875077
-0.0097711868584156
-0.0109472144395113
-0.0115731265395879
-0.0116465557366609
-0.0112226856872439
-0.0104005895555019
-0.0093052610754966
-0.0080700693652033
-0.0068210917524993
-0.0056647146120667
-0.0046792761422693
-0.0039106872864067
-0.0033704899251461
-0.0030358536168932
-0.0028544734232127
-0.0027540849987417
-0.0026525266002863
-0.0024683608207851
-0.0021339305676519
-0.001607670681551
-0.000880220090039
2.780705108307302e-05
0.0010746679035946
0.0022081164643168
0.0033730689901858
0.0045164222829043
0.005591794848442
0.0065644062124192
0.0074144764803349
0.0081378417089581
0.0087430542334914
0.0092465933412313
0.0096695628017187
0.0100321937352418
0.0103392610326409
0.0105646019801497
0.0106499772518873
0.0105179464444518
0.0100889690220355
0.0092988004907965
0.0081142457202076
0.0065434612333774
0.0046403300948441
0.0025029289536178
0.0002636474091559
-0.0019277951214462
-0.0039235865697264
-0.0055960565805435
-0.0068527003750205
-0.007646445184946
-0.0079801809042692
-0.0079036969691514
-0.0075030047446489
-0.0068863714113831
-0.0061700027436017
-0.0054632537066936
-0.0048562102019786
-0.004411734174937
-0.0041600698605179
-0.0040968051180243
-0.0041864165104925
-0.0043705767020583
-0.0045793829485774
-0.0047420458868145
-0.004793697502464
-0.004681272432208
-0.0043717380613088
-0.0038586058653891
-0.0031617251224815
-0.0023203045129776
-0.0013832268305122
-0.0004014584410469
0.0005761311622336
0.0015057725831866
0.0023527827579528
0.0030960824806243
0.0037312244530767
0.0042678648605942
0.0047186533920466
0.0050848023965954
0.0053463894873857
0.0054597342386841
0.0053627868182957
0.0049897585995495
0.0042900117114186
0.0032433234155178
0.0018685098038986
0.0002254265127703
-0.0015891001094132
-0.0034511978738009
-0.005224778316915
-0.0067779179662466
-0.0079979775473475
-0.008804309181869
-0.0091577693819999
-0.0090648336336016
-0.0085734678432345
-0.0077637629583477
-0.0067389183677732
-0.0056152492761611
-0.0045076427049934
-0.0035128844901919
-0.0026971073821187
-0.002089895773679
-0.0016839019954204
-0.0014408766292035
-0.001302471384406
-0.0012002068106085
-0.0010637978557497
-0.0008298999164253
-0.0004502304363995
0.000103035243228
0.0008351828437298
0.0017283763736486
0.0027420111000537
0.0038176926318556
0.004890221171081
0.0058998237363994
0.0068012652918696
0.0075692078098654
0.0081993443891406
0.0087034841999411
0.0090975137427449
0.009385323151946
0.0095472168177366
0.0095406742766499
0.0093110920861363
0.0088051985949277
0.0079859253019094
0.0068457587622106
0.0054120365530252
0.0037455144338309
0.0019364388426765
9.703135583549738e-05
-0.0016506436513736
-0.0031890412792563
-0.0044189738109707
-0.0052708461880683
-0.0057119918055832
-0.0057499031536281
-0.0054310616105794
-0.0048346295952796
-0.0040605757385492
-0.0032139364629983
-0.0023895755875855
-0.0016616729553788
-0.0010791327804327
-0.0006635610479861
-0.0004074161406606
-0.000276060309261
-0.0002158940769731
-0.0001645130105316
-5.943584255874157e-05
0.0001544391270726
0.0005185313057154
0.0010561201488599
0.0017693362897261
0.0026379479095339
0.0036222422495484
0.0046705547720193
0.0057284850627183
0.0067446297034621
0.0076713077723979
0.0084657967090606
0.009094163775444
0.0095320735126733
0.0097595825791358
0.0097532104700803
0.0094807492569088
0.0089025367051363
0.0079784551635384
0.0066785146482288
0.0049957018345594
0.0029574437066912
0.0006308449665084
-0.0018785967258736
-0.0044333189725875
-0.0068780104629695
-0.0090620024129748
-0.010861181654036
-0.0121921086683869
-0.013017090037465
-0.0133421029895544
-0.0132123138755559
-0.0127067230641841
-0.0119283692911267
-0.0109898066148161
-0.0099978279322385
-0.0090406639501452
-0.0081790518015623
-0.0074420003220438
-0.0068273022770881
-0.0063047572039067
-0.0058237854391336
-0.0053284876048564
-0.0047724512405693
-0.0041246647015213
-0.0033694077283143
-0.0025047038216143
-0.0015390953049063
-0.000487498473376
0.0006308855954557
0.0017925051506608
0.0029702009633183
0.0041358964517712
0.0052633788436651
0.0063300724141299
0.0073184091597795
0.0082154804840683
0.0090077873319387
0.009671526029706
0.0101651232689619
0.0104312896728515
0.0104075409471988
0.0100383926182985
0.0092863962054252
0.0081418026238679
0.0066304234787821
0.0048192730173468
0.0028161702211946
0.0007599027012474
-0.0011970251798629
-0.0029091015458106
-0.0042572440579533
-0.0051613827235996
-0.0055871689692139
-0.0055521680042147
-0.0051275519654154
-0.004426734521985
-0.0035832058638334
-0.0027274668682366
-0.0019694815855473
-0.001388088800013
-0.0010260711424052
-0.0008889597374945
-0.0009472633246332
-0.0011426641140133
-0.0013976194895803
-0.0016274687368422
-0.0017534967046231
-0.0017131466884166
-0.0014663413166999
-0.0010006171651184
-0.0003343315329402
0.0004856071900576
0.0013923830119892
0.0023111717309802
0.0031699987594038
0.0039075412787497
0.0044788015075027
0.004860742483288
0.0050560375675559
0.0050879744812846
0.0049851601943373
0.0047653722576797
0.0044270264916121
0.0039507457986474
0.0033088878262788
0.0024753394536674
0.0014328423421829
0.0001831875415518
-0.0012406405294314
-0.0027697943150997
-0.0043064290657639
-0.0057355277240276
-0.0069364639930427
-0.0077977795153856
-0.0082359630614519
-0.0082099568098783
-0.0077254548668861
-0.0068311765789985
-0.0056102303788065
-0.0041673984378576
-0.0026150227058678
-0.0010617673397064
0.0003958556335419
0.001682293601334
0.0027520363219082
0.0035952548496425
0.0042363498359918
0.0047263745218515
0.0051330113783478
0.0055293841287493
0.0059820092283189
0.0065395310521125
0.0072251446545124
0.0080355368554592
0.008945744484663
0.0099157243967056
0.0108944606035947
0.0118210706859827
0.0126281594857573
0.0132521744817495
0.0136459711939096
0.0137852681800723
0.0136681208387017
0.0133100626990199
0.01273422408849
0.0119575299322605
0.0109796309843659
0.0097804497927427
0.0083281733095645
0.0065946583636105
0.0045707928948104
0.0022775870747864
-0.0002284259535372
-0.0028591593727469
-0.0055065620690584
-0.0080542843788862
-0.0103886304423213
-0.0124115198850631
-0.0140517577528953
-0.0152717297896742
-0.0160714536905288
-0.0164887495338916
-0.0165932551026344
-0.0164768099784851
-0.0162418279796838
-0.0159870609641075
-0.0157935749739408
-0.0157132893800735
-0.0157627165317535
-0.0159260034561157
-0.0161628481000661
-0.0164144672453403
-0.0166092980653047
-0.0166707653552293
-0.0165262892842292
-0.0161174461245536
-0.0154091389849781
-0.0143938064575195
-0.0130904233083128
-0.0115407174453139
-0.0098029254004359
-0.0079430509358644
-0.0060260156169533
-0.0041088676080107
-0.0022373432293534
-0.0004457931499928
0.0012425356544554
0.0028148302808403
0.0042628101073205
0.0055721616372466
0.0067147640511393
0.0076467087492346
0.0083101661875844
0.0086414981633424
0.0085881752893328
0.0081279072910547
0.0072802184149622
0.0061085908673703
0.0047165602445602
0.0032388137187808
0.0018256483599543
0.0006209798157215
-0.0002599763683974
-0.0007463325746357
-0.000818530563265
-0.0005070730112493
0.00011673476547
0.0009552319534122
0.0018995869904756
0.0028448454104363
0.0037041462492197
0.0044179102405905
0.0049555371515452
0.0053116488270461
0.005501864477992
0.0055602900683879
0.0055343275889754
0.0054740933701395
0.0054228985682129
0.0054153208620846
0.0054787355475127
0.0056315651163458
0.0058795800432562
0.0062151784077286
0.0066205137409269
0.0070719365030527
0.0075439317151904
0.0080112032592296
0.0084489993751049
0.0088345082476735
0.0091510266065597
0.0093928016722202
0.0095651429146528
0.0096761463209986
0.0097238291054964
0.0096860975027084
0.0095183011144399
0.0091601628810167
0.0085496436804533
0.0076386835426092
0.0064081531018018
0.0048785805702209
0.0031124977394938
0.0012089679948985
-0.0007071454310789
-0.0024997137952595
-0.0040375441312789
-0.0052107307128608
-0.0059463679790496
-0.0062201633118093
-0.0060596228577196
-0.0055383080616593
-0.0047631082125008
-0.0038566596340388
-0.0029381187632679
-0.002105847466737
-0.001425965456292
-0.0009290380403399
-0.0006128369132056
-0.0004490232095122
-0.0003925728378817
-0.0003906914498656
-0.0003882458549924
-0.0003315276117064
-0.0001749708899296
0.0001097866334021
0.0005282153142616
0.0010639049578458
0.0016852286644279
0.0023537967354059
0.0030305080581456
0.0036784885451197
0.00426572188735
0.0047681056894361
0.0051710200496017
0.0054698544554412
0.0056699765846133
0.0057845944538712
0.005830614361912
0.0058230250142514
0.0057656299322843
0.0056391051039099
0.0053953789174556
0.0049649523571133
0.00427325675264
0.0032591260969638
0.0018917047418653
0.0001834305003285
-0.0018052007071673
-0.0039723920635879
-0.0061894934624433
-0.0083162821829319
-0.0102144991979002
-0.0117611130699515
-0.0128621868789196
-0.0134633062407374
-0.0135544948279857
-0.0131726562976837
-0.0123995076864957
-0.0113506708294153
-0.0101575665175914
-0.0089468313381075
-0.0078217247501015
-0.0068496977910399
-0.0060580689460039
-0.0054369177669286
-0.0049480553716421
-0.0045373835600912
-0.0041463505476713
-0.0037201503291726
-0.0032116430811583
-0.0025834089610725
-0.0018141936743631
-0.0009082144242711
0.0001028002006933
0.0011678307782858
0.0022292458452284
0.0032341077458113
0.0041407560929656
0.0049206977710127
0.0055574933066964
0.00604566372931
0.0063918274827301
0.0066146692261099
0.006741383112967
0.006801719777286
0.0068190759047865
0.0068005053326487
0.006729420274496
0.0065619796514511
0.0062297852709889
0.0056535992771387
0.0047653829678893
0.0035282056778669
0.001948136370629
7.880665361881256e-05
-0.001981264911592
-0.004099354147911
-0.0061256904155015
-0.0079132709652185
-0.0093372296541929
-0.0103117674589157
-0.0108010601252317
-0.0108205545693635
-0.0104309320449829
-0.0097307004034519
-0.0088460464030504
-0.0079127000644803
-0.0070540709421038
-0.0063645597547292
-0.0059003927744925
-0.0056770769879221
-0.0056728823110461
-0.005835544783622
-0.0060909930616617
-0.0063550365157425
-0.0065451497212052
-0.0065890559926629
-0.006431283429265
-0.0060380441136658
-0.0053986366838216
-0.0045248828828334
-0.0034500763285905
-0.0022245498839765
-0.0009070925880223
0.0004435237497091
0.0017748178215697
0.0030456976965069
0.0042292517609894
0.0053123189136385
0.0062935394234955
0.0071809450164437
0.0079890256747603
0.0087327267974615
0.0094159413129091
0.0100202020257711
0.0105010410770773
0.0107916090637445
0.0108116865158081
0.0104833208024501
0.0097510237246751
0.0086007369682192
0.0070726387202739
0.0052628200501203
0.0033105788752436
0.0013756629778072
-0.0003860166762024
-0.0018432646756991
-0.0029044118709862
-0.0035241465084254
-0.0037040032912045
-0.0034892363473773
-0.0029626642353832
-0.0022345450706779
-0.0014264918863773
-0.0006514141568914
2.5799963623285294e-06
0.0004805191420018
0.0007638209499418
0.000869080715347
0.0008407665300182
0.0007402400951832
0.0006359786493703
0.0005951058119535
0.0006751307519152
0.0009186040842905
0.0013512575533241
0.0019817042630165
0.0028009046800434
0.0037800567224621
0.0048706056550145
0.0060099423862993
0.0071296775713562
0.0081642093136906
0.0090601434931159
0.0097838202491402
0.0103233214467763
0.0106855891644954
0.0108909383416175
0.0109643563628196
0.0109229311347007
0.0107629923149943
0.0104540884494781
0.0099444342777132
0.009172243066132
0.0080759031698107
0.0066068214364349
0.0047465479001402
0.0025197132490575
-2.315733581781388e-06
-0.0027060874272137
-0.0054477951489388
-0.0080696567893028
-0.0104176439344882
-0.0123591534793376
-0.0138002075254917
-0.0146982483565807
-0.015064226463437
-0.0149534456431865
-0.0144520038738846
-0.0136653603985905
-0.0127084832638502
-0.0116932792589068
-0.0107134254649281
-0.0098320115357637
-0.00907688960433
-0.00844307243824
-0.0078987944871187
-0.0073941978625953
-0.0068718967959284
-0.0062769213691353
-0.0055643878877162
-0.0047049368731677
-0.0036874441429972
-0.002518345369026
-0.0012183998478576
0.0001798788434825
0.0016322757583111
0.0030844842549413
0.0044776974245905
0.0057563767768442
0.0068773278035223
0.0078169545158743
0.0085730422288179
0.0091616548597812
0.0096105188131332
0.009948756545782
0.0101938126608729
0.0103398477658629
0.0103540066629648
0.0101841893047094
0.0097733009606599
0.0090706413611769
0.0080397212877869
0.0066683911718428
0.0049799778498709
0.0030373274348676
0.0009373519569635
-0.0011996731627732
-0.0032436163164675
-0.0050697918049991
-0.0065736966207623
-0.0076838466338813
-0.0083707720041275
-0.0086489040404558
-0.008571645244956
-0.0082222241908311
-0.007700893562287
-0.0071099363267421
-0.0065406570211052
-0.006064255721867
-0.0057252831757068
-0.0055381152778863
-0.0054886313155293
-0.0055410638451576
-0.0056463908404111
-0.0057494090870022
-0.0057964408770203
-0.005743617657572
-0.0055611440911889
-0.0052333823405206
-0.0047573670744895
-0.0041394592262804
-0.0033920314162969
-0.0025337883271276
-0.0015935376286506
-0.0006130349938757
0.000357485783752
0.0012717538047581
0.0020990595221519
0.0028277887031435
0.0034632452297955
0.0040240832604467
0.0045354506000876
0.0050166579894721
0.0054677263833582
0.0058607887476682
0.0061390912160277
0.0062252953648567
0.0060389228165149
0.0055159768089652
0.0046232235617935
0.0033666142262518
0.001795258722268
1.0187504813075066e-06
-0.0018882171716541
-0.0037238216027617
-0.0053572040051221
-0.0066602397710084
-0.0075418148189783
-0.0079584643244743
-0.0079179713502526
-0.0074762944132089
-0.0067272335290908
-0.0057841381058096
-0.0047594895586371
-0.0037514800205826
-0.0028390355873852
-0.0020782737992703
-0.0014963422436267
-0.0010881009511649
-0.000820058165118
-0.0006390439812093
-0.000483120791614
-0.0002923880238085
-1.641339622437954e-05
0.0003816150128841
0.0009221255313605
0.0016085272654891
0.0024287004489451
0.0033567785285413
0.0043571237474679
0.0053903376683592
0.0064152278937399
0.0073878765106201
0.0082645220682024
0.0090068383142352
0.009586764499545
0.0099917436018586
0.0102276746183633
0.0103167733177542
0.010290440171957
0.0101773142814636
0.0099894078448414
0.0097127007320523
0.0093082087114453
0.0087238121777772
0.0079100802540779
0.006832918152213
0.0054821595549583
0.003878875169903
0.0020801192149519
0.0001765739871188
-0.0017179048154503
-0.0034818067215383
-0.0050025815144181
-0.0061905072070658
-0.006987718399614
-0.00737349037081
-0.0073666665703058
-0.007023143582046
-0.0064278892241418
-0.0056826239451766
-0.0048897103406488
-0.0041377339512109
-0.0034949099645018
-0.0030073206871747
-0.0026961371768265
-0.0025548411067575
-0.0025519216433167
-0.002639221958816
-0.0027598878368735
-0.0028538592159748
-0.0028644665144383
-0.0027474123053252
-0.0024778763763606
-0.0020515443757176
-0.0014810073189437
-0.0007903500227257
-8.914663339965045e-06
0.0008327198447659
0.0017016201745718
0.0025598451029509
0.0033659425098448
0.0040806429460644
0.0046733627095818
0.0051274024881422
0.0054428717121481
0.0056358808651566
0.0057342378422617
0.0057713440619409
0.0057759983465075
0.0057574869133532
0.005695077124983
0.0055396435782313
0.0052250022999942
0.0046831998042762
0.0038597157690674
0.0027269816491752
0.0012948813382536
-0.0003842941951006
-0.0022185607813298
-0.0040871063247323
-0.0058567784726619
-0.0074008768424391
-0.0086179450154304
-0.0094455322250723
-0.0098643489181995
-0.0098955128341913
-0.0095955766737461
-0.0090486202389001
-0.0083535257726907
-0.0076101999729871
-0.0069090039469301
-0.0063218371942639
-0.0058934828266501
-0.0056365146301686
-0.0055326535366475
-0.0055388379842042
-0.0055952304974198
-0.005634591449052
-0.0055913417600095
-0.0054090996272861
-0.0050479448400437
-0.0044893603771924
-0.0037358449772
-0.0028070239350199
-0.0017349859699606
-0.0005611560773104
0.0006643618689849
0.0018856981769204
0.0030487605836242
0.0041083912365138
0.0050319470465183
0.0058000944554805
0.0064064720645546
0.0068576410412788
0.0071719596162438
0.0073761185631155
0.0075002834200859
0.0075705498456954
0.0075981421396136
0.0075708371587097
0.0074525279924273
0.007189673371613
0.0067201750352978
0.0059844409115612
0.0049403491429984
0.0035796593874692
0.0019388284999877
9.88095998764038e-05
-0.0018251643050462
-0.0036986204795539
-0.0053846342489123
-0.0067625972442328
-0.0077453525736927
-0.0082886200398206
-0.0083931488916277
-0.0081021077930927
-0.0074924239888787
-0.0066622495651245
-0.0057197315618395
-0.0047720791772007
-0.0039118435233831
-0.0032037335913628
-0.0026779749896377
-0.0023307539522647
-0.0021288048010319
-0.0020177448168396
-0.0019337949343025
-0.0018151337280869
-0.0016103330999612
-0.0012843259610235
-0.0008216546848416
-0.0002254354767501
0.0004875194281339
0.0012905895709991
0.0021473497617989
0.0030121384188532
0.0038346811197698
0.0045665381476283
0.0051676966249942
0.0056130113080143
0.0058957613073289
0.0060264212079346
0.0060295555740594
0.00594172347337
0.0058075287379324
0.0056708073243498
0.0055637061595916
0.0054973876103758
0.0054575558751821
0.0054054441861808
0.0052812569774687
0.0050121247768402
0.0045281802304089
0.0037826434709131
0.002767703263089
0.0015197930624708
0.0001142409164458
-0.0013456307351589
-0.0027410842012614
-0.0039513567462563
-0.0048689311370253
-0.0054158079437911
-0.0055560222826898
-0.005300186574459
-0.0047011729329824
-0.0038441838696599
-0.0028356215916574
-0.0017896834760904
-0.0008119819685816
1.459335908293724e-05
0.00063899718225
0.0010462880600243
0.0012553879059851
0.0013111867010593
0.001274891430512
0.0012140136677771
0.0011924130376428
0.0012625032104551
0.0014603666495531
0.0018039285205304
0.0022955872118473
0.0029255847912281
0.003670061007142
0.0044888849370181
0.0053316429257392
0.0061482335440814
0.0068963868543505
0.0075449189171195
0.008074453100562
0.0084771979600191
0.0087568676099181
0.0089272316545248
0.009009301662445
0.0090279793366789
0.0090048853307962
0.0089470846578478
0.0088381990790367
0.0086356112733483
0.0082722147926688
0.0076654055155813
0.0067369071766734
0.005436663981527
0.0037607338745146
0.0017592017538845
-0.0004671611823141
-0.0027809825260192
-0.0050288429483771
-0.0070632062852382
-0.0087615903466939
-0.0100394785404205
-0.0108570680022239
-0.0112206144258379
-0.0111767379567027
-0.0108032412827014
-0.0102016916498541
-0.009487553499639
-0.0087729720398783
-0.0081478133797645
-0.0076673380099236
-0.0073486864566802
-0.0071741011925041
-0.0070984815247356
-0.007059515453875
-0.0069890818558633
-0.0068241832777857
-0.0065157553181052
-0.0060341828502714
-0.0053708991035819
-0.0045356811024248
-0.0035519178491085
-0.0024549036752432
-0.0012917576823383
-0.0001176112491521
0.0010119210928678
0.0020489706657826
0.0029589184559881
0.00372228724882
0.0043348390609025
0.0048062987625598
0.0051586520858109
0.0054240119643509
0.0056389169767498
0.0058346232399344
0.0060265660285949
0.0062060048803687
0.0063355481252074
0.006350518669933
0.0061690770089626
0.0057102320715785
0.0049143410287797
0.0037608630955219
0.0022786541376262
0.000544739421457
-0.001327532576397
-0.003205029759556
-0.0049514840357005
-0.0064433068037033
-0.007583824917674
-0.0083139576017856
-0.0086171617731451
-0.0085179768502712
-0.0080776577815413
-0.007388848811388
-0.006564388051629
-0.0057193478569388
-0.0049536959268152
-0.0043401950970292
-0.0039165732450783
-0.0036819633096456
-0.0036008623428642
-0.0036149900406599
-0.0036570474039763
-0.0036616947036236
-0.0035743033513426
-0.0033570583909749
-0.0029905983246862
-0.0024722856469452
-0.0018141479231417
-0.001042197458446
-0.0001956509659066
0.0006768018938601
0.0015240730717778
0.0023005681578069
0.0029709516093134
0.0035104090347886
0.0039044122677296
0.0041503617540001
0.0042582214809954
0.0042482740245759
0.0041467528790235
0.0039787250570952
0.0037580709904432
0.003480517771095
0.0031241946853697
0.0026531843468546
0.0020224312320351
0.0011883766856044
0.0001233604270964
-0.0011730871628969
-0.0026682540774345
-0.0042942776344716
-0.0059507861733436
-0.007514112163335
-0.008853131905198
-0.0098487641662359
-0.0104119582101702
-0.010495901107788
-0.0101008526980876
-0.0092701166868209
-0.0080805476754903
-0.0066347285173833
-0.0050517334602773
-0.0034506786614656
-0.001932693645358
-0.0005690259858965
0.0006035864353179
0.001582080963999
0.0023927697911858
0.003084423020482
0.003718890948221
0.0043606045655906
0.005066504701972
0.00587759912014
0.0068138507194817
0.0078725963830947
0.0090280836448073
0.0102321738377213
0.0114207360893487
0.0125257428735494
0.0134855974465608
0.0142501983791589
0.0147844534367322
0.015071740373969
0.0151153644546866
0.0149377044290304
0.0145761705935001
0.0140737453475594
0.0134663954377174
0.0127725005149841
0.0119875939562916
0.0110876448452472
0.0100385528057813
0.0088038984686136
0.0073529258370399
0.0056756138801574
0.0037970729172229
0.0017788491677492
-0.0002910507610067
-0.0023104958236217
-0.0041747228242456
-0.0057877874933183
-0.0070737646892666
-0.0079864021390676
-0.0085155768319964
-0.0086883893236517
-0.0085631720721721
-0.0082177594304084
-0.0077376794070005
-0.0072080316022038
-0.0067062778398394
-0.0062938574701547
-0.0060087768360972
-0.0058608348481357
-0.005830833222717
-0.0058744400739669
-0.0059301275759935
-0.0059308987110853
-0.0058162566274404
-0.0055404757149517
-0.0050777769647538
-0.0044244532473385
-0.0035969000309705
-0.0026265154592692
-0.0015549769159406
-0.0004331557720433
0.0006803923170082
0.0017273030243813
0.0026592221111059
0.0034412057138979
0.0040486846119165
0.0044617373496294
0.0046581402420997
0.0046092933043837
0.0042833113111555
0.003652679733932
0.0027020915877074
0.0014363694936037
-0.0001101526431739
-0.0018661519279703
-0.003726300317794
-0.005566724576056
-0.0072639537975192
-0.0087093506008386
-0.0098179746419191
-0.0105338916182518
-0.0108333239331841
-0.0107253743335604
-0.0102505506947636
-0.0094778640195727
-0.0084988661110401
-0.0074169421568512
-0.0063335667364299
-0.0053351558744907
-0.0044829146936535
-0.0038057058118283
-0.00329882488586
-0.0029327466618269
-0.0026663308963179
-0.002456123009324
-0.0022609652951359
-0.0020440127700567
-0.0017751234117895
-0.0014343406073749
-0.0010131483431905
-0.0005137478001415
5.212775431573391e-05
0.0006670735310763
0.0013141639064997
0.0019795219413936
0.0026493673212826
0.0033063532318919
0.0039249621331691
0.0044635799713432
0.0048600700683891
0.0050381510518491
0.0049220919609069
0.0044530718587338
0.0036031231284141
0.0023840239737182
0.0008495128713548
-0.0009079687297344
-0.0027650529518723
-0.0045808120630681
-0.0062141823582351
-0.0075403442606329
-0.0084622530266642
-0.0089178420603275
-0.0088851163163781
-0.0083840321749448
-0.0074734180234372
-0.0062444414943456
-0.0048106219619512
-0.0032933847978711
-0.0018064714968204
-0.0004433738067746
0.0007309317588806
0.0016837050206959
0.0024142749607563
0.0029505509883165
0.0033414694480597
0.0036471411585807
0.0039302320219576
0.0042489212937653
0.0046492218971252
0.005156512837857
0.0057717114686965
0.006476467475295
0.0072419894859194
0.0080342851579189
0.0088171390816569
0.009556951932609
0.0102271046489477
0.0108055491000413
0.0112651214003562
0.0115646077319979
0.011647461913526
0.0114473337307572
0.0108990902081131
0.0099545791745185
0.0085969064384698
0.0068481569178402
0.0047718165442347
0.0024710104335099
8.194753900170326e-05
-0.0022372971288859
-0.0043226303532719
-0.006023412104696
-0.0072214622050523
-0.0078444741666316
-0.0078719407320022
-0.0073353075422346
-0.0063131041824817
-0.004920435603708
-0.0032938178628683
-0.0015736655332148
0.0001118802465498
0.0016582384705543
0.0029908814467489
0.0040689292363822
0.0048859287053346
0.0054668490774929
0.0058610644191503
0.0061318008229136
0.0063439551740884
0.0065541276708245
0.0068055251613259
0.0071264351718127
0.0075287539511919
0.0080066379159688
0.0085390554741024
0.0090962760150432
0.0096462564542889
0.0101577965542674
0.0105990823358297
0.0109328068792819
0.0111115053296089
0.0110751334577798
0.0107510555535554
0.0100583555176854
0.0089189456775784
0.0072748400270938
0.0051064705476164
0.0024456488899886
-0.0006200700299814
-0.0039511849172413
-0.00736696831882
-0.0106643494218587
-0.0136438999325037
-0.0161349885165691
-0.0180133432149887
-0.0192097797989845
-0.0197112746536731
-0.019556863233447
-0.0188294295221567
-0.0176437273621559
-0.0161329358816146
-0.0144350929185748
-0.0126790665090084
-0.0109713152050971
-0.0093861278146505
-0.0079608615487813
-0.006696552503854
-0.0055629503913223
-0.0045074480585753
-0.0034680289682
-0.0023868835996836
-0.0012203820515424
5.559180863201618e-05
0.0014447143767029
0.0029327210504561
0.0044916560873389
0.0060846330597996
0.0076695661991834
0.0092025557532906
0.0106438649818301
0.0119638917967677
0.0131429973989725
0.0141661707311868
0.0150156300514936
0.0156598482280969
0.0160424169152975
0.0160800945013761
0.0156740695238113
0.0147313419729471
0.0131903160363435
0.0110424663871526
0.0083430297672748
0.0052099581807851
0.0018145649228245
-0.0016349420184269
-0.0049171517603099
-0.0078242179006338
-0.0101855471730232
-0.0118847396224737
-0.0128688216209411
-0.0131516056135296
-0.0128108486533164
-0.0119753247126936
-0.010804483667016
-0.0094677060842514
-0.0081247705966234
-0.0069077163934707
-0.0059061925858259
-0.0051587265916168
-0.0046527949161827
-0.0043344399891793
-0.0041239317506551
-0.0039319768548011
-0.003672843798995
-0.0032742016483098
-0.0026843368541449
-0.0018772161565721
-0.0008557891706004
0.0003488137735985
0.0016844801139086
0.0030889925546944
0.0045006610453128
0.0058666812255978
0.0071471976116299
0.0083148321136832
0.0093522919341921
0.0102495113387703
0.0109979836270213
0.0115811321884393
0.0119654834270477
0.0120984762907028
0.0119152842089533
0.0113511877134442
0.0103536425158381
0.0088949911296367
0.006987614557147
0.0046957260929048
0.0021370789036154
-0.0005273269489407
-0.003112252568826
-0.005430213175714
-0.0073136198334395
-0.0086359679698944
-0.0093283262103796
-0.0093866176903247
-0.0088676353916525
-0.0078751975670456
-0.006542376242578
-0.005016918759793
-0.0034493673592805
-0.0019776746630668
-0.0007104948163032
0.0002834103070199
0.0009798491373658
0.0013994020409882
0.0016001416370272
0.001663280185312
0.0016768989153206
0.0017222799360752
0.0018646386452019
0.0021475981920957
0.0025901901535689
0.0031875129789114
0.0039161648601293
0.0047399112954735
0.0056105554103851
0.00646897777915
0.0072535788640379
0.0079117408022284
0.0084056807681918
0.0087125664576888
0.0088228126987814
0.0087369671091437
0.0084593631327152
0.0079888012260198
0.007310427725315
0.0063941311091184
0.0052015585824847
0.0036995923146605
0.0018755868077278
-0.0002508573234081
-0.002623239532113
-0.0051499344408512
-0.0077098477631807
-0.0101624429225921
-0.012362920679152
-0.0141793508082628
-0.0155073730275034
-0.0162815283983945
-0.0164844840764999
-0.0161519758403301
-0.015368546359241
-0.0142543707042932
-0.0129484571516513
-0.0115900356322526
-0.010299420915544
-0.0091650020331144
-0.008240464143455
-0.0075471173040568
-0.0070751868188381
-0.0067853480577468
-0.0066140601411461
-0.0064827287569642
-0.0063091572374105
-0.0060188672505319
-0.005554667674005
-0.0048844092525541
-0.0040049185045063
-0.0029394142329692
-0.0017304141074419
-0.0004327232018113
0.0008934447541832
0.0021903803572058
0.0034086648374795
0.0045098783448338
0.0054691918194293
0.0062771989032626
0.0069375485181808
0.0074593191966414
0.0078467475250363
0.0080899214372038
0.0081593682989478
0.0080084884539246
0.0075847012922167
0.0068435091525316
0.0057597206905484
0.0043358923867344
0.0026104394346475
0.0006618555635213
-0.0013975789770483
-0.0034365560859441
-0.0053204367868602
-0.0069252965040504
-0.0081515908241271
-0.0089366352185606
-0.0092625692486763
-0.0091577805578708
-0.008692318573594
-0.0079677244648337
-0.0071022608317434
-0.0062156352214515
-0.0054155592806637
-0.0047838571481406
-0.0043640355579555
-0.0041590956971049
-0.0041411202400922
-0.004262460861355
-0.0044623222202062
-0.0046720709651708
-0.0048223752528429
-0.0048511521890759
-0.0047101625241339
-0.0043692816980183
-0.0038190190680325
-0.0030717107001692
-0.0021596068982034
-0.001128748524934
-3.1602103263139725e-05
0.0010794196277856
0.0021589412353932
0.0031731631606817
0.0040969015099108
0.004908803384751
0.0055929096415638
0.0061428868211805
0.0065610073506832
0.0068495287559926
0.0069995280355215
0.006986279040575
0.0067741116508841
0.0063261995092034
0.0056149968877434
0.0046307891607284
0.0033888192847371
0.0019376897253096
0.0003639692440629
-0.0012159084435552
-0.0026746953371912
-0.0038955002091825
-0.0047876830212771
-0.0052945846691727
-0.0053964108228683
-0.0051107453182339
-0.0044899093918502
-0.0036147856153547
-0.002583889523521
-0.0014993633376434
-0.0004552031168714
0.00047038635239
0.0012202011421322
0.0017632623203098
0.0020999619737267
0.0022605475969612
0.0022933394648134
0.0022505025845021
0.0021800452377647
0.0021240476053208
0.0021166801452636
0.0021788268350064
0.0023145508021116
0.0025132314767688
0.0027544249314814
0.0030123444739729
0.0032599451951682
0.0034731668420135
0.0036344036925584
0.0037349271588027
0.0037760604172945
0.0037656484637409
0.0037102019414305
0.0036099385470151
0.0034579762723296
0.0032383375801146
0.0029234362300485
0.0024762144312262
0.0018578690942376
0.0010379061568528
2.0167790353298187e-06
-0.0012435299577191
-0.0026676433626562
-0.0042110737413167
-0.005789453163743
-0.0073029124177992
-0.0086472630500793
-0.0097254104912281
-0.0104613071307539
-0.0108120962977409
-0.0107707688584923
-0.0103612802922725
-0.0096339061856269
-0.0086616389453411
-0.0075330007821321
-0.0063412589952349
-0.0051737525500357
-0.0041027162224054
-0.0031783108133822
-0.0024257586337625
-0.0018459169659763
-0.0014160450082272
-0.0010906853713095
-0.0008074464276432
-0.0005005835555493
-0.0001160167157649
0.000380640849471
0.0010022553615272
0.0017407624982297
0.0025712153874337
0.0034591474104672
0.0043673887848854
0.0052604479715228
0.006106830202043
0.0068803867325186
0.0075629018247127
0.0081464936956763
0.0086329998448491
0.0090321823954582
0.0093569681048393
0.0096119511872529
0.0097827892750501
0.0098359733819961
0.0097260363399982
0.0094036171212792
0.0088246343657374
0.0079622566699981
0.0068181501701474
0.0054290145635604
0.0038675158284604
0.0022356060799211
0.0006498591974377
-0.0007749246433377
-0.0019376394338905
-0.0027585048228502
-0.0031873022671788
-0.0032140407711267
-0.0028749094344675
-0.0022474662400782
-0.0014374367892742
-0.00056221941486
0.0002644481137394
0.0009453541133552
0.0014105120208114
0.0016237322706729
0.0015837512910366
0.0013209395110607
0.000890739262104
0.0003644097596406
-0.0001810167450457
-0.0006708123255521
-0.0010390570387244
-0.0012356615625321
-0.0012329458259046
-0.0010280907154083
-0.0006398642435669
-0.0001023733057081
0.0005418541841208
0.0012477783020585
0.0019702767021954
0.0026661553420126
0.0032991403713822
0.0038434313610196
0.0042838561348617
0.0046153580769896
0.00483950227499
0.0049561755731701
0.0049550458788871
0.0048111146315932
0.0044868336990475
0.0039421850815415
0.0031495611183345
0.0021072644740343
0.0008474276401102
-0.0005628539947792
-0.0020274745766073
-0.003434139303863
-0.0046708080917596
-0.0056404126808047
-0.0062711965292692
-0.0065232156775891
-0.0063914135098457
-0.0059054773300886
-0.0051273345015943
-0.004145860671997
-0.0030672231223434
-0.0020009179133921
-0.0010444284416735
-0.0002716542221605
0.0002730372361838
0.0005784139502793
0.0006672563031315
0.0005899183452129
0.0004120727535337
0.0002037328667938
3.154226578772068e-05
-4.933052696287632e-05
-2.3243483155965805e-06
0.0001889204140752
0.0005220398306846
0.0009770195465534
0.0015194937586784
0.0021073373500257
0.0026971090119332
0.0032494910992681
0.003735079197213
0.0041378596797585
0.0044525079429149
0.0046769282780587
0.0048040812835097
0.0048146792687475
0.00467299669981
0.0043306583538651
0.003739058971405
0.0028640069067478
0.0016951285069808
0.0002484542201273
-0.0014323006616905
-0.0032728998921811
-0.0051697087474167
-0.0069993771612644
-0.0086354976519942
-0.0099667226895689
-0.010910908691585
-0.0114243803545832
-0.0115064997225999
-0.0111982496455311
-0.010574884712696
-0.0097336871549487
-0.0087785394862294
-0.0078047825954854
-0.0068886284716427
-0.0060835098847746
-0.0054204342886805
-0.0049074683338403
-0.0045286496169865
-0.0042458670213818
-0.0040054968558251
-0.0037484792992472
-0.0034200008958578
-0.0029764673672616
-0.0023900386877357
-0.0016508931294083
-0.0007666531018912
0.000240996479988
0.001341363415122
0.002500528935343
0.0036860851105302
0.0048671206459403
0.0060101826675236
0.0070772818289697
0.0080262785777449
0.008809832856059
0.0093751801177859
0.0096674039959907
0.0096338801085948
0.0092300232499837
0.0084293270483613
0.0072352271527051
0.0056886645033955
0.0038694753311574
0.0018922206945717
-0.0001043519005179
-0.001974316779524
-0.0035840696655213
-0.0048283571377396
-0.0056405263021588
-0.0059978924691677
-0.0059229428879916
-0.0054798210039734
-0.0047643999569118
-0.0038891616277396
-0.0029677315615117
-0.0021021300926804
-0.0013727531768381
-0.0008299611508846
-0.0004879077896475
-0.0003245947882533
-0.000289665069431
-0.000316955614835
-0.0003387494944036
-0.0002977587282657
-0.0001530274748802
0.000118963420391
0.00052435323596
0.0010531162843108
0.001682661473751
0.0023817885667085
0.0031142611987888
0.0038433917798101
0.0045364913530647
0.005168130621314
0.0057218386791646
0.0061877095140516
0.0065544946119189
0.0067987940274178
0.0068765860050916
0.0067233508452773
0.0062662572599947
0.0054440102539956
0.004226041957736
0.0026271268725395
0.0007155355997383
-0.0013895183801651
-0.0035324855707585
-0.0055424459278583
-0.0072536179795861
-0.0085244253277778
-0.0092563424259424
-0.0094079114496707
-0.0089983716607093
-0.0081025818362832
-0.0068401107564568
-0.0053588170558214
-0.0038147252053022
-0.0023506097495555
-0.0010774480178952
-6.357021629810333e-05
0.0006681811064481
0.0011364696547389
0.0013921409845352
0.0015087444335222
0.0015748171135783
0.0016821180470287
0.0019098217599093
0.0023146206513047
0.0029284209012985
0.0037552462890744
0.0047673904336988
0.0059085767716169
0.0071053141728043
0.0082808528095483
0.0093669444322586
0.0103119723498821
0.0110842892900109
0.0116672152653336
0.0120463296771049
0.0121977915987372
0.0120835183188319
0.0116516500711441
0.0108426008373498
0.0096040461212396
0.0079123033210635
0.0057889842428267
0.0033056398387998
0.0005795350298285
-0.0022363760508596
-0.0049693458713591
-0.0074463663622736
-0.0095131611451506
-0.0110506163910031
-0.0119885820895433
-0.0123146949335932
-0.01207553781569
-0.0113689173012971
-0.0103264693170785
-0.0090910494327545
-0.0077962563373148
-0.006551100872457
-0.0054312241263687
-0.0044768722727894
-0.0036947014741599
-0.0030624661594629
-0.0025365869514644
-0.0020596552640199
-0.0015680058859288
-0.0010018339380621
-0.0003150110132992
0.0005190065130591
0.0015044496394693
0.002623594366014
0.0038406946696341
0.0051076430827379
0.0063716904260218
0.0075853895395994
0.0087122786790132
0.0097255827859044
0.0106057133525609
0.0113374274224042
0.0119031416252255
0.0122744422405958
0.0124068045988678
0.0122398901730775
0.0117031661793589
0.0107280751690268
0.0092673655599355
0.0073154908604919
0.0049222786910831
0.0021956439595669
-0.0007068371050991
-0.0035949673037976
