bvp
-0.0068386425264179
-0.0081040421500802
-0.0086591709405183
-0.00847670994699
-0.0075955372303724
-0.006115399301052
-0.0041863173246383
-0.001992349512875
0.0002719704061746
0.002429274842143
0.0043433932587504
0.0059340661391615
0.0071797808632254
0.0081115067005157
0.0088029904291033
0.0093586081638932
0.0098967943340539
0.0105301551520824
0.0113486098125576
0.0124101042747497
0.0137360980734229
0.0153106693178415
0.0170850716531276
0.0189861841499805
0.0209271404892206
0.0228189844638109
0.0245807319879531
0.0261465590447187
0.0274694990366697
0.0285219550132751
0.0292953886091709
0.0297980941832065
0.0300459433346986
0.0300458315759897
0.0297804214060306
0.0292037762701511
0.028249068185687
0.0268445089459419
0.0249333586543798
0.0224941559135913
0.0195579808205366
0.0162178799510002
0.0126257259398698
0.0089765675365924
0.0054852399043738
0.0023604473099112
-0.0002198982983827
-0.0021289717406034
-0.0033041946589946
-0.00375163462013
-0.0035422192886471
-0.0028011985123157
-0.0016928589902818
-0.000402501784265
0.0008857417851686
0.0020140376873314
0.002870209980756
0.0033972836099565
0.0035952578764408
0.0035150523763149
0.0032461956143379
0.0029013187158852
0.002598124789074
0.0024404795840382
0.0025031371042132
0.0028246161527931
0.0034081833437085
0.0042266543023288
0.0052291704341769
0.0063503980636596
0.0075194737873971
0.0086666457355022
0.0097290854901075
0.0106563521549105
0.0114143956452608
0.0119869848713278
0.0123746255412697
0.0125916795805096
0.0126593522727489
0.0125928241759538
0.0123867057263851
0.0120049780234694
0.0113803129643201
0.0104252463206648
0.0090531101450324
0.0072030117735266
0.0048617273569107
0.002076412551105
-0.0010446719825267
-0.0043428288772702
-0.0076275113970041
-0.0106978937983512
-0.0133640170097351
-0.0154673233628273
-0.0169004276394844
-0.0176218003034591
-0.0176606904715299
-0.0171114653348922
-0.0161189977079629
-0.0148577224463224
-0.0135070029646158
-0.0122277485206723
-0.0111465398222208
-0.0103479856625199
-0.0098706167191267
-0.0097044873982667
-0.0097942417487502
-0.0100504104048013
-0.0103657701984047
-0.0106310714036226
-0.010748641565442
-0.0106452982872724
-0.0102815143764019
-0.0096532683819532
-0.0087883854284882
-0.0077392878010869
-0.0065734502859413
-0.0053647151216864
-0.0041861003264784
-0.0031025065109133
-0.0021642008796334
-0.0014022076502442
-0.0008260868489742
-0.0004263222217559
-0.0001820493489503
-7.235538214445114e-05
-8.916016668081284e-05
-0.0002487078309059
-0.000597002916038
-0.0012049507349729
-0.0021519493311643
-0.003500853665173
-0.0052721034735441
-0.0074279070831835
-0.0098716150969266
-0.0124578094109892
-0.0150082092732191
-0.0173317044973373
-0.0192464888095855
-0.0206014588475227
-0.0212941989302635
-0.0212837122380733
-0.0205954778939485
-0.0193164236843585
-0.017581345513463
-0.0155556444078683
-0.0134169701486825
-0.0113344695419073
-0.0094469059258699
-0.0078463498502969
-0.0065725203603506
-0.0056153465993702
-0.0049221953377127
-0.0044088903814554
-0.0039731292054057
-0.0035105166025459
-0.0029316945001482
-0.0021746698766946
-0.0012097751023247
-3.8613477954640985e-05
0.0013103091623634
0.0027865217998623
0.0043247127905488
0.0058560743927955
0.007319797296077
0.0086690913885831
0.0098716616630554
0.0109081231057643
0.0117703340947628
0.0124605512246489
0.0129900854080915
0.0133723709732294
0.0136090535670518
0.0136758647859096
0.0135174859315156
0.0130568901076912
0.012216112576425
0.010939197614789
0.0092117600142955
0.0070750978775322
0.0046308473683893
0.0020320634357631
-0.0005379780195653
-0.0028900662437081
-0.0048490711487829
-0.0062714740633964
-0.0070621385239064
-0.0071868267841637
-0.0066764177754521
-0.0056211585178971
-0.004157050512731
-0.0024487953633069
-0.0006704644765704
0.0010157811921089
0.0024784212000668
0.0036290963180363
0.0044280216097831
0.0048825019039213
0.0050406605005264
0.0049813450314104
0.0048000584356486
0.0045931241475045
0.004443721845746
0.0044132587499916
0.004538741428405
0.0048329588025808
0.0052854362875223
0.0058664865791797
0.0065350141376256
0.0072453189641237
0.0079512391239404
0.0086106257513165
0.0091900555416941
0.0096673546358942
0.0100317159667611
0.0102826999500393
0.0104286260902881
0.0104826977476477
0.010453981347382
0.0103349154815077
0.0100927986204624
0.0096708377823233
0.0089988084509968
0.0080088125541806
0.0066513894125819
0.0049120881594717
0.0028261207044124
0.0004830041434615
-0.0019809999503195
-0.0043984786607325
-0.0065913810394704
-0.0083937207236886
-0.0096725095063447
-0.0103435553610324
-0.0103809460997581
-0.0098189562559127
-0.0087455213069915
-0.007289788685739
-0.0056056804023683
-0.0038527525030076
-0.0021773749031126
-0.0006964282365515
0.0005142366280779
0.0014251726679503
0.002052575815469
0.0024498647544533
0.0026935054920613
0.0028696989174932
0.0030637080781161
0.0033487784676253
0.0037759223487228
0.0043685277923941
0.0051231244578957
0.0060146292671561
0.0070022232830524
0.0080337338149547
0.0090497257187962
0.0099891386926174
0.0107961185276508
0.0114258043467998
0.0118481591343879
0.0120496526360511
0.0120312739163637
0.011803375557065
0.0113809406757354
0.0107786450535058
0.0100013967603445
0.0090330354869365
0.0078320950269699
0.0063389325514435
0.0044916877523064
0.0022458788007497
-0.000406795181334
-0.0034242430701851
-0.0067095942795276
-0.0101181287318468
-0.0134711805731058
-0.0165757164359092
-0.0192498583346605
-0.0213486235588789
-0.0227830000221729
-0.0235291440039873
-0.023627433925867
-0.0231733601540327
-0.0223032124340534
-0.0211772993206977
-0.019960818812251
-0.0188022293150424
-0.0178136248141527
-0.0170587804168462
-0.0165514163672924
-0.0162609983235597
-0.016120322048664
-0.016036506742239
-0.0159082002937793
-0.015641413629055
-0.0151575366035103
-0.0143967634066939
-0.0133212255313992
-0.011918107047677
-0.0102009661495685
-0.008208711631596
-0.0060022170655429
-0.0036577531136572
-0.0012586703523993
0.0011121487477794
0.0033781817182898
0.005474024452269
0.0073492261581122
0.0089690051972866
0.0103118885308504
0.0113663375377655
0.0121246203780174
0.0125744100660085
0.0126932077109813
0.0124483769759535
0.0118039678782224
0.010735223069787
0.0092462645843625
0.0073834350332617
0.0052407346665859
0.0029566448647528
0.0007008737884461
-0.0013482600916177
-0.0030289143323898
-0.0042159087024629
-0.0048347581177949
-0.004869591910392
-0.0043632606975734
-0.0034097428433597
-0.0021413685753941
-0.0007134876213967
0.0007135341875255
0.0019946657121181
0.0030178506858646
0.003714699530974
0.0040641026571393
0.0040903305634856
0.0038570493925362
0.0034562395885586
0.0029926532879471
0.002568079624325
0.0022683530114591
0.0021548974327743
0.0022618807852268
0.0025976193137466
0.0031476183794438
0.0038777869194746
0.004738928284496
0.0056733628734946
0.0066218534484505
0.007529660128057
0.0083521381020545
0.0090590277686715
0.0096353720873594
0.0100794527679681
0.0104006305336952
0.0106155239045619
0.0107384612783789
0.010768000036478
0.010676497593522
0.0104096690192818
0.0098969489336013
0.0090679954737424
0.0078716799616813
0.0062934220768511
0.0043660192750394
0.0021727802231907
-0.0001582719851285
-0.0024702425580471
-0.0045973435044288
-0.0063820369541645
-0.0076899868436157
-0.0084258485585451
-0.0085481945425271
-0.0080774053931236
-0.0070923613384366
-0.0057185841724276
-0.0041119270026683
-0.0024378071539103
-0.0008467053994536
0.0005463613197207
0.001670375932008
0.0024975214619189
0.0030396995134651
0.0033425027504563
0.0034761223942041
0.003524956991896
0.0035760758910328
0.0037070182152092
0.0039740186184644
0.0044035143218934
0.0049915383569896
0.0057096611708402
0.006511743646115
0.0073401946574449
0.0081332689151167
0.0088329296559095
0.0093914503231644
0.0097759515047073
0.0099708409979939
0.0099771162495017
0.0098086018115282
0.0094872824847698
0.0090377535670995
0.0084779262542724
0.0078056026250123
0.0069883521646261
0.0059668188914656
0.0046720090322196
0.0030475731473416
0.0010689739137887
-0.0012437494006007
-0.0038209094200283
-0.006547640543431
-0.009277805685997
-0.0118519216775894
-0.014114448800683
-0.0159309841692447
-0.0172036029398441
-0.0178803205490112
-0.0179600454866886
-0.0174943841993808
-0.0165830869227647
-0.0153616974130272
-0.0139824654906988
-0.0125915929675102
-0.0113093145191669
-0.0102174589410424
-0.0093545308336615
-0.0087165981531143
-0.0082623697817325
-0.0079219061881303
-0.0076088961213827
-0.0072358343750238
-0.0067280791699886
-0.0060322429053485
-0.0051204808987677
-0.0039938502013683
-0.0026829843409359
-0.0012431116774678
0.0002564063761383
0.0017445321427658
0.0031590973958373
0.0044539058580994
0.005601093173027
0.0065886178053915
0.0074164946563541
0.0080936159938573
0.0086340764537453
0.0090527962893247
0.0093592954799532
0.0095493011176586
0.0095975948497653
0.0094554964452981
0.0090560466051101
0.0083291735500097
0.0072233546525239
0.0057254638522863
0.0038720020093023
0.0017496857326477
-0.0005131697980687
-0.0027613702695816
-0.0048305494710803
-0.0065672555938363
-0.0078498013317585
-0.0086042657494544
-0.0088115949183702
-0.0085062338039278
-0.0077693434432148
-0.0067199734039604
-0.005503243766725
-0.0042717321775853
-0.0031627104617655
-0.0022796548437327
-0.0016816320130601
-0.0013794315746054
-0.0013381423195824
-0.0014862179523333
-0.0017313703428953
-0.0019794309046119
-0.0021474023815244
-0.0021689860150218
-0.0019969849381595
-0.0016048017423599
-0.0009888629429042
-0.0001705519389361
0.0008069681935012
0.0018869475461542
0.0030088718049228
0.0041169505566358
0.0051650670357048
0.0061184018850326
0.0069537623785436
0.0076605044305324
0.0082418853417038
0.0087135834619402
0.0090961251407861
0.0094024538993835
0.0096253622323274
0.0097299227491021
0.0096546383574604
0.0093215126544237
0.0086530642583966
0.0075930277816951
0.006125692743808
0.0042883581481873
0.0021724952384829
-8.669920498505235e-05
-0.0023282885085791
-0.0043865870684385
-0.0061119017191231
-0.0073884902521967
-0.0081467246636748
-0.0083675375208258
-0.0080812219530344
-0.0073627973906695
-0.0063225538469851
-0.0050915731117129
-0.003805587766692
-0.0025894292630255
-0.0015426960308104
-0.0007291863439604
-0.0001722212764434
0.0001445947564207
0.0002700021432247
0.0002720253542065
0.0002255071449326
0.00020292706904
0.0002667579101398
0.0004622927226591
0.0008118603145703
0.0013136910274624
0.0019449058454483
0.0026642901357263
0.0034156362526118
0.0041355742141604
0.0047653596848249
0.0052628382109105
0.0056130397133529
0.0058372383937239
0.0059972172603011
0.0061903037130832
0.0065334080718457
0.0071378070861101
0.008079913444817
0.0093739982694387
0.0109531134366989
0.0126662952825427
0.0142949037253856
0.0155821461230516
0.0162707790732383
0.0161454528570175
0.0150710493326187
0.0130187887698411
0.0100769912824034
0.0064449501223862
0.0024085640907287
-0.0016990671865642
-0.0055436138063669
-0.0088336365297436
-0.0113559160381555
-0.0129974391311407
-0.0137528795748949
-0.0137170478701591
-0.0130647532641887
-0.0120230317115783
-0.0108382552862167
-0.0097417281940579
-0.0089194839820265
-0.00849025323987
-0.0084949498996138
-0.0088989250361919
-0.009604251012206
-0.0104696014896035
-0.0113348243758082
-0.0120447101071476
-0.012468677945435
-0.012515565380454
-0.0121418666094541
-0.0113531211391091
-0.0102001512423157
-0.008771251887083
-0.0071800164878368
-0.0055483784526586
-0.003987924195826
-0.0025851021055132
-0.0013930471614003
-0.0004297527484595
0.0003185220994055
0.000889366492629
0.0013333074748516
0.0017032851465046
0.0020447638817131
0.0023843320086598
0.0027193278074264
0.0030136439017951
0.0032013040035963
0.0031963158398866
0.0029084086418151
0.0022639282979071
0.0012264833785593
-0.0001896489411592
-0.0019172737374901
-0.0038446700200438
-0.0058296164497733
-0.0077151218429207
-0.009347079321742
-0.0105936666950583
-0.0113628096878528
-0.01161306258291
-0.0113568995147943
-0.0106566660106182
-0.0096127316355705
-0.0083482498303055
-0.0069945901632308
-0.0056750364601612
-0.0044873757287859
-0.0034911436960101
-0.0027029011398553
-0.0020998897962272
-0.0016302713192999
-0.001226358115673
-0.0008178395219147
-0.0003433788660913
0.0002411913592368
0.0009594173170626
0.001813888316974
0.0027876589447259
0.0038481703959405
0.0049516353756189
0.0060463892295956
0.0070784511044621
0.0080000832676887
0.0087771834805607
0.009392149746418
0.0098424302414059
0.0101367561146616
0.0102913118898868
0.0103286951780319
0.0102787930518388
0.0101744290441274
0.0100382827222347
0.0098688788712024
0.0096356896683573
0.0092836059629917
0.0087416563183069
0.0079361200332641
0.0068090287968516
0.005337493494153
0.0035476167686283
0.001517936354503
-0.0006284832488745
-0.002740059280768
-0.0046580992639064
-0.0062396824359893
-0.007376261986792
-0.0080050863325595
-0.0081140911206603
-0.0077410279773175
-0.0069658756256103
-0.005898424424231
-0.0046654855832457
-0.0033975383266806
-0.0022138124331831
-0.0012084660120308
-0.000439912546426
7.472652941942215e-05
0.0003577014431357
0.0004619206301867
0.0004592621698975
0.0004296042025089
0.0004490772262215
0.0005749086849391
0.0008330182172358
0.0012164418585598
0.0016930410638451
0.0022147418931126
0.0027238659095019
0.0031602170784026
0.0034729200415313
0.0036318069323897
0.0036313883028924
0.0034890649840235
0.0032424423843622
0.0029452794697135
0.0026591680943965
0.0024423724971711
0.0023411652073264
0.0023863394744694
0.0025911142583936
0.0029464261606335
0.0034154900349676
0.0039304159581661
0.0043935310095548
0.0046887304633855
0.0047043343074619
0.0043596182949841
0.0036245903465896
0.0025290322955697
0.0011610684450715
-0.0003454517573118
-0.0018329855520278
-0.0031447266228497
-0.0041454825550317
-0.0047375718131661
-0.0048712976276874
-0.0045490814372897
-0.0038228712510317
-0.002785924822092
-0.0015600977931171
-0.0002790419384837
0.0009307193104177
0.0019671134650707
0.0027638357132673
0.0032943584956228
0.0035708753857761
0.0036375641357153
0.0035576503723859
0.0033998354338109
0.0032286061905324
0.0030973695684224
0.0030443388968706
0.0030926456674933
0.0032521272078156
0.0035188873298466
0.0038740842137485
0.0042862962000072
0.004717324860394
0.0051280446350574
0.0054826214909553
0.0057513015344738
0.0059131858870387
0.0059593613259494
0.0058946595527231
0.0057375524193048
0.0055184299126267
0.0052750608883798
0.0050444803200662
0.0048537962138652
0.0047128293663263
0.0046063438057899
0.0044856695458292
0.0042698406614363
0.0038629930932074
0.0031789895147085
0.0021620490588247
0.0008013204205781
-0.0008613527752459
-0.002734059235081
-0.0046878415159881
-0.0065758810378611
-0.0082551324740052
-0.0096061024814844
-0.0105468239635229
-0.011039812117815
-0.0110915135592222
-0.0107471821829676
-0.0100854439660906
-0.0092106163501739
-0.0082399733364582
-0.0072878086939454
-0.0064496416598558
-0.005789796821773
-0.0053351293317973
-0.0050766584463417
-0.0049777291715145
-0.0049834325909614
-0.0050284564495086
-0.0050455406308174
-0.0049751130864024
-0.0047725667245686
-0.0044114948250353
-0.0038855471648275
-0.0032100137323141
-0.002419788390398
-0.0015619432087987
-0.0006860367720946
0.0001640084083192
0.00095416221302
0.0016606312710791
0.0022697271779179
0.0027794844936579
0.0032002138905227
0.003551471279934
0.0038564824499189
0.0041361018083989
0.0044035497121512
0.0046591623686254
0.0048841135576367
0.0050348294898867
0.0050428304821252
0.0048250495456159
0.0043037123978137
0.0034275287762284
0.0021873551886528
0.0006245381664484
-0.0011701995972543
-0.003068805206567
-0.0049251019954681
-0.0065955184400081
-0.0079569583758711
-0.0089195594191551
-0.0094352923333644
-0.0095022674649953
-0.0091642048209905
-0.0085056787356734
-0.0076398248784244
-0.0066884933039546
-0.0057625495828688
-0.0049461429007351
-0.0042855227366089
-0.0037861175369471
-0.0034195873886346
-0.0031372543890029
-0.0028832941316068
-0.002603015396744
-0.0022477004677057
-0.0017797912005335
-0.0011779339984059
-0.0004386801738291
0.0004246491007506
0.0013833446428179
0.0023952643387019
0.003408518154174
0.0043679666705429
0.0052249561995267
0.005946026649326
0.0065158824436366
0.0069357575848698
0.0072199208661913
0.0073910038918256
0.0074750147759914
0.0074974950402975
0.0074825128540396
0.0074531924910843
0.0074288276955485
0.007415865547955
0.0073958071880042
0.0073185125365853
0.0071077877655625
0.0066782729700207
0.0059570418670773
0.0049021560698747
0.0035147699527442
0.0018443944863975
-1.4909426681697369e-05
-0.0019370625959709
-0.0037812837399542
-0.0054103871807456
-0.0067062578164041
-0.0075817760080099
-0.0079907672479748
-0.0079340022057294
-0.0074581890366971
-0.0066480068489909
-0.0056129521690309
-0.0044711763039231
-0.0033333331812173
-0.0022901934571564
-0.0014060299145057
-0.0007158590015023
-0.0002245801733806
9.071116801351307e-05
0.0002741692587733
0.0003821799764409
0.0004741183947771
0.0006034602411091
0.0008111996576189
0.0011232224060222
0.0015484436880797
0.0020767534151673
0.0026810923591256
0.0033241233322769
0.0039649968966841
0.0045640189200639
0.0050870180130004
0.0055104354396462
0.0058244038373231
0.0060319560579955
0.0061458526179194
0.0061838035471737
0.0061638252809643
0.006103194784373
0.0060191820375621
0.0059259193949401
0.005825915839523
0.0057004173286259
0.0055054971016943
0.0051777567714452
0.0046467105858027
0.0038491133600473
0.002743340563029
0.0013218517415225
-0.0003814428346231
-0.0022908870596438
-0.0042958538979291
-0.0062646055594086
-0.0080637298524379
-0.0095754647627472
-0.0107072805985808
-0.0113990176469087
-0.0116316275671124
-0.0114304721355438
-0.0108587397262454
-0.0100072333589196
-0.0089838402345776
-0.0078998981043696
-0.0068551367148756
-0.0059255324304103
-0.0051552602089941
-0.0045535168610513
-0.0040977904573082
-0.0037427863571792
-0.003431046847254
-0.0031018401496112
-0.002698095049709
-0.0021735085174441
-0.0015007221372798
-0.0006765907164663
0.0002798063214868
0.0013336071278899
0.0024394744541496
0.0035458891652524
0.0046013398095965
0.0055613787844777
0.0063931932672858
0.007077386137098
0.007608488202095
0.0079935546964406
0.0082481559365987
0.0083935307338833
0.008457695133984
0.008472996763885
0.0084634302183985
0.0084299277514219
0.0083441399037837
0.0081513654440641
0.0077790943905711
0.0071492786519229
0.006194997113198
0.0048795938491821
0.0032111885957419
0.0012460354482755
-0.0009189913398586
-0.0031584189273416
-0.0053317071869969
-0.0072986595332622
-0.0089338449761271
-0.0101395966485142
-0.0108588598668575
-0.0110830767080187
-0.0108517538756132
-0.0102460589259862
-0.0093765631318092
-0.0083652688190341
-0.007327189669013
-0.0063560148701071
-0.0055142636410892
-0.0048291147686541
-0.0042955856770277
-0.003884065663442
-0.0035482621751725
-0.0032329950481653
-0.0028811052907258
-0.0024403885472565
-0.0018734955228865
-0.0011670121457427
-0.0003329501487314
0.0005964960437268
0.001577166840434
0.0025621459353715
0.0035094511695206
0.0043865628540515
0.0051717283204197
0.0058528734371066
0.0064255893230438
0.0068916417658329
0.0072587952017784
0.0075408238917589
0.0077560283243656
0.0079235527664422
0.0080550936982035
0.0081424908712506
0.0081500727683305
0.008018285036087
0.0076757934875786
0.0070546842180192
0.0061063668690621
0.0048164906911551
0.0032134382054209
0.0013670657062903
-0.0006195551250129
-0.0026221296284347
-0.0045082778669893
-0.0061509422957897
-0.0074418736621737
-0.0083030257374048
-0.0086958548054099
-0.0086284093558788
-0.0081559512764215
-0.007372542284429
-0.0063949222676455
-0.0053427014499902
-0.0043220147490501
-0.0034157624468207
-0.0026771747507154
-0.0021265416871756
-0.0017532249912619
-0.001521095749922
-0.0013757649576291
-0.0012528527295216
-0.0010869047837331
-0.0008233784465119
-0.0004307464696466
9.597116149961948e-05
0.0007402922492474
0.0014711013063788
0.0022486858069896
0.003030447056517
0.0037765838205814
0.0044548278674483
0.0050425720401108
0.0055268532596528
0.005903092212975
0.0061728786677122
0.0063420943915843
0.0064213811419904
0.0064287693239748
0.0063882055692374
0.006318837404251
0.0062210145406425
0.0060680536553263
0.0058073513209819
0.0053704171441495
0.0046882382594048
0.0037085362710058
0.0024115047417581
0.0008189554791897
-0.0010043203365057
-0.0029558986425399
-0.0049080476164817
-0.0067244349047541
-0.0082762371748685
-0.0094554759562015
-0.0101875429973006
-0.0104429358616471
-0.0102425580844283
-0.0096525186672806
-0.0087710311636328
-0.0077133672311902
-0.0065978188067674
-0.0055317869409918
-0.0045986757613718
-0.0038489666767418
-0.0032975010108202
-0.002926813904196
-0.002694715745747
-0.0025434154085814
-0.0024090260267257
-0.0022298442199826
-0.0019520777277648
-0.0015362645499408
-0.0009650189895182
-0.0002459585666656
0.0005934080109
0.00151491118595
0.0024775059428066
0.0034408818464726
0.0043662935495376
0.0052177514880895
0.0059653148055076
0.0065895123407244
0.0070831361226737
0.00744897313416
0.0076975040137767
0.0078455386683344
0.007909532636404
0.0078925807029008
0.0077746384777128
0.007513714954257
0.0070566665381193
0.0063536930829286
0.0053714606910943
0.0041031236760318
0.0025762198492884
0.0008577453554607
-0.0009479306172579
-0.002710755681619
-0.0042928345501422
-0.0055673979222774
-0.0064354608766734
-0.0068385801278054
-0.0067671095021069
-0.0062618590891361
-0.0054089818149805
-0.0043304674327373
-0.003169257659465
-0.0020683503244072
-0.0011497307568788
-0.0004991036839783
-0.0001572325127199
-0.0001181606203317
-0.0003355031949467
-0.0007343147881329
-0.0012241456424817
-0.0017117548268288
-0.0021116861607879
-0.0023529320023953
-0.0023851720616221
-0.0021868916228413
-0.0017694417620077
-0.0011721556074917
-0.0004517843481153
0.000329146918375
0.0011127702891826
0.0018531957175582
0.002519475761801
0.0030938372947275
0.0035672252997756
0.0039364472031593
0.0042034881189465
0.0043719159439206
0.0044377753511071
0.0043810112401843
0.0041642729192972
0.0037392436061054
0.0030583238694816
0.0020895018242299
0.0008303935173898
-0.0006828072946518
-0.0023737435694783
-0.004132576752454
-0.0058302013203501
-0.0073362025432288
-0.0085359206423163
-0.0093439482152462
-0.0097135864198207
-0.0096415560692548
-0.009165340103209
-0.0083545120432972
-0.0073017315007746
-0.006114630959928
-0.0049056969583034
-0.0037782820872962
-0.0028108356054872
-0.0020462723914533
-0.001490669324994
-0.0011180164292454
-0.0008772572036832
-0.0007013471331447
-0.0005188793875277
-0.0002655095886439
0.0001099316868931
0.0006431166548281
0.001350755104795
0.0022279722616076
0.0032490869052708
0.0043705441057682
0.0055361567065119
0.0066842446103692
0.0077549456618726
0.0086977016180753
0.0094782337546348
0.0100817969068884
0.0105109009891748
0.0107795884832739
0.0109053505584597
0.010898120701313
0.0107499323785305
0.0104308892041444
0.009895134717226
0.00909582991153
0.0080021666362881
0.0066120726987719
0.0049594962038099
0.0031154337339103
0.0011808860581368
-0.0007259958074428
-0.0024839441757649
-0.0039814477786421
-0.0051278537139296
-0.0058627845719456
-0.0061609474942088
-0.0060272612608969
-0.0054828412830829
-0.004544517956674
-0.0031995368190109
-0.0013826618669554
0.0010364984627813
0.0042539602145552
0.0085200881585478
0.0141211729496717
0.0213532205671072
0.0304689165204763
0.0415876433253288
0.0545972436666488
0.0690912902355194
0.0843705981969833
0.0995185375213623
0.1135330647230148
0.1254727840423584
0.1345765441656112
0.1403417885303497
0.1425628066062927
0.1413271874189376
0.1369685977697372
0.1299887895584106
0.1209720224142074
0.1105095595121383
0.0991416350007057
0.0873177945613861
0.0753730610013008
0.0635173469781875
0.0518364310264587
0.0403049364686012
0.0288057997822761
0.0171407088637352
0.0050260201096534
-0.0079040452837944
-0.0220469608902931
-0.0377177372574806
-0.0550088994204998
-0.0736890882253646
-0.0931842625141143
-0.1126474142074585
-0.1310903280973434
-0.1475376933813095
-0.1611700654029846
-0.1714324355125427
-0.178091824054718
-0.1812394559383392
-0.1812465190887451
-0.1786862909793853
-0.1742356866598129
-0.168568730354309
-0.1622504144906997
-0.1556346416473388
-0.1487771272659301
-0.1414092779159546
-0.1330369710922241
-0.1231584846973419
-0.1115056499838829
-0.098204493522644
-0.0838023498654365
-0.0691648423671722
-0.0552888698875904
-0.0430960990488529
-0.0332662016153335
-0.0261477567255496
-0.021755862981081
-0.0198416598141193
-0.0200085807591676
-0.0218403898179531
-0.0249902252107858
-0.0291925389319658
-0.034209918230772
-0.0397668108344078
-0.045517299324274
-0.0510586723685264
-0.0559744238853454
-0.0598859786987304
-0.0624978020787239
-0.0636277049779892
-0.0632213354110717
-0.0613524541258811
-0.0582096800208091
-0.0540682598948478
-0.0492476448416709
-0.0440662913024425
-0.0388057231903076
-0.0336837358772754
-0.0288352221250534
-0.0243055745959281
-0.020059086382389
-0.0159967802464962
-0.0119759365916252
-0.0078288577497005
-0.0033839493989944
0.0015087500214576
0.0069521814584732
0.0129862613976001
0.0195869468152523
0.0266768969595432
0.0341408103704452
0.0418418496847152
0.0496384613215923
0.0574024133384227
0.0650344714522361
0.0724669396877288
0.0796493887901306
0.0865283459424972
0.0930308550596237
0.0990557745099067
0.1044779196381568
0.1091663539409637
0.1130086928606033
0.115932285785675
0.1179158836603164
0.1189891844987869
0.1192228645086288
0.1187116727232933
0.1175530403852462
0.11583112180233
0.1136170029640197
0.110981784760952
0.1080080047249794
0.1047912314534187
0.1014348864555358
0.0980410724878311
0.0946971625089645
0.0914609432220459
0.088350810110569
0.0853464677929878
0.0823995992541313
0.0794470012187957
0.0764212906360626
0.0732589960098266
0.0699061453342437
0.0663241446018219
0.0624973773956298
0.0584372505545616
0.0541768558323383
0.0497530177235603
0.0451716519892215
0.0403599627315998
0.035129614174366
0.0291844978928565
0.0221860855817794
0.0138579085469245
0.0040950435213744
-0.006957818288356
-0.0188891161233186
-0.0310717765241861
-0.0427656918764114
-0.053238533437252
-0.0618726387619972
-0.0682412385940551
-0.0721495598554611
-0.0736368745565414
-0.0729430392384529
-0.0704556182026863
-0.0666500926017761
-0.0620273351669311
-0.0570582337677478
-0.0521477088332176
-0.0476162061095237
-0.0436863973736763
-0.040466696023941
-0.0379235483705997
-0.035839706659317
-0.0337927863001823
-0.0312063787132501
-0.0274739358574152
-0.0221052654087543
-0.0148466294631361
-0.0057412539608776
0.004878778476268
0.0164489056915044
0.0282515417784452
0.0395063236355781
0.049462616443634
0.0574822723865509
0.0631009265780448
0.0660617649555206
0.0663236826658248
0.0640479549765586
0.0595642887055873
0.0533202290534973
0.0458224564790725
0.0375778377056121
0.0290415324270725
0.0205830298364162
0.0124762803316116
0.0049063116312026
-0.0020183436572551
-0.0082499235868453
-0.0137839578092098
-0.0186434164643287
-0.0228660088032484
-0.0264948792755603
-0.029575502499938
-0.0321600586175918
-0.0343122258782386
-0.0361065194010734
-0.0376261956989765
-0.0389644764363765
-0.0402303040027618
-0.0415620878338813
-0.0431519076228141
-0.0452713407576084
-0.0482762977480888
-0.0525684058666229
-0.0585051178932189
-0.0662765353918075
-0.0757984519004821
-0.0866714566946029
-0.098220370709896
-0.109593853354454
-0.1198912411928176
-0.1282870173454284
-0.1341309398412704
-0.1370116621255874
-0.1367804557085037
-0.1335382461547851
-0.1275964677333831
-0.1194222420454025
-0.109575405716896
-0.0986464619636535
-0.0872021317481994
-0.0757399648427963
-0.0646525770425796
-0.0542041510343551
-0.0445252433419227
-0.0356288701295852
-0.0274407174438238
-0.0198338888585567
-0.0126651600003242
-0.0058128014206886
0.000790175050497
0.0071371085941791
0.0131481830030679
0.0186909288167953
0.023617623373866
0.0278092697262763
0.0312128718942403
0.0338624902069568
0.0358812510967254
0.0374687612056732
0.0388777889311313
0.0403775125741958
0.0422041565179824
0.0445102304220199
0.0473268367350101
0.0505504384636879
0.0539647862315177
0.0573030114173889
0.0603339299559593
0.0629384145140647
0.0651467368006706
0.0671310871839523
0.0691658928990364
0.0715688467025756
0.0746303349733352
0.0785404592752456
0.0833308696746826
0.0888539105653762
0.0948080867528915
0.1007957980036735
0.10638989508152
0.11118945479393
0.1148575991392135
0.1171443462371826
0.1178954020142555
0.1170466393232345
0.1146112829446792
0.110668733716011
0.1053557991981506
0.0988563895225524
0.0913871079683303
0.0831777974963188
0.0744461268186569
0.0653634220361709
0.0560109317302703
0.0463382825255394
0.0361518003046512
0.0251617543399333
0.0130932908505201
-0.0001754062250256
-0.0145081160590052
-0.0294797122478485
-0.0444223582744598
-0.0585284531116485
-0.0709806382656097
-0.0810776650905609
-0.0883329808712005
-0.0925312489271164
-0.0937380492687225
-0.0922688990831375
-0.0886279642581939
-0.0834281891584396
-0.077308565378189
-0.0708645582199096
-0.0646006613969802
-0.0589042864739894
-0.0540361516177654
-0.050132866948843
-0.0472178496420383
-0.0452180914580822
-0.0439847372472286
-0.0433162152767181
-0.0429841205477714
-0.0427599512040615
-0.0424385890364646
-0.0418558456003665
-0.0408985279500484
-0.0395062230527401
-0.0376666113734245
-0.0354080870747566
-0.0327912606298923
-0.0298991948366165
-0.0268275998532772
-0.0236765444278717
-0.0205422639846801
-0.0175074525177478
-0.0146333780139684
-0.0119581669569015
-0.0094984322786331
-0.0072490088641643
-0.0051829200237989
-0.0032546930015087
-0.0013981983065605
0.0004937313497066
0.0026031378656625
0.0052075050771236
0.0086562884971499
0.013295168057084
0.0193642452359199
0.0269150026142597
0.0357797257602214
0.0455965623259544
0.0558695904910564
0.0660407841205596
0.0755595266819
0.083941601216793
0.090810090303421
0.0959136337041854
0.0991240069270134
0.1004180461168289
0.0998494103550911
0.0975153669714927
0.0935178101062774
0.0879143700003624
0.0806686431169509
0.0716342851519584
0.0606119073927402
0.0474755316972732
0.0323124378919601
0.0155106130987405
-0.0022394433617591
-0.0200235787779092
-0.0368360765278339
-0.0517285093665123
-0.0639403611421585
-0.0729881599545478
-0.0787047147750854
-0.0812300741672515
-0.080962985754013
-0.078485794365406
-0.0744762420654296
-0.0696199089288711
-0.0645356178283691
-0.0597187653183937
-0.0555062815546989
-0.0520674847066402
-0.0494169257581234
-0.0474434047937393
-0.0459531396627426
-0.0447188168764114
-0.0435217954218387
-0.0421812683343887
-0.0405700132250785
-0.0386185944080352
-0.0363117419183254
-0.0336799547076225
-0.0307881981134414
-0.0277233757078647
-0.0245810654014349
-0.0214524939656257
-0.0184146631509065
-0.0155249657109379
-0.0128187425434589
-0.0103076370432972
-0.0079803233966231
-0.0058092512190341
-0.003761326894164
-0.0018058884888887
8.174404501914978e-05
0.0019171219319105
0.0037016719579696
0.0054179150611162
0.0070277219638228
0.0084769520908594
0.0097110066562891
0.0107002491131424
0.0114683117717504
0.0121173243969678
0.0128404451534152
0.0139080174267292
0.0156238432973623
0.018265027552843
0.0220232550054788
0.0269621536135673
0.03300541639328
0.0399556756019592
0.0475218184292316
0.055337406694889
0.0629741102457046
0.0699614360928535
0.0758207514882087
0.0801151096820831
0.0825066342949867
0.0828058198094368
0.0809979513287544
0.0772409811615943
0.0718381777405738
0.0651925504207611
0.0577532537281513
0.0499646253883838
0.0422244518995285
0.034853845834732
0.0280800592154264
0.0220327656716108
0.0167518388479948
0.0122024212032556
0.00829260610044
0.004892049357295
0.0018530823290348
-0.000965541228652
-0.0036756247282028
-0.0063432846218347
-0.0089848693460226
-0.0115766394883394
-0.0140732321888208
-0.016424860805273
-0.0185876227915287
-0.02053052932024
-0.0222446098923683
-0.023751612752676
-0.0251043736934661
-0.0263771899044513
-0.0276526883244514
-0.0290104411542415
-0.0305166356265544
-0.0322121307253837
-0.0340998359024524
-0.0361373089253902
-0.0382412485778331
-0.0403043627738952
-0.0422172360122203
-0.043885875493288
-0.0452396608889102
-0.0462312251329422
-0.0468346700072288
-0.047047384083271
-0.0468953028321266
-0.0464373640716075
-0.0457643754780292
-0.0449886359274387
-0.0442242138087749
-0.0435648709535598
-0.0430678874254226
-0.0427455306053161
-0.0425646603107452
-0.0424547754228115
-0.0423204004764556
-0.0420550107955932
-0.0415559113025665
-0.0407363586127758
-0.0395318828523159
-0.0379036702215671
-0.0358422547578811
-0.0333705656230449
-0.0305440537631511
-0.027446074411273
-0.0241778865456581
-0.0208448786288499
-0.0175433717668056
-0.0143521949648857
-0.0113292997702956
-0.0085118561983108
-0.0059183370321989
-0.0035498822107911
-0.0013908175751566
0.0005875388160347
0.0024172374978661
0.0041211005300283
0.0057027675211429
0.0071430252864956
0.0084021016955375
0.0094277700409293
0.0101693570613861
0.0105922101065516
0.0106867346912622
0.0104725817218422
0.0100003574043512
0.0093504879623651
0.0086273867636919
0.0079492554068565
0.0074367374181747
0.0072009470313787
0.0073290560394525
0.0078706834465265
0.00883075222373
0.0101699829101562
0.0118117704987525
0.0136542171239852
0.0155832674354314
0.0174840707331895
0.0192528720945119
0.0208111573010683
0.0221174247562885
0.0231696106493473
0.023998275399208
0.0246562585234642
0.0252078250050544
0.0257175490260124
0.0262402519583702
0.0268144197762012
0.0274603441357612
0.0281795412302017
0.0289532504975795
0.0297441687434911
0.0305031612515449
0.031178655102849
0.0317269302904605
0.0321205146610736
0.0323506891727447
0.0324232652783393
0.0323521345853805
0.0321554131805896
0.0318541787564754
0.0314706750214099
0.0310236420482397
0.0305210165679454
0.0299522131681442
0.029283657670021
0.0284604877233505
0.0274148862808942
0.0260800383985042
0.0244071502238512
0.0223821140825748
0.0200380980968475
0.0174574926495552
0.0147593989968299
0.012078683823347
0.0095444377511739
0.0072608459740877
0.0052939038723707
0.0036673466674983
0.0023670680820941
0.0013508079573512
0.0005585877224802
-7.975101470947266e-05
-0.0006377464160323
-0.0011829906143248
-0.0017677405849099
-0.0024220845662057
-0.0031494493596255
-0.00392712559551
-0.0047142780385911
-0.0054620411247015
-0.0061197476461529
-0.0066399630159139
-0.0069855647161602
-0.0071363681927323
-0.007092960178852
-0.0068762390874326
-0.0065210442990064
-0.0060660950839519
-0.0055457381531596
-0.0049871793016791
-0.0044116992503404
-0.0038352382835
-0.0032673673704266
-0.0027118895668536
-0.0021692868322134
-0.0016385184135288
-0.0011192979291081
-0.0006172037683427
-0.0001495415344834
0.0002518165856599
0.000540264416486
0.0006553553976118
0.0005271211266517
8.659670129418373e-05
-0.0007184934802353
-0.0019080764614045
-0.0034599010832607
-0.0053061698563396
-0.0073365033604204
-0.0094115789979696
-0.0113860797137022
-0.0131293777376413
-0.0145359905436635
-0.0155293336138129
-0.0160653311759233
-0.0161370579153299
-0.015776926651597
-0.015053647570312
-0.0140642924234271
-0.0129215372726321
-0.0117372246459126
-0.0106079513207077
-0.0096063483506441
-0.0087764104828238
-0.0081325555220246
-0.0076637412421405
-0.0073419492691755
-0.0071314764209091
-0.0069944341666996
-0.0068920012563467
-0.0067845825105905
-0.0066322861239314
-0.0063979551196098
-0.0060539916157722
-0.0055875126272439
-0.0050010778941214
-0.0043119508773088
-0.0035501290112733
-0.0027548572979867
-0.0019696885719895
-0.0012353947386145
-0.0005836989730596
-3.5872682929039e-05
0.0003951378166675
0.0007036179304122
0.000890246592462
0.0009560920298099
0.0008924268186092
0.000674232840538
0.0002624848857522
-0.0003859922289848
-0.0013047382235527
-0.0025027566589415
-0.0039525087922811
-0.0055863708257675
-0.0073036160320043
-0.008984719403088
-0.0105077158659696
-0.0117620825767517
-0.0126584442332386
-0.0131361968815326
-0.0131716020405292
-0.0127837229520082
-0.0120322108268737
-0.0110054276883602
-0.0098041575402021
-0.0085268188267946
-0.0072577008977532
-0.0060581197030842
-0.0049617164768278
-0.0039755483157932
-0.0030848442111164
-0.0022553424350917
-0.0014353222213685
-0.0005670990794897
0.0003954621497541
0.0014762640930712
0.0026743907947093
0.0039647268131375
0.0053021069616079
0.0066293319687247
0.0078854523599147
0.0090115666389465
0.0099553652107715
0.0106751834973692
0.0111425751820206
0.0113436039537191
0.0112792933359742
0.010966308414936
0.0104376301169395
0.0097402930259704
0.008929481729865
0.0080595724284648
0.0071721896529197
0.0062851570546627
0.0053874840959906
0.0044417893514037
0.0033938726410269
0.0021881400607526
0.0007850783877074
-0.0008234495762735
-0.0026037469506263
-0.004477241076529
-0.0063268118537962
-0.008012268692255
-0.0093925911933183
-0.0103494618088006
-0.0108053935691714
-0.0107326069846749
-0.0101533904671669
-0.0091358292847871
-0.007786457426846
-0.0062382747419178
-0.0046346131712198
-0.0031110551208257
-0.0017779147019609
-0.0007062156801111
8.012889884412289e-05
0.0006033899844624
0.0009237796184606
0.0011274524731561
0.0013100664364174
0.0015571312978863
0.0019283217843621
0.0024506540503352
0.003119571134448
0.0039046229794621
0.0047581973485648
0.0056263208389282
0.0064575322903692
0.007207503542304
0.0078402329236269
0.0083274701610207
0.0086497999727725
0.0087999226525425
0.0087848808616399
0.0086258007213473
0.0083541208878159
0.0080026937648653
0.0075948913581669
0.0071377414278686
0.0066212499514222
0.0060224505141377
0.005311319604516
0.0044571124017238
0.0034368892665952
0.0022455742582678
0.0009024110622704
