bvp
0.0149327348917722
0.0144084189087152
0.0134978238493204
0.0121584068983793
0.0103929731994867
0.00825653411448
0.0058543854393064
0.0033333513420075
0.0008671171963214
-0.0013625994324684
-0.0031873132102191
-0.0044745099730789
-0.0051476997323334
-0.0051971143111586
-0.004677761811763
-0.0036968346685171
-0.0023950883187353
-0.0009266785345971
0.0005589188076555
0.001932087354362
0.0030960426665842
0.0039952984079718
0.0046172062866389
0.004987291060388
0.0051612434908747
0.0052163666114211
0.0052412925288081
0.005321430042386
0.0055234343744814
0.0058858315460383
0.0064188013784587
0.0071100639179348
0.0079314829781651
0.0088423434644937
0.0097909681499004
0.0107194231823086
0.011570593342185
0.0122944759204983
0.0128536447882652
0.0132272047922015
0.0134118665009737
0.0134212905541062
0.0132833831012249
0.0130325369536876
0.0126978894695639
0.0122916446998715
0.0117994612082839
0.0111757330596446
0.0103477267548441
0.0092284334823489
0.0077349310740828
0.0058098630979657
0.0034417151473462
0.0006776712834835
-0.0023740981705486
-0.005553703289479
-0.0086693977937102
-0.0115225352346897
-0.0139326583594083
-0.0157606601715087
-0.016926335170865
-0.0174158290028572
-0.0172781813889741
-0.0166152026504278
-0.015567572787404
-0.0142951868474483
-0.0129548832774162
-0.0116828233003616
-0.0105818789452314
-0.0097127938643097
-0.0090917255729436
-0.0086947754025459
-0.0084665119647979
-0.0083304578438401
-0.008202145807445
-0.0080033997073769
-0.0076734004542231
-0.0071738208644092
-0.00648944824934
-0.0056270044296979
-0.004612504504621
-0.0034867813810706
-0.0023003942333161
-0.0011089695617556
3.102049231529236e-05
0.0010667154565453
0.001953481696546
0.0026582446880638
0.0031619127839803
0.0034623742103576
0.0035762581974267
0.0035355240106582
0.0033770655281841
0.0031282538548111
0.0027945153415203
0.0023532868362963
0.0017560147680342
0.0009373505599796
-0.0001722355373203
-0.0016319642309099
-0.0034734993241727
-0.0056843925267457
-0.0081995222717523
-0.0109044965356588
-0.0136479474604129
-0.0162572599947452
-0.0185573678463697
-0.0203939862549304
-0.021656634286046
-0.0222955122590065
-0.0223308838903903
-0.0218537561595439
-0.0210155267268419
-0.0200057867914438
-0.0190181862562894
-0.0182095132768154
-0.0176651757210493
-0.0173823088407516
-0.0172725208103656
-0.0171811860054731
-0.0169186685234308
-0.0162979587912559
-0.0151722244918346
-0.0134602515026927
-0.0111485105007886
-0.0082755479961633
-0.0049159880727529
-0.0011727651581168
0.002824068069458
0.0069159278646111
0.0109172333031892
0.0146267488598823
0.0178524255752563
0.0204433053731918
0.022313755005598
0.0234506819397211
0.0239029787480831
0.0237547270953655
0.0230898708105087
0.0219653043895959
0.0204052831977605
0.0184156522154808
0.0160111505538225
0.01324656419456
0.0102341398596763
0.007137217093259
0.0041500413790345
0.0014753891155123
-0.0006978018209338
-0.0022140741348266
-0.0029655927792191
-0.0029020849615335
-0.0020347759127616
-0.0004291776567697
0.0018111942335963
0.0045598438009619
0.0076759755611419
0.0110106877982616
0.0144126331433653
0.0177328679710626
0.020832797512412
0.0235996134579181
0.0259658135473728
0.0279195308685302
0.0294938050210475
0.0307403095066547
0.0317067950963974
0.0324305295944213
0.0329448133707046
0.0332887209951877
0.0335111394524574
0.0336655266582965
0.0337988398969173
0.0339400544762611
0.0340912714600563
0.0342242009937763
0.0342849567532539
0.0342057198286056
0.0339180156588554
0.0333648510277271
0.0325110219419002
0.0313495807349681
0.0299030374735593
0.0282182767987251
0.0263526495546102
0.0243520811200141
0.0222291182726621
0.0199503395706415
0.0174390524625778
0.0145944859832525
0.0113212540745735
0.0075589567422866
0.003304423764348
-0.0013786125928163
-0.0063643734902143
-0.0114801544696092
-0.0165257640182971
-0.0212945565581321
-0.0255942586809396
-0.0292650926858186
-0.0321949310600757
-0.0343311578035354
-0.0356860011816024
-0.0363334789872169
-0.0363982021808624
-0.0360379181802272
-0.0354239456355571
-0.0347212888300418
-0.0340688712894916
-0.0335636138916015
-0.0332522802054882
-0.0331325903534889
-0.033161673694849
-0.033267967402935
-0.0333644524216651
-0.0333631262183189
-0.0331888347864151
-0.0327884219586849
-0.0321354568004608
-0.0312330704182386
-0.0301125086843967
-0.0288263335824012
-0.0274388585239648
-0.0260163154453039
-0.0246198400855064
-0.0233008041977882
-0.0220959428697824
-0.0210242867469787
-0.0200877543538808
-0.0192754343152046
-0.0185745675116777
-0.0179879572242498
-0.0175482295453548
-0.0173179600387811
-0.0173749588429927
-0.0177904348820447
-0.0186057034879922
-0.0198113713413476
-0.0213347021490335
-0.0230388808995485
-0.0247346553951501
-0.0262029469013214
-0.0272243954241275
-0.0276100039482116
-0.0272282101213932
-0.0260242111980915
-0.0240277647972106
-0.0213490687310695
-0.018164025619626
-0.0146908722817897
-0.0111632337793707
-0.0078055737540125
-0.0048127882182598
-0.0023315679281949
-0.0004440075717866
0.0008396743796765
0.0015754722990095
0.0018714028410613
0.0018697581253945
0.0017273845151066
0.0015951702371239
0.0015996368601918
0.0018302612006664
0.0023348107933998
0.0031228912994265
0.0041741942986845
0.0054458323866128
0.0068778553977608
0.0083995042368769
0.0099362051114439
0.0114176040515303
0.0127873672172427
0.0140110971406102
0.0150782009586691
0.0159972943365573
0.0167864300310611
0.0174598004668951
0.0180139187723398
0.0184191241860389
0.018620790913701
0.0185489617288112
0.0181349273771047
0.0173313915729522
0.0161284543573856
0.0145626068115234
0.0127191673964262
0.0107262646779418
0.00874157063663
0.0069348439574241
0.0054677538573741
0.0044742096215486
0.0040440913289785
0.0042107719928026
0.0049447380006313
0.0061574410647153
0.0077157821506261
0.0094629898667335
0.0112411901354789
0.0129116997122764
0.0143696581944823
0.0155513370409607
0.0164344012737274
0.0170327331870794
0.0173882842063903
0.0175628364086151
0.0176307260990142
0.0176700018346309
0.0177510939538478
0.017926774919033
0.0182261429727077
0.0186522528529167
0.0191839709877967
0.0197820961475372
0.0203977357596158
0.0209808945655822
0.0214858520776033
0.0218733362853527
0.022114185616374
0.0221933238208293
0.0221102479845285
0.0218752715736627
0.0215000659227371
0.0209845826029777
0.0203070696443319
0.0194220449775457
0.0182686224579811
0.0167870540171861
0.0149360187351703
0.0127064445987343
0.0101319747045636
0.0072943926788866
0.004320316016674
0.0013678204268217
-0.001393505372107
-0.0038033947348594
-0.0057288566604256
-0.0070787323638796
-0.0078147305175662
-0.0079563073813915
-0.0075775668956339
-0.0067977672442793
-0.0057655172422528
-0.0046372925862669
-0.0035567372106015
-0.0026389081031084
-0.0019580014050006
-0.001540660392493
-0.0013692015781998
-0.0013928012922406
-0.0015404406003654
-0.0017321992199867
-0.0018891266081482
-0.0019433286506682
-0.0018474822863936
-0.0015794190112501
-0.0011410722509026
-0.0005554882809519
0.0001376738073304
0.0008894087513908
0.0016486321110278
0.0023671425879001
0.0030042480211704
0.0035310299135744
0.003930983133614
0.0041976026259362
0.0043323747813701
0.0043425112962722
0.0042346506379544
0.0040046800859272
0.0036292257718741
0.0030633467249572
0.0022454727441072
0.0011100792326033
-0.0003931890241801
-0.0022793244570493
-0.0045140525326132
-0.00700961984694
-0.0096303205937147
-0.0122094331309199
-0.0145746599882841
-0.0165718868374824
-0.0180809460580348
-0.0190246254205703
-0.0193735808134078
-0.0191485080868005
-0.0184186436235904
-0.0172936543822288
-0.0159087982028722
-0.0144075965508818
-0.012926266528666
-0.0115807820111513
-0.0104548195376992
-0.0095888916403055
-0.0089762238785624
-0.0085704904049634
-0.0083020702004432
-0.0080929892137646
-0.0078658303245902
-0.0075508402660489
-0.007093924563378
-0.0064623686484992
-0.0056462888605892
-0.0046575404703617
-0.0035277553834021
-0.0023048254661262
-0.0010464009828865
0.0001892866566777
0.0013525984250009
0.0024081794545054
0.0033352239988744
0.004123942926526
0.0047723641619086
0.0052846381440758
0.0056669251061975
0.0059184432029724
0.0060222242027521
0.0059422408230602
0.0056275054812431
0.005019704811275
0.004064526874572
0.0027270191349089
0.0010069753043353
-0.0010503083467483
-0.0033515233080834
-0.005762378219515
-0.0081219365820288
-0.0102615896612405
-0.0120255537331104
-0.013289762660861
-0.0139776477590203
-0.0140689685940742
-0.0135983014479279
-0.0126471500843763
-0.0113338241353631
-0.0097994208335876
-0.0081897312775254
-0.0066371271386742
-0.0052455272525548
-0.0040799002163112
-0.003162533044815
-0.0024770954623818
-0.0019774800166487
-0.0015977271832525
-0.0012630790006369
-0.0009024646133184
-0.0004593100165948
0.0001020795170916
0.0007945663528516
0.0016103362431749
0.0025261370465159
0.0035093219485133
0.0045238356105983
0.0055348970927298
0.0065107294358313
0.007423470262438
0.0082506341859698
0.0089759808033704
0.0095911510288715
0.0100965341553092
0.0104948719963431
0.0107782948762178
0.0109188016504049
0.0108680054545402
0.0105632757768034
0.0099382074549794
0.0089384224265813
0.0075396345928311
0.0057605942711234
0.0036671087145805
0.0013678970281034
-0.0009971050312742
-0.0032733073458075
-0.0053082583472132
-0.0069680092856287
-0.0081530390307307
-0.0088095953688025
-0.0089338840916752
-0.0085705164819955
-0.0078052994795143
-0.0067522930912673
-0.0055382046848535
-0.0042869220487773
-0.003105329349637
-0.0020720232278108
-0.0012312032049521
-0.0005919592804275
-0.0001316707348451
0.0001968910946743
0.0004566901188809
0.000717798480764
0.0010478441836312
0.001500638667494
0.0021060076542198
0.0028663049452006
0.0037612738087773
0.0047560236416757
0.0058070258237421
0.0068667130544781
0.0078883543610572
0.0088309412822127
0.0096635157242417
0.0103671895340085
0.010933912359178
0.0113650076091289
0.0116706760600209
0.0118653234094381
0.0119560398161411
0.0119311995804309
0.0117563568055629
0.0113759711384773
0.0107198469340801
0.0097182188183069
0.0083231385797262
0.0065267882309854
0.0043705599382519
0.0019444711506366
-0.0006208256818354
-0.003168559866026
-0.0055356239899992
-0.0075718550942838
-0.009155205450952
-0.0102040050551295
-0.0106865325942635
-0.0106262117624282
-0.0100989025086164
-0.0092198811471462
-0.008124147541821
-0.0069466773420572
-0.0058062300086021
-0.0047935359179973
-0.0039650644175708
-0.0033429791219532
-0.0029190052300691
-0.0026592926587909
-0.002510983031243
-0.0024120628368109
-0.0023014286998659
-0.0021249470300972
-0.0018389243632555
-0.0014153798110783
-0.0008476455695927
-0.0001516444608569
0.0006377138197422
0.0014738384634256
0.0023077717050909
0.0030957912094891
0.0038028201088309
0.0044036186300218
0.0048846472054719
0.0052451058290898
0.0054947882890701
0.0056506339460611
0.0057329959236085
0.0057581611908972
0.0057262852787971
0.0056108087301254
0.0053572794422507
0.0048926742747426
0.0041402066126465
0.0030370559543371
0.0015522791072726
-0.0003008134663105
-0.0024602841585874
-0.0048188441433012
-0.0072350455448031
-0.0095512280240654
-0.0116128744557499
-0.013284645974636
-0.0144635075703263
-0.0150901908054947
-0.0151578243821859
-0.0147132854908704
-0.0138479387387633
-0.0126821864396333
-0.0113496277481317
-0.009981770068407
-0.0086934901773929
-0.0075708306394517
-0.0066628442145884
-0.0059794513508677
-0.0054964325390756
-0.0051650218665599
-0.0049220290966331
-0.0046991053968667
-0.0044312770478427
-0.0040642712265253
-0.0035605011507868
-0.0029034304898232
-0.0020985447335988
-0.0011706145014613
-0.0001591015607118
0.0008872444741427
0.0019171708263456
0.0028847940266132
0.003755151759833
0.004505346994847
0.0051232469268143
0.0056063490919768
0.0059616928920149
0.006204922683537
0.0063560893759131
0.0064319805242121
0.0064364811405539
0.0063521116971969
0.0061371168121695
0.0057308338582515
0.0050663128495216
0.0040872357785701
0.0027660001069307
0.0011178608983755
-0.0007943973178043
-0.002866345224902
-0.0049658128991723
-0.0069505218416452
-0.0086844665929675
-0.0100506674498319
-0.0109603917226195
-0.0113607160747051
-0.0112427091225981
-0.0106464494019746
-0.0096563687548041
-0.0083877546712756
-0.0069688744843006
-0.0055226041004061
-0.0041529866866767
-0.0029380882624536
-0.0019251108169555
-0.0011265310458838
-0.0005198910366743
-5.40674664080143e-05
0.0003380225971341
0.0007257713004946
0.0011714668944478
0.0017244070768356
0.0024155902210623
0.0032533735502511
0.004223306197673
0.0052918037399649
0.0064120013266801
0.007532216142863
0.0086048012599349
0.0095926756039261
0.0104723609983921
0.0112324059009552
0.0118700573220849
0.0123888850212097
0.0127957472577691
0.0130980787798762
0.0133030638098716
0.0134158488363027
0.0134339891374111
0.0133396415039896
0.0130946487188339
0.0126428306102752
0.0119208861142396
0.0108756152912974
0.0094814170151948
0.0077518238686025
0.0057416455820202
0.0035417145118117
0.0012704975670203
-0.0009378102840855
-0.002949055051431
-0.0046447627246379
-0.0059348852373659
-0.0067662992514669
-0.0071260672993958
-0.0070418203249573
-0.0065795476548373
-0.0058350153267383
-0.004920576699078
-0.0039518564008176
-0.0030340324155986
-0.0022491144482046
-0.0016478628385812
-0.0012463049497455
-0.0010269692866131
-0.0009466778719797
-0.0009485175251029
-0.0009724602568894
-0.000962090678513
-0.0008689946262165
-0.0006573476130142
-0.000308773946017
0.000175292341737
0.0007755027036182
0.0014592579100281
0.002186105120927
0.0029132568743079
0.0036013112403452
0.0042186863720417
0.0047432682476937
0.0051630977541208
0.005476513877511
0.005689843557775
0.0058139720931649
0.0058626364916563
0.0058512366376817
0.0057909879833459
0.0056780027225613
0.0054850322194397
0.005161796696484
0.0046433988027274
0.0038640806451439
0.0027726269327104
0.0013461457565426
-0.0003989678807556
-0.0024012238718569
-0.0045583853498101
-0.006741507910192
-0.0088110454380512
-0.0106318993493914
-0.0120881684124469
-0.013095324859023
-0.0136089213192462
-0.0136301703751087
-0.0132060535252094
-0.0124216694384813
-0.0113868322223424
-0.01022186037153
-0.0090435799211263
-0.0079515120014548
-0.0070181475020945
-0.0062850946560502
-0.0057627633213996
-0.0054315077140927
-0.0052450210787355
-0.0051383106037974
-0.0050388388335704
-0.0048766112886369
-0.0045934333465993
-0.0041525652632117
-0.0035445615649223
-0.0027861066628247
-0.0019141410011798
-0.0009777015075087
-2.789997961372137e-05
0.0008913286728784
0.0017478622030466
0.0025212892796844
0.0032005519606173
0.0037807966582477
0.0042603071779012
0.0046398798003792
0.0049253497272729
0.0051297093741595
0.0052699912339448
0.0053570256568491
0.0053841648623347
0.0053233387880027
0.0051288562826812
0.004745508544147
0.0041191834025084
0.0032094959169626
0.0020030511077493
0.0005227568326517
-0.0011703706113621
-0.0029815291054546
-0.0047895503230392
-0.0064585846848785
-0.0078558754175901
-0.0088703716173768
-0.0094274766743183
-0.0095000537112355
-0.0091123385354876
-0.0083337603136897
-0.0072664828039705
-0.0060306256636977
-0.0047470396384596
-0.0035207206383347
-0.0024312091991305
-0.0015295832417905
-0.0008368650451302
-0.0003440002910792
-1.6658566892147064e-05
0.0001968550495803
0.0003591133281588
0.0005387743003666
0.0008023013360798
0.0012003039009869
0.0017568487673997
0.0024694856256246
0.0033163614571094
0.0042633414268493
0.0052690142765641
0.0062887519598007
0.0072789471596479
0.0082004303112626
0.0090205064043402
0.0097155245020985
0.0102741252630949
0.010698658414185
0.0110035464167594
0.0112110972404479
0.0113445976749062
0.0114179905503988
0.0114246429875493
0.0113316904753446
0.0110835842788219
0.0106117315590381
0.0098478998988866
0.0087419040501117
0.0072788968682289
0.0054890401661396
0.0034475224092602
0.0012671030126512
-0.0009139643516391
-0.0029476422350853
-0.0046944618225097
-0.0060402718372642
-0.0069084921851754
-0.0072693154215812
-0.0071446080692112
-0.006603680551052
-0.005750747397542
-0.0047091199085116
-0.003603815101087
-0.00254473160021
-0.0016152791213244
-0.0008673714473843
-0.0003205239772796
3.4934841096401215e-05
0.000232403865084
0.000323886051774
0.0003724149428308
0.0004410466644912
0.0005824302788823
0.0008313157595694
0.001201944774948
0.0016914842417463
0.0022855249699205
0.0029619212727993
0.003693597856909
0.0044512501917779
0.0052062002941966
0.0059328451752662
0.0066091110929846
0.0072164586745202
0.0077413911931216
0.0081767840310931
0.0085224164649844
0.0087842205539345
0.0089689223095774
0.0090734446421265
0.0090741422027349
0.0089234570041298
0.0085573112592101
0.0079082511365413
0.0069183502346277
0.0055518457666039
0.0038083947729319
0.0017320921178907
-0.0005889451131224
-0.0030313152819871
-0.0054508270695805
-0.0077002672478556
-0.0096452105790376
-0.0111754806712269
-0.0122149931266903
-0.0127320252358913
-0.0127458088099956
-0.0123218838125467
-0.0115573471412062
-0.0105653693899512
-0.0094629488885402
-0.0083595523610711
-0.0073456335812807
-0.006483550183475
-0.0058042341843247
-0.0053090509027242
-0.0049735400825738
-0.0047522280365228
-0.0045855762436985
-0.004409312736243
-0.0041650813072919
-0.0038097088690847
-0.0033201943151652
-0.0026937015354633
-0.0019436540314927
-0.0010943815577775
-0.0001769074006006
0.0007744877366349
0.0017261785687878
0.0026478436775505
0.003512505441904
0.0042962245643138
0.0049798684194684
0.0055526462383568
0.0060149934142827
0.006377556361258
0.0066534876823425
0.0068451343104243
0.006932184100151
0.0068686953745782
0.0065902997739613
0.0060279020108282
0.0051232283003628
0.0038423221558332
0.0021859114058315
0.000197010114789
-0.0020377561450004
-0.0043956716544926
-0.0067306566052138
-0.0088883601129055
-0.0107233840972185
-0.0121161192655563
-0.0129873156547546
-0.0133101176470518
-0.0131145883351564
-0.0124791469424963
-0.0115140173584222
-0.0103458547964692
-0.0091041624546051
-0.0079067079350352
-0.0068461876362562
-0.0059821866452693
-0.0053381952457129
-0.0049023409374058
-0.0046332250349223
-0.0044706282205879
-0.0043472358956933
-0.0041972422040998
-0.0039620772004127
-0.003596233902499
-0.0030731493607163
-0.0023889509029686
-0.0015612837160006
-0.0006228331476449
0.0003852958325296
0.0014179598074406
0.0024304497055709
0.003382925176993
0.0042441366240382
0.0049947244115173
0.0056287455372512
0.0061517837457358
0.0065755802206695
0.0069098724052309
0.0071528465487062
0.0072829294949769
0.00725630344823
0.0070135123096406
0.0064930557273328
0.0056469812989234
0.0044550783932209
0.0029358300380408
0.0011515838559716
-0.0007951080333441
-0.0027735650073736
-0.0046414802782237
-0.0062616951763629
-0.0075170411728322
-0.0083230966702103
-0.0086381565779447
-0.0084685264155268
-0.007867282256484
-0.0069256834685802
-0.0057596638798713
-0.0044943341054022
-0.0032474999316036
-0.002115034032613
-0.0011614668183028
-0.0004168208688497
0.000121031422168
0.0004813647828996
0.0007149139419198
0.0008864062838256
0.0010645519942045
0.0013117478229105
0.0016765873879194
0.0021890541538596
0.002856932580471
0.0036650910042226
0.004579737316817
0.0055558010935783
0.0065441690385341
0.0074975509196519
0.0083742821589112
0.009140046313405
0.0097700078040361
0.0102520529180765
0.0105882603675127
0.0107914898544549
0.0108749009668827
0.0108378017321228
0.0106574399396777
0.0102910604327917
0.0096836499869823
0.0087784230709075
0.0075317425653338
0.005930847954005
0.0040073404088616
0.0018411335768178
-0.0004447766114026
-0.0026982331182807
-0.0047591840848326
-0.0064814332872629
-0.0077495737932622
-0.0084910932928323
-0.0086840223520994
-0.0083586797118186
-0.0075908908620476
-0.0064889630302786
-0.0051808184944093
-0.0038010897114872
-0.0024751308374106
-0.0013043396174907
-0.0003573596477508
0.0003352309577167
0.000782920513302
0.0010295624379068
0.0011420738883316
0.0011994077358394
0.0012818593531847
0.0014597517438232
0.0017837991472333
0.0022802248131483
0.0029520213138312
0.0037830732762813
0.0047401753254234
0.0057737212628126
0.0068228915333747
0.0078268209472298
0.0087351063266396
0.0095123630017042
0.0101388348266482
0.0106094647198915
0.0109301451593637
0.0111110731959342
0.011158887296915
0.0110678067430853
0.0108117563650012
0.0103425662964582
0.0095980903133749
0.0085180085152387
0.0070599843747913
0.0052130823023617
0.0030087823979556
0.0005255539435893
-0.0021162808407098
-0.0047677536495029
-0.007267877459526
-0.009459170512855
-0.0112036522477865
-0.0124013200402259
-0.0130049297586083
-0.0130253210663795
-0.0125274108722805
-0.0116179389879107
-0.0104283886030316
-0.0090979728847742
-0.0077585093677043
-0.0065216710790991
-0.0054691266268491
-0.0046460730955004
-0.0040596253238618
-0.0036815691273659
-0.0034543401561677
-0.0033020763657987
-0.0031453287228941
-0.0029144783038645
-0.0025594681501388
-0.0020541166886687
-0.0013946472899988
-0.0005947881145402
0.0003203932428732
0.0013190165627747
0.0023634256795048
0.0034116026945412
0.0044220173731446
0.0053583392873406
0.0061919465661048
0.0069037843495607
0.007484907284379
0.0079348580911755
0.0082575418055057
0.0084528513252735
0.008505955338478
0.008380452170968
0.008020156994462
0.007360428571701
0.0063444664701819
0.0049384194426238
0.0031438614241778
0.0010064425878226
-0.0013836291618645
-0.003899139817804
-0.0063869240693748
-0.0086825769394636
-0.0106305740773677
-0.0121048707515001
-0.0130238495767116
-0.0133583508431911
-0.0131331719458103
-0.0124225653707981
-0.0113404672592878
-0.0100251901894807
-0.0086192786693573
-0.0072502428665757
-0.0060188495554029
-0.0049942508339881
-0.0042116553522646
-0.0036708966363221
-0.0033378461375832
-0.0031523709185421
-0.0030408152379095
-0.0029273494146764
-0.0027436139062047
-0.0024378516245633
-0.0019822756294161
-0.0013758894056081
-0.0006399250123649
0.0001914729364216
0.0010786419734358
0.0019799165893346
0.002853101817891
0.0036579382140189
0.0043612923473119
0.0049410061910748
0.0053857481107115
0.0056942524388432
0.0058749765157699
0.0059418901801109
0.0059042228385806
0.0057553276419639
0.00546804536134
0.0049975821748375
0.0042886938899755
0.0032878718338906
0.0019607045687735
0.0003074025735259
-0.0016297257971018
-0.0037659408990293
-0.0059794783592224
-0.0081233289092779
-0.01004199963063
-0.0115902069956064
-0.0126514369621872
-0.0131542012095451
-0.0130819473415613
-0.0124733680859208
-0.0114138172939419
-0.0100214621052145
-0.008431582711637
-0.0067804306745529
-0.0051897279918193
-0.0037544828373938
-0.0025361815933138
-0.0015604863874614
-0.0008178986608982
-0.0002674974966794
0.0001551422756165
0.0005259646568447
0.0009193053701892
0.0013972985325381
0.0020031677559018
0.0027574475388973
0.0036565326154232
0.0046750558540225
0.005772647447884
0.0069020264782011
0.0080154165625572
0.0090689426288008
0.0100254621356725
0.0108560901135206
0.0115410517901182
0.0120700439438223
0.0124415513128042
0.0126616554334759
0.0127420872449874
0.012694296427071
0.0125191640108823
0.0121982647106051
0.0116916857659816
0.0109426910057663
0.0098894042894244
0.0084830485284328
0.0067068189382553
0.0045870426110923
0.0021946378983557
-0.0003601552452892
-0.0029392649885267
-0.0053926124237477
-0.0075730923563241
-0.0093500893563032
-0.0106236524879932
-0.0113370679318904
-0.0114839505404233
-0.0111088827252388
-0.0103013133630156
-0.009182134643197
-0.0078855156898498
-0.0065410053357481
-0.0052585499361157
-0.0041183540597558
-0.0031681621912866
-0.0024250112473964
-0.0018766125431284
-0.0014840377261862
-0.0011890212772414
-0.0009253700845874
-0.0006305989809334
-0.0002536814718041
0.0002403736725682
0.0008673015981912
0.001623596297577
0.0024905041791498
0.0034387991763651
0.0044319089502096
0.0054285866208374
0.006386149674654
0.007263399194926
0.008023121394217
0.0086350329220294
0.0090793427079916
0.0093496004119515
0.009452823549509
0.0094058401882648
0.0092277182266116
0.0089295348152518
0.0085054049268364
0.007928529754281
0.0071533662267029
0.0061239823698997
0.0047876369208097
0.003111760597676
0.0010999264195561
-0.0011994154192507
-0.003693755948916
-0.0062561044469475
-0.0087411608546972
-0.0110021866858005
-0.0129036800935864
-0.0143322981894016
-0.0152093227952718
-0.0155007876455783
-0.0152207426726818
-0.0144295142963528
-0.0132284788414835
-0.011748244985938
-0.0101294890046119
-0.008501948788762
-0.0069694272242486
-0.0056042382493615
-0.0044466406106948
-0.0035048022400587
-0.0027573257684707
-0.0021596155129373
-0.0016517259646207
-0.0011674052802845
-0.0006441075820475
-3.152064164169133e-05
0.0007022397476248
0.0015664780512452
0.0025475651491433
0.0036138747818768
0.0047233598306775
0.0058307121507823
0.0068931011483073
0.0078721893951296
0.0087333265691995
0.0094474693760275
0.0099958544597029
0.0103731909766793
0.0105887185782194
0.0106643978506326
0.0106293326243758
0.0105120753869414
0.0103315068408846
0.0100878430530428
0.0097570177167654
0.0092909429222345
0.0086254142224788
0.0076942001469433
0.0064433766528964
0.0048422799445688
0.0028932862915098
0.0006405711174011
-0.0018272958695888
-0.0043841069564223
-0.0068805655464529
-0.0091631580144166
-0.0110926637426018
-0.012559219263494
-0.0134944478049874
-0.0138795962557196
-0.0137464813888072
-0.0131707293912768
-0.0122588099911808
-0.0111317988485097
-0.0099105508998036
-0.0087050050497055
-0.0076055452227592
-0.0066746575757861
-0.0059413695707917
-0.0054003172554075
-0.0050161369144916
-0.0047331755049526
-0.0044866865500807
-0.0042126672342419
-0.0038569949101656
-0.003383282572031
-0.0027773033361881
-0.0020460127852857
-0.0012112809345126
-0.000301675114315
0.0006533749401569
0.0016243245918303
0.002579805906862
0.0034882391337305
0.0043227737769484
0.005064895376563
0.0057048206217586
0.0062402836047112
0.0066746617667376
0.0070147840306162
0.0072690960951149
0.0074432878755033
0.007531797979027
0.0075105181895196
0.007335809059441
0.0069508263841271
0.0062976577319204
0.0053314524702727
0.0040332749485969
0.0024201637133955
0.0005500788684003
-0.0014811035944148
-0.003549579763785
-0.0055164517834782
-0.0072430516593158
-0.0086086178198456
-0.0095249814912676
-0.009944905526936
-0.0098652690649032
-0.0093261282891035
-0.0084059778600931
-0.0072124022990465
-0.0058679403737187
-0.0044941343367099
-0.0031972611322999
-0.0020577062387019
-0.0011227340437471
-0.0004025551024824
0.0001269774511456
0.0005139773711562
0.0008177214767783
0.0010991138406097
0.001414103899151
0.0018069653306156
0.0023050624877214
0.0029186266474425
0.0036443995777517
0.0044692195951938
0.0053710285574197
0.0063177174888551
0.0072676055133342
0.0081754494458436
0.00900140684098
0.0097162285819649
0.0103017212823033
0.0107503924518823
0.011065250262618
0.011257629841566
0.0113412318751215
0.0113236252218484
0.0111982123926281
0.0109389098361134
0.0105013018473982
0.0098316874355077
0.0088787134736776
0.0076033333316445
0.0059887622483074
0.004051492549479
0.0018494167597964
-0.0005174692487344
-0.0029158955439925
-0.0051971049979329
-0.0072169210761785
-0.0088510448113083
-0.0100067928433418
-0.0106332618743181
-0.0107271932065486
-0.0103330500423908
-0.0095370765775442
-0.0084547353908419
-0.007214403245598
-0.0059421947225928
-0.004749372601509
-0.003721416927874
-0.0029099164530634
-0.0023298244923353
-0.0019623786211013
-0.0017622027080506
-0.0016670246841385
-0.0016083482187241
-0.0015217037871479
-0.0013541673542931
-0.0010686099994927
-0.0006470140651799
-9.039643919095396e-05
0.0005864316481165
0.001358394511044
0.0021898043341934
0.0030364983249455
0.0038522519171237
0.0045957453548908
0.0052352473139762
0.005750922486186
0.006136065814644
0.0063972445204854
0.0065515814349055
0.0066193086095154
0.0066122915595769
0.0065231849439442
0.0063206907361745
0.0059531033039093
0.0053590359166264
0.004482414573431
0.003286151913926
0.0017613745294511
-6.477837450802326e-05
-0.0021237614564597
-0.0043096053414046
-0.0064924908801913
-0.0085343364626169
-0.0103027038276195
-0.011684943921864
-0.0126021448522806
-0.0130188800394535
-0.0129459453746676
-0.0124364793300628
-0.0115771731361746
-0.01047586183995
-0.0092485807836055
-0.0080091971904039
-0.0068596517667174
-0.0058787418529391
-0.0051126200705766
-0.0045705786906182
-0.0042271632701158
-0.0040298947133123
-0.003910653758794
-0.003797898069024
-0.0036263808142393
-0.0033436124213039
-0.0029146748129278
-0.0023259446024894
-0.0015865011373534
-0.000723929144442
0.0002247411757707
0.0012190764537081
0.0022161300294101
0.0031725135631859
0.004049424547702
0.0048167239874601
0.0054547330364584
0.0059555564075708
0.0063221780583262
0.0065615396015346
0.0066744619980454
0.0066484501585364
0.0064555499702692
0.006055636331439
0.0054051633924245
0.0044690379872918
0.0032323687337338
0.0017109321197494
-4.166527651250362e-05
-0.0019349274225533
-0.0038513848558068
-0.0056611476466059
-0.007237350102514
-0.0084705306217074
-0.0092807356268167
-0.0096258018165826
-0.0095048826187849
-0.0089584104716777
-0.0080641657114028
-0.0069275959394872
-0.0056667546741664
-0.0043943803757429
-0.0032028001733124
-0.0021574292331933
-0.0012962212786078
-0.0006289696320891
-0.0001375172287225
0.0002194587141275
0.0004980815574526
0.0007602786645293
0.0010658404789865
0.0014648200012743
0.0019894735887646
0.0026490902528166
0.0034315837547183
0.0043098106980323
0.0052475365810096
0.0062045799568295
0.0071427058428525
0.0080299908295273
0.0088417883962392
0.0095600998029112
0.0101720225065946
0.0106660071760416
0.0110264085233211
0.0112282615154981
0.0112343514338135
0.0109963500872254
0.010461245663464
0.009583406150341
0.0083394264802336
0.0067405002191662
0.0048391013406217
0.0027292855083942
0.0005393857136368
-0.0015836064703762
-0.0034935222938656
-0.0050624310970306
-0.0061946134082973
-0.0068368231877684
-0.0069830138236284
-0.0066724764183163
-0.0059826443903148
-0.0050181988626718
-0.0038968124426901
-0.0027337246574461
-0.0016293553635478
-0.0006609023548662
0.0001243655569851
0.0007136645726859
0.0011263922788202
0.0014042840339243
0.0016005071811378
0.0017712952103465
0.001968351425603
0.0022328831255435
0.0025926521047949
0.0030605588108301
0.0036353892646729
0.0043045612983405
0.0050456076860427
0.005827568937093
0.0066158100962638
0.0073781888931989
0.0080880187451839
0.0087241735309362
0.0092709092423319
0.0097157163545489
0.0100431432947516
0.0102271875366568
0.0102264052256941
0.009984771721065
0.0094388704746961
0.008529333397746
0.0072153084911406
0.0054897302761673
0.0033901864662766
0.0010024295188486
-0.0015446227043867
-0.0040930807590484
-0.0064755673520267
-0.0085344230756163
-0.0101391272619366
-0.0112016564235091
-0.0116868019104003
-0.0116144958883523
-0.011054266244173
-0.0101136500015854
-0.0089231943711638
-0.0076208403334021
-0.0063354368321597
-0.0051695560105144
-0.0041879527270793
-0.0034161088988184
-0.0028454270213842
-0.0024413887877017
-0.0021533810067921
-0.0019229247700423
-0.0016895949374884
-0.001398499822244
-0.0010079555213451
-0.0004930903669446
0.000153602217324
0.0009233521996065
0.0017938495147973
0.0027329414151608
0.0037033506669104
0.0046674823388457
0.0055900765582919
0.0064391810446977
0.0071876388974487
0.0078144604340195
0.0083036683499813
0.0086389817297458
0.0087948702275753
0.0087296608835458
0.0083864759653806
0.0077015990391373
0.0066188210621476
0.0051080407574772
0.0031813103705644
0.0008990154601633
-0.0016333204694092
-0.0042724604718387
-0.006850017234683
-0.0091921780258417
-0.0111410170793533
-0.0125728771090507
-0.0134128788486123
-0.0136414635926485
-0.0132931340485811
-0.0124524617567658
-0.0112447878345847
-0.0098180323839187
-0.0083220526576042
-0.0068929987028241
-0.0056421835906803
-0.0046466034837067
-0.0039421562105417
-0.0035218850243836
-0.0033402163535356
-0.0033228525426238
-0.0033799060620367
-0.0034197843633592
-0.0033624817151576
-0.0031494004651904
-0.0027474092785269
-0.0021492207888513
-0.0013720697024837
-0.0004534964682534
0.0005554144736379
0.0015971416141837
0.0026149547193199
0.0035599428229033
0.0043951724655926
0.005096617154777
0.0056531494483351
0.0060636652633547
0.0063280388712882
0.0064356923103332
0.0063596321269869
0.0060592084191739
0.0054880697280168
0.0046035759150981
0.0033783654216676
0.0018131895922124
-5.324417725205421e-05
-0.0021403026767075
-0.0043293540365993
-0.0064760744571685
-0.0084278900176286
-0.0100427716970443
-0.0112068764865398
-0.0118474690243601
-0.0119390971958637
-0.0115049667656421
-0.0106139732524752
-0.0093712778761982
-0.0079042948782444
-0.0063484823331236
-0.004832737147808
-0.0034639709629118
-0.0023155221715569
-0.0014215437695384
-0.0007765901973471
-0.0003420512657612
-5.727179814130068e-05
0.0001499791396781
0.0003542150370776
0.000623061787337
0.0010088153649121
0.0015419537667185
0.0022295129019767
0.0030595085117965
0.0040060249157249
0.005030108615756
0.0060807964764535
0.0071017183363437
0.0080401012673974
0.008853618055582
0.0095158293843269
0.0100185377523303
0.0103658782318234
0.0105611616745591
0.0105934403836727
0.0104303862899541
0.0100209042429924
0.0093060005456209
0.0082345176488161
0.0067813945934176
0.0049639190547168
0.0028493963181972
0.0005517349927686
-0.001780571648851
-0.0039821811951696
-0.0058919498696923
-0.0073739131912589
-0.0083341524004936
-0.008730323985219
-0.0085739148780703
-0.00792698841542
-0.0068933763541281
-0.0056046205572783
-0.0042025954462587
-0.0028205791022628
-0.0015663827070966
-0.0005131693324074
0.0003009444335475
0.000870379328262
0.0012203485239297
0.001402762485668
0.0014870332088321
0.001547570573166
0.001652072998695
0.0018534881528466
0.0021856124512851
0.0026620421558618
0.0032788580283522
0.0040187127888202
0.0048527847975492
0.0057421568781137
0.0066427486017346
0.0075117475353181
0.0083109084516763
0.0090074688196182
0.0095754517242312
0.0099963545799255
0.0102549381554126
0.0103305056691169
0.0101906666532158
0.0097918584942817
0.0090859979391098
0.0080317286774516
0.0066078500822186
0.0048251175321638
0.0027326024137437
0.0004175738431513
-0.0019989162683486
-0.0043718321248888
-0.0065503199584782
-0.0083989538252353
-0.009813199751079
-0.0107275042682886
-0.0111194951459765
-0.011010892689228
-0.010463461279869
-0.0095711518079042
-0.0084494324401021
-0.0072216349653899
-0.0060043772682547
-0.0048936591483652
-0.0039542131125926
-0.0032164833974093
-0.0026800904888659
-0.0023188686463981
-0.0020863080862909
-0.0019231816986575
-0.0017678384901955
-0.0015660910867154
-0.0012769578024744
-0.0008745320374146
-0.0003481204621493
0.0002986679319292
0.0010495344176888
0.0018778450321406
0.0027496996335685
0.0036262548528611
0.0044660810381174
0.0052312640473246
0.0058957282453775
0.0064484733156859
0.0068886219523847
0.0072146896272897
0.0074113477021455
0.0074402266182005
0.007242040708661
0.0067484914325177
0.0058978390879929
0.0046523697674274
0.0030145710334181
0.0010352903045713
-0.0011884318664669
-0.003523591440171
-0.0058164387010037
-0.0079091060906648
-0.009656399488449
-0.0109436865895986
-0.0117031568661332
-0.0119225420057773
-0.0116432774811983
-0.0109500214457511
-0.0099562965333461
-0.008789537474513
-0.0075758513994514
-0.0064253732562065
-0.0054210373200476
-0.0046126591041684
-0.0040159719064831
-0.0036156130954623
-0.0033708380069583
-0.0032226145267486
-0.0031023654155433
-0.0029435451142489
-0.0026947110891342
-0.0023280221503227
-0.0018385730218142
-0.0012385761365294
-0.0005515061784535
0.0001939055509865
0.0009688268182799
0.0017462754622101
0.0025014923885464
0.0032122107222676
0.003858289681375
0.0044225119054317
0.0048929839394986
0.0052647860720753
0.0055395103991031
0.0057201590389013
0.0058005084283649
0.005755259655416
0.0055389972403645
0.0050956881605088
0.0043735331855714
0.0033386088907718
0.0019854418933391
0.000345712294802
-0.0015075078699737
-0.0034648985601961
-0.0053949649445712
-0.0071614328771829
-0.0086388820782303
-0.0097248274832963
-0.010349566116929
-0.0104849319905042
-0.0101500796154141
-0.0094110518693923
-0.0083718653768301
-0.0071578728966414
-0.0058958707377314
-0.0046964236535131
-0.0036420044489204
-0.0027808444574475
-0.0021254068706184
-0.0016562519595026
-0.0013300348073244
-0.0010891759302467
-0.0008718520402908
-0.0006200112402439
-0.000285425921902
0.0001651633065193
0.0007466664537787
0.0014545582234859
0.0022674079518765
0.003152436343953
0.0040706302970647
0.0049808677285909
0.0058439364656805
0.0066258674487471
0.0073008174076676
0.0078542083501815
0.0082855466753244
0.008607211522758
0.0088350055739283
0.0089746508747339
0.0090133864432573
0.0089183785021305
0.0086402343586087
0.0081240385770797
0.007326478138566
0.0062318136915564
0.0048618614673614
0.00327830016613
0.0015778969973325
-0.0001169636379927
-0.0016726984176784
-0.0029641049914062
-0.0038934301119297
-0.0044022528454661
-0.0044748508371412
-0.0041354726999998
-0.0034424494951963
-0.0024809853639453
-0.0013550904113799
-0.0001775093842297
0.0009433780796825
0.0019176938803866
0.0026850223075598
0.0032187895849347
0.0035239928402006
0.0036310534924268
0.0035885742399841
0.0034564640372991
0.0032991876360028
0.0031777643598616
0.0031413135584443
0.003221908584237
0.0034346063621342
0.0037789070047438
0.0042372578755021
0.0047742561437189
0.0053428616374731
0.0058944262564182
0.0063860439695417
0.0067846793681383
0.0070688854902982
0.0072288550436496
0.0072662886232137
0.0071929255500435
0.0070245214737951
0.0067702364176511
0.0064230826683342
0.0059570460580289
0.0053314408287405
0.0045004184357821
0.0034253536723554
0.0020878622308373
0.0005005146376788
-0.001288877800107
-0.0032003563828766
