bvp
-0.0001771308016031
0.0001909912098199
0.0005579816643148
0.0008967011235654
0.0011845561675727
0.0014047464355826
0.0015477414708584
0.0016133429016917
0.0016108143609017
0.001555100781843
0.0014616108965128
0.0013426356017589
0.0012050122022628
0.0010482945945113
0.0008642843458801
0.0006381457205861
0.0003502189647406
-2.1754996851086617e-05
-0.0004985621199011
-0.0010933324228972
-0.0018058826681226
-0.0026189931668341
-0.0034967127721756
-0.0043859588913619
-0.0052221687510609
-0.0059387097135186
-0.0064782658591866
-0.0068017086014151
-0.0068908347748219
-0.0067465100437402
-0.0063858870416879
-0.0058395769447088
-0.0051483744755387
-0.0043602576479315
-0.0035273181274533
-0.0027013067156076
-0.0019282577559351
-0.0012439262354746
-0.0006707258289679
-0.0002150522195734
0.0001356292050331
0.0004139185766689
0.000669062952511
0.0009587806416675
0.0013388565275818
0.0018527919892221
0.0025233221240341
0.0033475938253104
0.0042964993044734
0.0053187254816293
0.0063496488146483
0.0073213065043091
0.0081690251827239
0.0088354824110865
0.0092751896008849
0.0094590503722429
0.0093771163374185
0.0090389903634786
0.0084715476259589
0.0077139856293797
0.0068109286949038
0.0058041689917445
0.0047247316688299
0.0035879523493349
0.002393883652985
0.0011334065347909
-0.0002030157484114
-0.0016178323421627
-0.0031017935834825
-0.0046313712373375
-0.006167241372168
-0.0076555786654353
-0.0090337786823511
-0.0102389324456453
-0.0112159820273518
-0.0119238402694463
-0.0123403714969754
-0.0124663431197404
-0.012325445190072
-0.0119597436860203
-0.0114229768514633
-0.0107737965881824
-0.0100701265037059
-0.0093637751415371
-0.0086944019421935
-0.0080847544595599
-0.0075395298190414
-0.0070481142029166
-0.0065902560018002
-0.0061431820504367
-0.0056864828802645
-0.0052027911879122
-0.0046781096607446
-0.0041041425429284
-0.0034797654952853
-0.0028106947429478
-0.0021086439955979
-0.0013893418945372
-0.0006693564355373
3.67029570043087e-05
0.0007174969650804
0.0013651319313794
0.0019758075941354
0.0025507640093564
0.0030951364897191
0.0036139539442956
0.0041080145165324
0.004573181271553
0.005001334939152
0.0053793424740433
0.0056886654347181
0.0059079681523144
0.0060166651383042
0.0059991204179823
0.0058494349941611
0.0055743772536516
0.0051937983371317
0.0047397674061357
0.0042548864148557
0.0037892521359026
0.0033944321330636
0.0031151787843555
0.0029831849969923
0.0030144080519676
0.0032082421239465
0.0035480000078678
0.0040024169720709
0.0045284321531653
0.0050767343491315
0.0055986903607845
0.0060508991591632
0.0063972901552915
0.0066119264811277
0.0066826613619923
0.006613006349653
0.0064221387729048
0.0061442237347364
0.0058246776461601
0.0055115893483161
0.0052465675398707
0.0050588771700859
0.004962240345776
0.0049542216584086
0.0050185099244117
0.0051285945810377
0.0052518704906105
0.0053541352972388
0.0054046865552663
0.0053820707835257
0.0052790185436606
0.0051046209409832
0.0048816623166203
0.004638182464987
0.0043971915729343
0.0041697872802615
0.0039535108953714
0.0037347050383687
0.0034914375282824
0.0031956383027136
0.0028166375122964
0.0023270410019904
0.0017096896190196
0.0009634058224037
0.000105557963252
-0.0008281575283035
-0.0017863725079223
-0.0027084620669484
-0.0035339682362973
-0.0042113065719604
-0.0047038113698363
-0.0049936836585402
-0.0050831418484449
-0.0049924803897738
-0.0047570602037012
-0.0044237184338271
-0.0040454752743244
-0.0036751022562384
-0.0033588653896003
-0.0031312936916947
-0.00301203597337
-0.0030050533823668
-0.0030992331448942
-0.0032706637866795
-0.0034861520398408
-0.0037061083130538
-0.0038885499816387
-0.003996112383902
-0.0040023503825068
-0.0038946270942687
-0.0036747860722243
-0.0033576758578419
-0.0029679334256798
-0.0025368619244545
-0.0020992280915379
-0.0016886034281924
-0.0013317253906279
-0.0010444517247378
-0.0008318242616951
-0.0006914623081684
-0.0006172149442136
-0.0006020152941346
-0.0006408041808754
-0.0007329354993999
-0.0008819557260721
-0.0010935049504041
-0.0013745526084676
-0.0017336562741547
-0.0021784417331218
-0.0027095600962638
-0.0033149747177958
-0.0039675002917647
-0.0046256016939878
-0.0052373278886079
-0.0057472176849842
-0.0061048506759107
-0.0062735150568187
-0.0062366984784603
-0.0059996000491082
-0.0055860755965113
-0.0050327824428677
-0.0043806536123156
-0.0036639710888266
-0.0028985056560486
-0.0020735620055347
-0.0011506241280585
-6.215053144842386e-05
0.0012932079844176
0.0030504323076456
0.0053662024438381
0.0083990981802344
0.0122843412682414
0.0171044636517763
0.0228659957647323
0.029489791020751
0.0368124172091484
0.0445969849824905
0.0525568760931491
0.0603927299380302
0.0678350403904914
0.074677787721157
0.0807853639125824
0.0860661342740058
0.0904256030917167
0.0937216281890869
0.0957412272691726
0.0962094515562057
0.0948281064629554
0.091331735253334
0.0855449736118316
0.0774309188127517
0.0671240091323852
0.0549389198422431
0.0413496494293212
0.0269426070153713
0.0123524963855743
-0.0018096566200256
-0.0150245539844036
-0.0269163399934768
-0.0372807756066322
-0.0460860095918178
-0.0534445010125637
-0.0595639459788799
-0.0646937191486358
-0.069080650806427
-0.0729388296604156
-0.0764325335621833
-0.0796703845262527
-0.0827081725001335
-0.0855562761425972
-0.0881878435611724
-0.0905470103025436
-0.0925596058368682
-0.0941479057073593
-0.0952474772930145
-0.0958220288157463
-0.0958711206912994
-0.0954279378056526
-0.0945491790771484
-0.093301236629486
-0.0917478799819946
-0.0899424850940704
-0.0879240185022354
-0.0857171490788459
-0.083336092531681
-0.0807884037494659
-0.0780771076679229
-0.0752033144235611
-0.0721703022718429
-0.0689877942204475
-0.0656753182411193
-0.0622637048363685
-0.0587925910949707
-0.05530346930027
-0.0518321953713893
-0.0484046414494514
-0.0450346209108829
-0.0417221933603286
-0.0384536571800708
-0.0352052561938762
-0.0319487079977989
-0.0286557227373123
-0.0253016762435436
-0.0218681152909994
-0.0183434970676898
-0.0147240720689296
-0.01101566106081
-0.0072344914078712
-0.0034058205783367
0.0004384405910968
0.0042617693543434
0.0080248638987541
0.0116878636181354
0.0152143612504005
0.018576867878437
0.0217595212161541
0.0247565880417823
0.0275701358914375
0.0302088521420955
0.0326872281730175
0.035024244338274
0.0372413024306297
0.0393593125045299
0.0413956195116043
0.0433617457747459
0.0452624857425689
0.0470958724617958
0.0488532371819019
0.0505207106471061
0.0520830079913139
0.0535269938409328
0.0548431873321533
0.0560260266065597
0.0570724345743656
0.0579787567257881
0.0587388277053833
0.0593435056507587
0.0597806088626384
0.060036726295948
0.0601004995405674
0.0599651634693145
0.0596309788525104
0.0591074153780937
0.0584133341908454
0.0575759522616863
0.0566296130418777
0.0556128695607185
0.0545642562210559
0.0535182021558284
0.0524996556341648
0.0515180490911006
0.0505653694272041
0.0496203377842903
0.0486559532582759
0.0476466305553913
0.0465722158551216
0.0454187020659446
0.0441779159009456
0.0428472720086574
0.0414296612143516
0.0399336889386177
0.0383735448122024
0.0367670468986034
0.0351324826478958
0.0334860533475875
0.0318400301039218
0.0302015300840139
0.0285724643617868
0.026950029656291
0.0253282077610492
0.0237008389085531
0.0220638234168291
0.0204155351966619
0.0187564697116613
0.0170878916978836
0.0154110798612236
0.0137281529605388
0.0120417727157473
0.0103529039770364
0.0086592016741633
0.0069547723978757
0.005230073351413
0.0034732115454971
0.0016747044865041
-0.0001670987694524
-0.0020443846005946
-0.0039418586529791
-0.0058391983620822
-0.0077117630280554
-0.0095298308879137
-0.0112593472003936
-0.0128658758476376
-0.014319852925837
-0.0156017243862152
-0.0167056750506162
-0.0176399145275354
-0.0184243917465209
-0.0190874692052602
-0.0196613240987062
-0.0201770383864641
-0.0206619538366794
-0.0211389847099781
-0.0216249469667673
-0.0221275128424167
-0.0226434785872697
-0.0231609363108873
-0.0236639250069856
-0.0241351444274187
-0.0245563071221113
-0.0249092746526002
-0.0251787453889846
-0.0253544468432664
-0.025431765243411
-0.0254126079380512
-0.025306649506092
-0.0251299608498811
-0.0249007884413003
-0.0246359631419181
-0.024349320679903
-0.0240509826689958
-0.0237480700016021
-0.0234467964619398
-0.0231535360217094
-0.0228747446089983
-0.0226176232099533
-0.0223914384841918
-0.0222072768956422
-0.0220755003392696
-0.0220027398318052
-0.0219901781529188
-0.0220325421541929
-0.0221165157854557
-0.02221898175776
-0.0223070792853832
-0.0223423037678003
-0.0222873631864786
-0.022111726924777
-0.0217955633997917
-0.0213325638324022
-0.0207299329340457
-0.0200062654912471
-0.019188068807125
-0.0183047764003276
-0.0173845328390598
-0.0164520125836133
-0.0155280753970146
-0.0146304303780198
-0.0137721309438347
-0.0129577759653329
-0.012182168662548
-0.0114333145320415
-0.0106966374441981
-0.0099582187831401
-0.0092071034014225
-0.0084367301315069
-0.0076453881338238
-0.0068348115310072
-0.0060075866058468
-0.0051662819460034
-0.0043137380853295
-0.0034514805302023
-0.0025768994819372
-0.0016826200298964
-0.0007598407100886
0.0001955933403223
0.0011776438914239
0.0021673054434359
0.0031320403795689
0.0040270192548632
0.0047992328181862
0.0053947824053466
0.0057684769853949
0.0058930036611855
0.0057640839368104
0.0054014874622225
0.0048480182886123
0.0041659381240606
0.0034295539371669
0.0027164600323885
0.0020993794314563
0.0016372451791539
0.0013676199596375
0.0013044748920947
0.001439988380298
0.0017475651111453
0.0021870958153158
0.0027126497589051
0.0032794494181871
0.0038486092817038
0.0043899342417716
0.0048821521922945
0.0053120045922696
0.0056746685877442
0.0059737651608884
0.0062190517783164
0.0064239306375384
0.0066046183928847
0.0067798607051372
0.0069682756438851
0.0071832831017673
0.007430369965732
0.0077084018848836
0.0080113178119063
0.0083285123109817
0.0086456555873155
0.0089468518272042
0.009217127226293
0.0094448048621416
0.0096235917881131
0.0097531462088227
0.0098382635042071
0.0098868738859891
0.0099058067426085
0.0098969982936978
0.0098580447956919
0.0097857695072889
0.0096800178289413
0.0095475278794765
0.0094061968848109
0.0092896837741136
0.0092516792938113
0.0093688480556011
0.0097409673035144
0.0104842642322182
0.0117128938436508
0.0135099701583385
0.015899159014225
0.0188270453363657
0.0221593119204044
0.0256921090185642
0.0291764866560697
0.0323479957878589
0.0349554680287838
0.0367876142263412
0.037695974111557
0.0376102924346923
0.0365422889590263
0.0345774516463279
0.0318577215075492
0.0285593140870332
0.0248702280223369
0.0209700502455234
0.01701445505023
0.0131269544363021
0.0093962177634239
0.0058765653520822
0.0025920122861862
-0.0004571881145238
-0.0032866280525922
-0.0059187859296798
-0.0083761727437376
-0.0106786675751209
-0.0128419650718569
-0.0148742673918604
-0.0167727954685688
-0.0185239296406507
-0.0201090406626462
-0.0215143971145153
-0.0227393489331007
-0.0237971041351556
-0.024710102006793
-0.0255050249397754
-0.02620848454535
-0.0268438849598169
-0.0274305250495672
-0.0279834140092134
-0.0285111907869577
-0.0290128570050001
-0.0294764153659343
-0.0298800189048051
-0.0301950667053461
-0.0303911324590444
-0.0304402112960815
-0.0303195379674434
-0.0300155952572822
-0.0295278280973434
-0.0288683325052261
-0.028058860450983
-0.0271284542977809
-0.0261120237410068
-0.025048442184925
-0.023977130651474
-0.0229342095553874
-0.0219504684209823
-0.0210504159331321
-0.0202509947121143
-0.0195614397525787
-0.0189845375716686
-0.0185178220272064
-0.0181542858481407
-0.0178810246288776
-0.0176750365644693
-0.0174997262656688
-0.0173057802021503
-0.0170365963131189
-0.0166367143392562
-0.0160605311393737
-0.0152782760560512
-0.0142784919589757
-0.0130673442035913
-0.0116657689213752
-0.0101061835885047
-0.0084288995712995
-0.0066781640052795
-0.0048995045945048
-0.003139323554933
-0.0014440221711993
0.0001443475484848
0.0015932759270071
0.0028815222904086
0.0039988728240132
0.0049477480351924
0.0057454025372862
0.0064230198040604
0.0070217475295066
0.0075877010822296
0.0081660775467753
0.0087953628972172
0.0095038032159209
0.0103067373856902
0.0112038170918822
0.0121794734150171
0.0132071645930409
0.0142542719841003
0.0152861168608069
0.0162694938480854
0.0171758644282817
0.0179829560220241
0.0186751503497362
0.0192450247704982
0.01969507150352
0.020036956295371
0.0202886816114187
0.0204715318977832
0.020607778802514
0.0207183510065078
0.0208197832107543
0.0209221709519624
0.0210287012159824
0.0211357437074184
0.0212334785610437
0.021307423710823
0.0213415902107954
0.0213229954242706
0.0212448295205831
0.0211065858602523
0.0209122411906719
0.0206681098788976
0.0203811209648847
0.0200570281594991
0.0196981187909841
0.0193016268312931
0.0188599824905395
0.0183617658913135
0.0177927762269973
0.0171384382992982
0.0163872428238391
0.0155340610072016
0.014583209529519
0.0135504277423024
0.012462617829442
0.0113557633012533
0.0102715650573372
0.0092526050284504
0.0083366455510258
0.0075512072071433
0.0069094416685402
0.0064087649807333
0.006033387966454
0.005758955143392
0.0055556292645633
0.005390056874603
0.0052286209538578
0.0050401268526911
0.0047968039289116
0.0044768918305635
0.004069045651704
0.0035736132413148
0.0029989467002451
0.0023564686998724
0.0016577746719121
0.000914147007279
0.0001373384147882
-0.0006594595033675
-0.0014606982003897
-0.0022487668320536
-0.0030068340711295
-0.0037218141369521
-0.0043854024261236
-0.0049956338480114
-0.0055580982007086
-0.0060825794935226
-0.006577359046787
-0.0070462590083479
-0.0074891708791255
-0.0079054711386561
-0.008298403583467
-0.0086765438318252
-0.0090521350502967
-0.0094386748969554
-0.0098484139889478
-0.0102907717227935
-0.010771912522614
-0.0112934857606887
-0.0118502704426646
-0.0124279204756021
-0.0130016496405005
-0.0135375894606113
-0.0139972455799579
-0.0143430586904287
-0.0145433936268091
-0.0145766017958521
-0.0144342267885804
-0.0141230691224336
-0.0136663001030683
-0.0131024802103638
-0.0124792028218507
-0.0118436552584171
-0.0112369870766997
-0.0106924008578062
-0.010233418084681
-0.0098729720339179
-0.0096130324527621
-0.0094436202198266
-0.0093431761488318
-0.0092805717140436
-0.009218044579029
-0.0091171246021986
-0.0089461393654346
-0.0086842961609363
-0.0083222454413771
-0.0078611271455883
-0.0073098111897706
-0.0066822217777371
-0.005996105261147
-0.0052714166231453
-0.0045285043306648
-0.0037860546726733
-0.0030564814805984
-0.002340362407267
-0.0016258915420621
-0.0008954912191256
-0.0001353289117105
0.0006564593641087
0.0014643324539065
0.0022546462714672
0.0029802005738019
0.0035867576953023
0.0040199542418122
0.0042339893989264
0.0042006340809166
0.0039154952391982
0.003401304828003
0.0027078248094767
0.0019061209168285
0.0010783470934256
0.0003068620571866
-0.0003365963930264
-0.000800849404186
-0.0010603661648929
-0.0011146573815494
-0.0009854771196842
-0.0007126363925635
-0.0003463239409029
6.265286356210709e-05
0.0004699686542153
0.0008405784610658
0.0011500513646751
0.0013861003099009
0.0015491457888856
0.0016517367912456
0.0017160266870632
0.0017677245195955
0.0018302253447473
0.0019226593431085
0.0020590559579432
0.0022463076747953
0.0024825888685882
0.002758250804618
0.0030592619441449
0.0033706510439515
0.0036779353395104
0.003967685624957
0.0042287777177989
0.0044537708163261
0.004639618564397
0.0047870352864265
0.0048973383381962
0.0049683637917041
0.0049927248619496
0.0049587246030569
0.0048521850258111
0.0046586408279836
0.0043663252145051
0.0039694048464298
0.0034715649671852
0.0028901286423206
0.0022574998438358
0.0016181361861526
0.0010239710099995
0.0005298957694321
0.0001883388031274
4.353909753262997e-05
0.0001271308865398
0.0004552865866571
0.0010275759268552
0.0018283881945535
0.0028302613645792
0.0039972076192498
0.005287542939186
0.0066570593044161
0.0080625209957361
0.0094643849879503
0.0108280694112181
0.0121239610016345
0.0133265191689133
0.0144122168421745
0.0153572494164109
0.0161368213593959
0.0167260076850652
0.0171022322028875
0.0172494165599346
0.0171607267111539
0.016837939620018
0.0162899363785982
0.0155325895175337
0.0145892854779958
0.0134899923577904
0.0122688170522451
0.0109613006934523
0.0096003944054245
0.0082108369097113
0.0068051926791667
0.0053836070001125
0.0039363363757729
0.0024475390091538
0.0008988920599222
-0.000727504491806
-0.0024464279413223
-0.004266713745892
-0.0061872014775872
-0.0081912111490964
-0.0102429669350385
-0.0122888702899217
-0.0142628671601414
-0.0160946864634752
-0.0177199766039848
-0.0190894734114408
-0.0201750975102186
-0.0209723636507987
-0.0214973203837871
-0.0217790342867374
-0.021852534264326
-0.0217549428343772
-0.0215239562094211
-0.0211966708302497
-0.020807284861803
-0.0203832536935806
-0.0199409238994121
-0.0194831546396017
-0.0190008431673049
-0.0184777770191431
-0.017896506935358
-0.0172427762299776
-0.0165074691176414
-0.0156865678727626
-0.014780992642045
-0.0137979304417967
-0.0127525217831134
-0.0116675719618797
-0.010570416226983
-0.009488015435636
-0.0084430612623691
-0.007452767342329
-0.0065289698541164
-0.0056792022660374
-0.0049099456518888
-0.0042302352376282
-0.0036519025452435
-0.0031855097040534
-0.0028356651309877
-0.0025995937176048
-0.0024678595364093
-0.0024249339476227
-0.0024500112049281
-0.0025185164995491
-0.002603247296065
-0.0026739262975752
-0.0026963436976075
-0.0026328116655349
-0.0024434286169707
-0.002089322078973
-0.0015389886684715
-0.0007758252322673
0.0001949542202055
0.0013432689011096
0.0026179878041148
0.0039552138186991
0.0052866367623209
0.0065464721992611
0.0076776230707764
0.0086367893964052
0.0093977861106395
0.0099533647298812
0.0103155802935361
0.0105144931003451
0.0105953775346279
0.0106140132993459
0.0106292273849248
0.0106931393966078
0.0108415363356471
0.0110879745334386
0.0114241475239396
0.0118261519819498
0.0122623164206743
0.0126981884241104
0.0131005244329571
0.013442663475871
0.0137075800448656
0.0138864098116755
0.0139747280627489
0.0139680784195661
0.0138576030731201
0.0136281549930572
0.0132611906155943
0.012740908190608
0.0120589137077331
0.0112159494310617
0.0102232778444886
0.0091047910973429
0.0078984703868627
0.006655880715698
0.0054381792433559
0.0043075201101601
0.0033176864963024
0.0025102482177317
0.0019156448543071
0.0015536460559815
0.0014320316258817
0.0015469919890165
0.00188524951227
0.0024229758419096
0.0031209499575197
0.0039208689704537
0.0047465655952692
0.0055124824866652
0.0061400774866342
0.0065772919915616
0.006810906343162
0.0068635577335953
0.0067779892124235
0.0066002616658806
0.0063704131171107
0.0061206896789371
0.0058791209012269
0.0056758746504783
0.0055460846051573
0.0055220108479261
0.0056162094697356
0.0058066565543413
0.0060325860977172
0.0062024923972785
0.0062115686014294
0.0059621823020279
0.0053800009191036
0.0044230730272829
0.0030840807594358
0.0013856496661901
-0.0006291586905717
-0.0029061180539429
-0.0053843930363655
-0.0079952720552682
-0.0106578711420297
-0.0132767874747514
-0.0157456658780574
-0.0179562605917453
-0.0198088362812995
-0.0212199445813894
-0.0221250783652067
-0.0224761851131916
-0.0222387053072452
-0.0213934928178787
-0.0199435874819755
-0.0179212689399719
-0.015393242239952
-0.0124648250639438
-0.0092812636867165
-0.0060216388665139
-0.0028818196151405
-4.881899803876877e-05
0.0023247087374329
0.0041381292976439
0.0053503606468439
0.0059792203828692
0.0060939267277717
0.0058002355508506
0.0052209794521331
0.0044769686646759
0.0036714514717459
0.0028800340369343
0.0021471045911312
0.0014890804886817
0.000903433188796
0.0003800825215876
-8.90800729393959e-05
-0.000505588017404
-0.0008669821545481
-0.0011763898655772
-0.0014530601911246
-0.0017356444150209
-0.0020756097510457
-0.0025250790640711
-0.0031251281034201
-0.003897096728906
-0.0048376084305346
-0.0059186164289712
-0.0070907762274146
-0.0082871653139591
-0.0094285476952791
-0.0104324109852314
-0.0112247802317142
-0.0117516163736581
-0.0119856093078851
-0.0119257252663373
-0.0115912305191159
-0.0110144549980759
-0.010235565714538
-0.0092992829158902
-0.0082517201080918
-0.0071380445733666
-0.0060031428001821
-0.004892602097243
-0.0038487173151224
-0.0029043606482446
-0.0020814843010157
-0.0013929654378443
-0.0008430573507212
-0.000426409416832
-0.0001270627835765
8.158455602824688e-05
0.0002341832732781
0.0003694741753861
0.0005267658270895
0.0007403793279081
0.0010317934211343
0.0014049269957467
0.0018481116276234
0.0023402408696711
0.0028573586605489
0.0033782932441681
0.0038879737257957
0.0043769474141299
0.0048379665240645
0.0052628265693783
0.0056415600702166
0.0059626502916216
0.006213232409209
0.0063800006173551
0.0064503541216254
0.0064143193885684
0.0062683471478521
0.0060190735384821
0.0056855678558349
0.0052994270808994
0.004900702740997
0.0045304992236196
0.0042232125997543
0.0039993585087358
0.0038615642115473
0.003797119250521
0.00378467165865
0.0037999339401721
0.0038188244216144
0.0038194563239812
0.0037842725869268
0.0037024766206741
0.0035721198655664
0.0034000780433416
0.0031986425165086
0.0029810576234012
0.0027600426692515
0.0025491768028587
0.0023630019277334
0.0022147558629512
0.0021145767532289
0.002069519367069
0.0020845378749072
0.0021630201954394
0.0023054294288158
0.0025069362018257
0.0027564875781536
0.0030372887849807
0.0033283124212175
0.0036075592506676
0.0038554691709578
0.0040564825758337
0.0041988436132669
0.0042731217108666
0.0042700706981122
0.0041796015575528
0.0039920741692185
0.0037002572789788
0.0033009899780154
0.0027972450479865
0.0021993818227201
0.0015250047435984
0.0007984664989635
4.984409315511584e-05
-0.0006869112839922
-0.0013770326040685
-0.0019895108416676
-0.0025013028644025
-0.0028988644480705
-0.0031767331529408
-0.003334900829941
-0.0033775016199797
-0.0033132471144199
-0.0031561208888888
-0.0029257594142109
-0.0026471358723938
-0.0023485720157623
-0.0020580841228365
-0.0017994130030274
-0.0015889897476881
-0.0014337247703224
-0.0013297613477334
-0.0012635036837309
-0.0012152176350355
-0.0011637897696346
-0.0010914269369095
-0.000988008105196
-0.0008536372915841
-0.0006968849338591
-0.0005296747549436
-0.0003625545068643
-0.000201620219741
-4.718016134575009e-05
0.000104640435893
0.0002580217260401
0.0004141156678088
0.0005696505540981
0.0007166573195718
0.0008419533260166
0.0009265018161386
0.0009472272940911
0.000882992753759
0.0007215961813926
0.0004631710180547
0.0001203094579977
-0.0002823753166012
-0.0007103215903043
-0.0011248145019635
-0.0014903628034517
-0.0017796384636312
-0.0019749789498746
-0.0020680457819253
-0.0020588422194123
-0.0019544893875718
-0.0017680858727544
-0.001518036937341
-0.0012276584748178
-0.0009237187332473
-0.0006333161727525
-0.0003804159932769
-0.0001826654770411
-4.856746818404645e-05
2.339785714866593e-05
4.309164796723053e-05
2.569943899288773e-05
-1.1842937965411691e-05
-5.41587796760723e-05
-8.911314216675237e-05
-0.0001074593164958
-0.0001011959902825
-6.232581654330716e-05
1.629011967452243e-05
0.000138947070809
0.0003063132171519
0.0005154617829248
0.0007588173029944
0.001022492069751
0.0012854563537985
0.001520266989246
0.0016959677450358
0.0017829820280894
0.0017594089731574
0.0016158604994416
0.001355085754767
0.0009881402365863
0.0005320912459865
1.0337622370570898e-05
-0.0005473216297104
-0.0011071693152189
-0.0016361500602215
-0.0021057142876088
-0.0024928345810621
-0.0027791031170636
-0.002950137713924
-0.0029968479648232
-0.0029176175594329
-0.0027198332827538
-0.0024210880510509
-0.0020491885952651
-0.0016395364655181
-0.0012305262498557
-0.0008570956997573
-0.0005434317863546
-0.0002984756138175
-0.0001158163940999
2.318905899301172e-05
0.0001442211796529
0.0002748449333012
0.0004416285082697
0.0006678862264379
0.0009689544676803
0.0013474868610501
0.0017927883891388
0.0022827368229627
0.0027868265751749
0.0032711860258132
0.0037036731373518
0.0040570115670561
0.0043107802048325
0.0044523319229483
0.0044757248833775
0.0043792119249701
0.0041626677848398
0.003826756728813
0.0033752862364053
0.0028183117974549
0.002172116190195
0.0014571275096386
0.0006975152064114
-7.743993774056435e-05
-0.0008337284671142
-0.0015363864367827
-0.0021540550515055
-0.0026611525099724
-0.0030372315086424
-0.0032666476909071
-0.003340890398249
-0.0032604883890599
-0.0030337492935359
-0.002674899296835
-0.0022047036327421
-0.0016533372690901
-0.0010619515087455
-0.0004787960788235
4.8868823796510696e-05
0.0004814371932297
0.0007902515353634
0.0009595502633601
0.0009880274301394
0.0008892898913472
0.0006899769650772
0.0004249267512932
0.0001312076346948
-0.0001562139950692
-0.0004076106706634
-0.0006020904984325
-0.0007297961274161
-0.0007911372231319
-0.0007948819547891
-0.0007556221680715
-0.0006898548454046
-0.0006120046600699
-0.0005322344368323
-0.0004572137258946
-0.0003937777364626
-0.0003523277118802
-0.0003467908827587
-0.0003919709706678
-0.0005012501496821
-0.0006856364198029
-0.0009522933978587
-0.0013022568309679
-0.0017293724231421
-0.0022208143491297
-0.0027572608087211
-0.0033107372000813
-0.0038426141254603
-0.004306613933295
-0.0046560019254684
-0.004851212259382
-0.0048668980598449
-0.0046970532275736
-0.0043548229150474
-0.0038676059339195
-0.0032726097851991
-0.0026138401590287
-0.0019374184776097
-0.0012850648490712
-0.0006884456961415
-0.0001671606150921
0.0002689777757041
0.0006171304266899
0.000881670450326
0.001075072097592
0.0012158900499343
0.0013243467546999
0.0014178520068526
0.0015091113746166
0.0016073131700977
0.0017191226361319
0.0018476189579814
0.0019912123680114
0.0021438309922814
0.0022952624130994
0.0024322015233337
0.0025412060786038
0.0026125744916498
0.0026434499304741
0.0026380941271781
0.0026045183185487
0.0025499162729829
0.0024777913931757
0.0023869792930781
0.0022714796941727
0.0021210496779531
0.0019229552708566
0.001664659823291
0.0013368352083489
0.0009358396055176
0.0004651357012335
-6.365514127537608e-05
-0.0006297945510596
-0.0012040510773658
-0.0017515777144581
-0.0022358128335326
-0.0026227722410112
-0.0028856671415269
-0.0030081807635724
-0.0029851770959794
-0.002822503214702
-0.0025370768271386
-0.0021559479646384
-0.0017136670649051
-0.0012479699216783
-0.0007936747861094
-0.0003771252813749
-1.401756890118122e-05
0.0002901686239056
0.0005394599866122
0.000746281875763
0.0009289853041991
0.00110804149881
0.0013005554210394
0.0015136590227484
0.0017400955548509
0.001959822140634
0.0021469460334628
0.0022766718175262
0.0023292396217584
0.0022922735661268
0.0021624041255563
0.0019459289032965
0.0016586070414632
0.0013222900452092
0.0009583747014403
0.0005835648044012
0.0002094286319334
-0.0001577333023305
-0.0005173364188522
-0.000874257297255
-0.0012383050052449
-0.001622109208256
-0.0020355402957648
-0.0024795536883175
-0.0029432768933475
-0.0034045041538774
-0.0038333632983267
-0.0041975937783718
-0.0044665578752756
-0.0046143564395606
-0.0046228468418121
-0.0044840415939688
-0.0042019388638436
-0.0037926076911389
-0.0032822901848703
-0.0027052185032516
-0.0021001750137656
-0.0015047816559672
-0.000950314104557
-0.0004593734629452
-4.476332105696201e-05
0.0002918825484812
0.0005589770153164
0.0007708431221544
0.0009448931086808
0.001100952271372
0.0012595632579177
0.0014386684633791
0.0016503459773957
0.0018985066562891
0.0021777357906103
0.0024742430541664
0.0027700429782271
0.0030487582553178
0.0033000481780618
0.003521017730236
0.0037139542400836
0.0038816449232399
0.0040238280780613
0.0041361092589795
0.004209759645164
0.0042325723916292
0.004190816078335
0.0040705222636461
0.0038589113391935
0.0035475180484354
0.0031355395913124
0.0026320829056203
0.0020575006492435
0.0014435690827667
0.0008320012129843
0.0002707538660615
-0.0001923684030771
-0.0005182632012292
-0.0006844309391453
-0.0006880431901663
-0.0005429262528195
-0.0002748821862041
8.067279122769833e-05
0.0004811553517356
0.0008821579394862
0.0012440491700544
0.0015374015783891
0.0017462616087868
0.0018685386748984
0.0019134483300149
0.0018979001324623
0.0018433909863233
0.0017729785759001
0.0017080757534131
0.0016657288651913
0.0016566722188144
0.0016847182996571
0.0017475887434557
0.0018373964121565
0.0019409614615142
0.0020424507092684
0.0021279396023601
0.002188962418586
0.0022235519718378
0.0022345460020005
0.0022253873758018
0.002195993438363
0.0021410952322185
0.0020501466933637
0.001907515223138
0.0016938729677349
0.0013903621584177
0.0009838541736826
0.000470298458822
-0.0001433349680155
-0.0008377307094633
-0.0015818392857909
-0.0023361791390925
-0.0030581471510231
-0.0037070484831929
-0.0042474744841456
-0.0046516861766576
-0.0049007330089807
-0.0049846656620502
-0.004904109518975
-0.0046728132292628
-0.004317803774029
-0.0038761091418564
-0.0033895205706357
-0.0028992337174713
-0.0024417494423687
-0.0020452749449759
-0.0017261470202356
-0.0014872942119836
-0.0013196121435612
-0.0012056205887347
-0.0011248800437897
-0.0010583074763417
-0.0009890047367662
-0.0009020692086778
-0.0007859947509132
-0.000634538650047
-0.0004479514900594
-0.0002335682511329
-4.838220775127411e-06
0.0002213404513895
0.0004287034971639
0.0006064164917916
0.0007508775452151
0.0008628549985587
0.0009435535175725
0.0009916764684021
0.0010016394080594
0.0009644945384934
0.0008701510960236
0.0007082148222252
0.000469131860882
0.0001470310380682
-0.000257923384197
-0.0007383178453892
-0.0012781135737895
-0.0018523854669183
-0.0024293176829814
-0.0029730214737355
-0.0034468965604901
-0.0038174053188413
-0.0040578050538897
-0.0041515557095408
-0.0040938938036561
-0.0038924352265894
-0.0035675594117492
-0.0031503839418292
-0.002678349148482
-0.00218993332237
-0.0017200756119564
-0.0012976918369531
-0.000943949795328
-0.0006701932288706
-0.0004763408214785
-0.0003510019159875
-0.0002748337283264
-0.0002255085564684
-0.0001805233914637
-0.0001179378596134
-1.7454702174291015e-05
0.0001375134743284
0.0003570530971046
0.0006415933021344
0.0009805869776755
0.0013545185793191
0.0017383685335516
0.0021057107951492
0.002433564281091
0.0027060178108513
0.0029152110219001
0.0030599369201809
0.0031429203227162
0.0031676981598138
0.0031358741689473
0.0030459780246019
0.0028939470648765
0.002674440620467
0.0023822935763746
0.0020135249942541
0.0015668628038838
0.0010461991187185
0.0004623496206477
-0.0001652897190069
-0.0008067401358857
-0.0014230741653591
-0.0019728261977434
-0.0024190491531044
-0.0027347940485924
-0.002906696870923
-0.0029352924320846
-0.0028319724369794
-0.002615328412503
-0.0023094376083463
-0.0019433319102972
-0.0015500134322792
-0.0011642016470432
-0.0008176141418516
-0.0005333109293133
-0.0003226301632821
-0.0001849447144195
-0.0001089097931981
-7.492618169635534e-05
-5.89786795899272e-05
-3.745092544704676e-05
9.535113349556925e-06
9.740469977259636e-05
0.0002365402178838
0.0004304663743823
0.0006744675338268
0.0009561214828863
0.001257432391867
0.0015578226884827
0.0018379079410806
0.0020839550998061
0.0022914370056241
0.0024641789495944
0.0026083309203386
0.0027260491624474
0.0028132167644798
0.0028602331876754
0.0028537099715322
0.0027782542165368
0.0026177852414548
0.0023573481012135
0.0019859313033521
0.0014993923250585
0.0009040592703968
0.0002204414922744
-0.0005165027105249
-0.0012620100751519
-0.0019677681848406
-0.002586814109236
-0.0030777517240494
-0.0034088415559381
-0.0035615051165223
-0.0035331617109477
-0.0033379876986145
-0.0030048508197069
-0.0025735241360962
-0.0020892834290862
-0.001596946385689
-0.0011365620885044
-0.0007405744399875
-0.0004306276096031
-0.0002139509888365
-8.230749517679214e-05
-1.4564953744411469e-05
1.925276592373848e-05
5.248747766017914e-05
0.0001151481410488
0.000229402212426
0.0004082504892721
0.0006547146476805
0.0009613711736164
0.001311958534643
0.0016845702193677
0.0020561644341796
0.0024080525618046
0.0027288664132356
0.0030124145559966
0.0032531078904867
0.0034432834945619
0.0035732593387365
0.0036327382549643
0.0036119814030826
0.0035012550652027
0.0032902429811656
0.0029699108563363
0.0025353063829243
0.0019879899919033
0.0013387189246714
0.0006098311860114
-0.0001636351225897
-0.0009353386121802
-0.0016535181785002
-0.002269442891702
-0.0027434658259153
-0.0030481205321848
-0.0031697647646069
-0.0031089684925973
-0.0028804559260606
-0.002512258477509
-0.0020427303388714
-0.0015160186449065
-0.0009774509817361
-0.0004690556088462
-2.513278741389513e-05
0.0003316224901936
0.0005926166777499
0.000763107149396
0.0008591289515607
0.0009035117109306
0.0009220851352438
0.0009402226423844
0.0009800656698644
0.0010580460075289
0.0011826320551335
0.0013536295155063
0.0015633900184184
0.0017985343001782
0.0020426949486136
0.0022812630049884
0.0025042083580046
0.0027031344361603
0.0028660052921622
0.0029749991372227
0.0030084596946835
0.0029452983289957
0.0027689733542501
0.0024691321887075
0.0020426067057996
0.0014951014891266
0.0008425106643699
0.0001103422255255
-0.000668853521347
-0.00145768688526
-0.0022146278060972
-0.0028954383451491
-0.0034573720768094
-0.0038651484064757
-0.0040956819429993
-0.0041401498019695
-0.0040044276975095
-0.0037089532706886
-0.0032873563468456
-0.0027827392332255
-0.0022426962386816
-0.0017143065342679
-0.0012390986084938
-0.0008482254343107
-0.0005584254395216
-0.0003711262834258
-0.0002753906883299
-0.0002505705633666
-0.0002674644929356
-0.0002919719554483
-0.0002915052173193
-0.0002394298207946
-0.0001162498665507
8.879791130311787e-05
0.0003753166529349
0.0007325829938054
0.0011443173279985
0.0015929990913718
0.0020609761122614
0.0025300653651356
0.0029813786968588
0.0033954104874283
0.0037523042410612
0.0040325154550373
0.004218716174364
0.0042984220199286
0.0042648944072425
0.0041166692972183
0.003858889453113
0.0035056620836257
0.0030796434730291
0.0026093230117112
0.002127471147105
0.0016721920110285
0.0012882188893854
0.0010250797495245
0.0009323789272457
0.0010544175747781
0.0014254478737711
0.0020658783614635
0.0029784960206598
0.0041444851085543
0.0055216141045093
0.0070465332828462
0.0086409244686365
0.010220069438219
0.0117016034200787
0.0130128636956214
0.0140960440039634
0.0149106048047542
0.0154332257807254
0.0156555715948343
0.0155801074579358
0.0152153354138135
0.0145727349445223
0.0136680211871862
0.012524795718491
0.0111747477203607
0.0096546001732349
0.0080040926113724
0.0062643149867653
0.0044744377955794
0.0026686443015933
0.0008739847689867
-0.0008916016668081
-0.0026203915476799
-0.0043144570663571
-0.0059835882857441
-0.0076425671577453
-0.0093091633170843
-0.0110018216073513
-0.0127359014004468
-0.0145181119441986
-0.0163394529372453
-0.0181704219430685
-0.0199615471065044
-0.021648034453392
-0.0231574922800064
-0.0244200155138969
-0.0253778658807277
-0.0259919241070747
-0.0262446217238903
-0.0261403284966945
-0.0257040951400995
-0.0249805860221385
-0.0240329466760158
-0.0229383669793605
-0.0217801295220851
-0.0206384360790252
-0.019580740481615
-0.018653018400073
-0.0178752578794956
-0.0172421410679817
-0.0167264528572559
-0.0162841379642486
-0.0158618949353694
-0.0154061969369649
-0.0148710664361715
-0.014223325997591
-0.0134457806125283
-0.0125388605520129
-0.0115199079737067
-0.0104188360273838
-0.0092707928270101
-0.008108852431178
-0.0069595859386026
-0.0058417902328073
-0.0047671808861196
-0.003742538858205
-0.0027731843292713
-0.0018662814982235
-0.0010319994762539
-0.0002826028503477
0.0003690952435135
0.000911395996809
0.0013360953889787
0.0016412017866969
0.0018330700695514
0.0019294060766696
0.0019625183194875
0.0019782213494181
0.0020296983420848
0.0021701250225305
0.0024461327120661
0.002891432493925
0.0035205595195293
0.0043254811316728
0.0052767880260944
0.0063286134973168
0.0074260989204049
0.0085127754136919
0.0095361387357115
0.0104518011212348
0.0112270032986998
0.0118445716798305
0.0123053174465894
0.012626389041543
0.0128370849415659
0.0129735255613923
0.0130724953487515
0.0131665859371423
0.0132823586463928
0.0134391766041517
0.0136464573442935
0.013902036473155
0.0141949411481618
0.0145107265561819
0.0148346181958913
0.0151512399315834
0.0154431164264678
0.0156898349523544
0.0158690568059682
0.0159583687782287
0.0159362070262432
0.0157832540571689
0.01548423897475
0.0150281134992837
0.0144087858498096
0.013628845103085
0.0127042904496192
0.011667595244944
0.0105667281895875
0.0094590485095977
0.0084040127694606
0.0074585392139852
0.0066728852689266
0.0060839341022074
0.0057081631384789
0.0055393469519913
0.0055517498403787
0.0057050990872085
0.0059489253908395
0.006227059289813
0.0064833788201212
0.0066680191084742
0.0067424429580569
0.0066831307485699
0.0064845741726458
0.0061597805470228
0.0057362378574907
0.0052497684955596
0.0047392239794135
0.0042415559291839
0.0037865897174924
0.0033933236263692
0.0030699395574629
0.0028170624282211
0.0026310826651751
0.0025053145363926
0.0024293260648846
0.0023873152676969
0.0023573420476168
0.0023124350700527
0.0022220348473638
0.0020536417141556
0.001775981276296
0.0013629156164824
0.0007962165400385
6.7148357629776e-05
-0.0008223995100706
-0.0018588060047477
-0.0030146297067403
-0.0042468155734241
-0.0054976232349872
-0.0066984426230192
-0.0077771637588739
-0.0086684301495552
-0.0093226665630936
-0.0097117479890584
-0.0098314108327031
-0.0097003374248743
-0.0093569392338395
-0.008854653686285
-0.0082555785775184
-0.0076232985593378
-0.0070160389877855
-0.0064807240851223
-0.0060495128855109
-0.0057390318252146
-0.005550009664148
-0.0054679876193404
-0.0054673836566507
-0.0055163353681564
-0.005579836666584
-0.0056237997487187
-0.005619978532195
-0.0055483663454651
-0.0053980243392288
-0.0051675965078175
-0.0048637529835104
