bvp
0.0168150849640369
0.0178091451525688
0.018870785832405
0.0199930947273969
0.0211563929915428
0.022331254556775
0.0234840419143438
0.024583987891674
0.0256085377186536
0.0265441238880157
0.0273822993040084
0.0281143840402364
0.0287285968661308
0.029211001470685
0.0295467786490917
0.0297191385179758
0.0297085717320442
0.0294931810349226
0.029046157374978
0.0283288843929767
0.027283675968647
0.0258329845964908
0.023889809846878
0.0213795993477106
0.0182683691382408
0.0145871611312031
0.0104438513517379
0.0060178958810865
0.0015397844836115
-0.0027376823127269
-0.0065714111551642
-0.0097606210038065
-0.0121716717258095
-0.0137481978163123
-0.0145095353946089
-0.0145418085157871
-0.013981775380671
-0.01299615111202
-0.0117611484602093
-0.0104429079219698
-0.0091794114559888
-0.0080677960067987
-0.0071592153981328
-0.0064607383683323
-0.005943133495748
-0.0055523579940199
-0.0052228970453143
-0.0048910956829786
-0.0045048873871564
-0.0040284236893057
-0.0034428844228386
-0.0027446243911981
-0.001941897906363
-0.0010505421087145
-8.923094719648361e-05
0.0009226351976394
0.0019645346328616
0.0030152192339301
0.0040534101426601
0.005057381466031
0.0060055740177631
0.0068803126923739
0.0076723140664398
0.0083818240091204
0.0090159242972731
0.0095846727490425
0.0100962836295366
0.0105484249070286
0.0109183890745043
0.0111612947657704
0.0112184425815939
0.0110295824706554
0.0105465594679117
0.0097498027607798
0.0086641823872923
0.0073676025494933
0.0059917578473687
0.004719004034996
0.0037757828831672
0.0034222609829157
0.0039405021816492
0.0056183766573667
0.0087232012301683
0.0134686352685093
0.0199843682348728
0.0282910466194152
0.0382786616683006
0.0496930852532386
0.0621374510228633
0.0750883296132087
0.0879239439964294
0.0999636799097061
0.1105158776044845
0.1189252957701683
0.1246127784252166
0.1271124482154846
0.1261202096939087
0.121553897857666
0.1136008128523826
0.1027248427271843
0.0896223112940788
0.0751331150531768
0.0601256638765335
0.0453823804855346
0.0315098166465759
0.0188875123858451
0.0076594799757003
-0.0022371709346771
-0.0110172480344772
-0.0189795717597007
-0.0264412760734558
-0.033685352653265
-0.0409256294369697
-0.0482891462743282
-0.0558133050799369
-0.0634579509496688
-0.071131482720375
-0.0787201672792434
-0.0861093699932098
-0.0931955203413963
-0.0998908057808876
-0.1061205193400383
-0.1118165105581283
-0.1169124916195869
-0.1213424354791641
-0.1250407695770263
-0.1279473751783371
-0.1300191730260849
-0.131240040063858
-0.1316222995519638
-0.1312050521373748
-0.13005331158638
-0.1282537430524826
-0.1259059756994247
-0.1231129169464111
-0.1199716702103614
-0.1165660768747329
-0.1129627525806427
-0.1092096492648124
-0.1053351685404777
-0.1013478487730026
-0.0972374379634857
-0.0929797291755676
-0.0885462909936904
-0.0839144513010978
-0.0790725946426391
-0.0740213990211486
-0.0687738209962844
-0.0633539929986
-0.0577946528792381
-0.0521342940628528
-0.0464141890406608
-0.0406747199594974
-0.0349525101482868
-0.0292798560112714
-0.0236866567283868
-0.0182026550173759
-0.0128566231578588
-0.0076733864843845
-0.002672366797924
0.0021318830549716
0.0067277029156684
0.0111022442579269
0.0152379274368286
0.0191125459969043
0.022702794522047
0.0259903743863105
0.0289695709943771
0.0316532365977764
0.0340747088193893
0.0362848713994026
0.0383459702134132
0.0403265319764614
0.0422975905239582
0.0443245731294155
0.0464546456933021
0.048707291483879
0.0510726422071456
0.0535147041082382
0.0559770464897155
0.0583919063210487
0.0606914013624191
0.0628166645765304
0.0647230073809623
0.0663826018571853
0.0677853822708129
0.0689372271299362
0.069856971502304
0.070574827492237
0.0711306110024452
0.0715679079294204
0.0719237849116325
0.0722207874059677
0.0724673196673393
0.0726619213819503
0.0727957263588905
0.0728537067770958
0.0728166699409484
0.0726636350154876
0.0723739042878151
0.0719292238354682
0.071315549314022
0.0705239921808242
0.0695526227355003
0.068407766520977
0.0671006217598915
0.0656394213438034
0.0640214532613754
0.0622290074825286
0.060231015086174
0.0579892881214618
0.0554680675268173
0.0526451654732227
0.0495210774242877
0.04612348228693
0.0425080880522728
0.0387568287551403
0.0349711365997791
0.0312598198652267
0.0277259685099124
0.0244564563035964
0.0215154886245727
0.0189410727471113
0.0167407318949699
0.0148873785510659
0.0133219175040721
0.0119637232273817
0.0107234269380569
0.0095157055184245
0.008271406404674
0.0069455807097256
0.0055194436572492
0.0039977552369236
0.0024044646415859
0.0007773493416607
-0.0008387563284486
-0.0023985928855836
-0.0038619597908109
-0.0051993019878864
-0.0063974163495004
-0.0074619501829147
-0.0084150405600667
-0.009289969690144
-0.0101243630051612
-0.0109543558210134
-0.0118113551288843
-0.0127196302637457
-0.0136946644634008
-0.0147430300712585
-0.0158624164760112
-0.0170428343117237
-0.018271766602993
-0.0195418149232864
-0.0208550617098808
-0.0222222823649644
-0.0236617140471935
-0.02519709803164
-0.0268498063087463
-0.0286271087825298
-0.0305129177868366
-0.0324643738567829
-0.0344145372509956
-0.0362795181572437
-0.0379687994718551
-0.0393967442214489
-0.0404924824833869
-0.0412073917686939
-0.0415203049778938
-0.0414397418498992
-0.0410018302500247
-0.0402647256851196
-0.0393027737736702
-0.0382000431418418
-0.0370397679507732
-0.0358911380171775
-0.0347997546195983
-0.0337860323488712
-0.0328495390713214
-0.031973872333765
-0.0311298929154872
-0.0302789472043514
-0.0293789803981781
-0.0283933281898498
-0.0272967014461755
-0.02607555501163
-0.0247257612645626
-0.0232519321143627
-0.021669952198863
-0.020008198916912
-0.0183027610182762
-0.016590291634202
-0.0149039095267653
-0.0132706658914685
-0.0117096863687038
-0.0102331144735217
-0.0088498461991548
-0.0075717056170105
-0.0064199455082416
-0.0054280804470181
-0.0046383347362279
-0.004091776907444
-0.0038168765604496
-0.0038212016224861
-0.0040865028277039
-0.0045678950846195
-0.0051986156031489
-0.0058975899592041
-0.0065771429799497
-0.007151405327022
-0.0075443983078002
-0.0076971892267465
-0.0075752455741167
-0.0071728751063346
-0.006511662621051
-0.0056353346444666
-0.0046035330742597
-0.0034840120933949
-0.002342777326703
-0.0012352052144706
-0.0002018169034272
0.0007317720446735
0.0015531819080933
0.0022621161770075
0.0028705415315926
0.0034024226479232
0.0038907914422452
0.0043711555190384
0.0048737470060586
0.0054199858568608
0.0060228677466511
0.0066862553358078
0.0074043786153197
0.0081649888306856
0.0089529734104871
0.0097514083608984
0.010541358962655
0.0113021861761808
0.0120141087099909
0.0126622496172785
0.0132376886904239
0.0137331215664744
0.0141366710886359
0.0144283846020698
0.0145798763260245
0.0145561508834362
0.0143207684159278
0.0138451987877488
0.0131194237619638
0.0121594630181789
0.011009432375431
0.0097368406131863
0.0084220375865697
0.0071462709456682
0.0059823500923812
0.0049886843189597
0.0042060003615915
0.0036556462291628
0.0033389781601727
0.0032377839088439
0.0033158168662339
0.0035229905042797
0.0038031309377402
0.0041021113283932
0.0043738083913922
0.0045857094228267
0.0047231893986463
0.0047874138690531
0.0047878832556307
0.0047367988154292
0.0046480409801006
0.0045384769327938
0.0044289366342127
0.0043418430723249
0.0042957952246069
0.0043014991097152
0.0043607498519122
0.0044676549732685
0.0046113831922411
0.0047784820199012
0.0049536353908479
0.0051205912604928
0.0052652400918304
0.0053782491013407
0.0054534054361283
0.0054835532791912
0.0054571325890719
0.0053557837381958
0.0051542050205171
0.0048223063349723
0.0043280054815113
0.0036416046787053
0.0027427212335169
0.0016278576804324
0.0003166006645187
-0.0011458693770691
-0.0026920994278043
-0.0042399782687425
-0.0057013351470232
-0.0069908685982227
-0.0080358255654573
-0.0087852030992507
-0.0092160124331712
-0.0093342252075672
-0.0091706030070781
-0.0087745143100619
-0.0082073006778955
-0.0075342087075114
-0.0068162321113049
-0.006104287225753
-0.0054354681633412
-0.0048305550590157
-0.0042935092933475
-0.003814507741481
-0.0033753938041627
-0.0029551582410931
-0.0025354125536978
-0.0021035610698163
-0.0016522504156455
-0.0011793248122557
-0.0006884720642119
-0.0001872382126748
0.0003157610772177
0.0008124266169033
0.0012956734281033
0.0017591876676306
0.002197653055191
0.0026062037795782
0.0029785614460706
0.003307279665023
0.0035862659569829
0.0038100578822195
0.0039681359194219
0.0040399981662631
0.003994851373136
0.0037950936239212
0.0034025534987449
0.0027872880455106
0.0019375258125364
0.0008669430972076
-0.0003831518115475
-0.0017467562574893
-0.0031409049406647
-0.0044762035831809
-0.0056673469953238
-0.0066418061032891
-0.0073456582613289
-0.0077480757609009
-0.0078460611402988
-0.0076658665202558
-0.007258198224008
-0.0066904928535223
-0.0060383277013897
-0.0053751589730381
-0.0047621494159102
-0.0042406232096254
-0.0038290852680802
-0.0035249684005975
-0.0033074729144573
-0.0031405529007315
-0.0029790210537612
-0.0027773645706474
-0.0024972544051706
-0.0021119783632457
-0.0016086078248918
-0.0009873644448816
-0.000258294865489
0.0005615591071546
0.0014491025358438
0.0023764865472912
0.0033134997356683
0.0042299982160329
0.0050992565229535
0.0059020305052399
0.0066273966804146
0.0072679165750741
0.0078106625005602
0.0082290433347225
0.0084816040471196
0.0085188439115881
0.0082950824871659
0.0077832685783505
0.0069886781275272
0.0059542953968048
0.0047546378336846
0.0034829915966838
0.0022393027320504
0.0011205342598259
0.0002112379297614
-0.0004251506179571
-0.000752025283873
-0.0007623876444995
-0.0004782294854521
5.444604903459549e-05
0.00077306618914
0.0016058629844337
0.0024779890663921
0.0033171265386044
0.0040613487362861
0.0046685747802257
0.0051220310851931
0.0054290257394313
0.0056159892119467
0.0057225725613534
0.0057946620509028
0.0058763972483575
0.0060028340667486
0.0061948304064571
0.006457723211497
0.0067845769226551
0.0071624144911766
0.0075771906413137
0.0080140605568885
0.0084541710093617
0.0088720740750432
0.0092380670830607
0.0095249721780419
0.009713402017951
0.0097933234646916
0.0097614396363496
0.0096124932169914
0.0093301609158515
0.0088848425075411
0.008237812668085
0.0073503646999597
0.0061964970082044
0.0047736642882227
0.0031075901351869
0.0012516309507191
-0.0007177479565143
-0.0027082373853772
-0.0046205166727304
-0.0063572186045348
-0.0078311013057827
-0.0089728804305195
-0.0097391214221715
-0.0101180877536535
-0.0101302899420261
-0.0098237255588173
-0.0092657264322042
-0.008532871492207
-0.0077004367485642
-0.0068320604041218
-0.0059727542102336
-0.0051490757614374
-0.0043738223612308
-0.003650821512565
-0.0029791314154863
-0.0023563001304864
-0.0017797197215259
-0.0012461431324481
-0.0007504518143832
-0.0002853330224752
0.0001577101647853
0.000587273389101
0.0010120207443833
0.0014415830373764
0.0018862253054976
0.002353680320084
0.0028437878936529
0.0033422643318772
0.0038181468844413
0.0042290138080716
0.0045297965407371
0.004679337143898
0.0046440875157713
0.0043996032327413
0.0039287721738219
0.0032168440520763
0.0022483021020889
0.0010108985006809
-0.0004946738481521
-0.0022451812401413
-0.0041896700859069
-0.0062509411945939
-0.0083335908129811
-0.0103355133906006
-0.0121589973568916
-0.0137194525450468
-0.0149518167600035
-0.0158143602311611
-0.0162890329957008
-0.0163803286850452
-0.016116090118885
-0.0155490720644593
-0.0147537663578987
-0.0138164395466446
-0.012822980992496
-0.0118480548262596
-0.010945881716907
-0.0101450784131884
-0.0094498340040445
-0.0088455602526664
-0.0083045223727822
-0.0077900444157421
-0.0072626005858182
-0.0066882302053272
-0.006044871173799
-0.0053230328485369
-0.0045216851867735
-0.0036448808386921
-0.002702418481931
-0.0017112714704126
-0.0006942325271666
0.0003239002544432
0.0013206559233367
0.0022793540265411
0.0031900072935968
0.0040453867986798
0.0048349453136324
0.0055431686341762
0.0061508687213063
0.0066330283880233
0.0069560119882225
0.0070801847614347
0.0069659342989325
0.0065798941068351
0.0059034749865531
0.004943604581058
0.0037389793433248
0.0023571725469082
0.0008854942861944
-0.0005796615732833
-0.0019445311045274
-0.003130879253149
-0.00408625183627
-0.0047885738313198
-0.0052448660135269
-0.0054853139445185
-0.0055551594123244
-0.0055058719590306
-0.0053859907202422
-0.0052335099317133
-0.0050727035850286
-0.0049148323014378
-0.0047599552199244
-0.0045997137203812
-0.0044211959466338
-0.0042100409045815
-0.0039524622261524
-0.0036377171054482
-0.0032610241323709
-0.0028251069597899
-0.0023391526192426
-0.0018158718012273
-0.0012685754336416
-0.0007091350853443
-0.0001458944752812
0.0004182481206953
0.000984997022897
0.0015571350231766
0.0021363086998462
0.002723669167608
0.003320270916447
0.0039257314056158
0.0045373323373496
0.0051493784412741
0.0057506412267684
0.0063198329880833
0.0068217515945434
0.0072085275314748
0.0074272262863814
0.0074299876578152
0.0071831662207841
0.006674837321043
0.0059194169007241
0.0049576992169022
0.0038528307341039
0.0026829899288713
0.001532751135528
0.0004869834519922
-0.0003743125125765
-0.0009855451062321
-0.0013064695522189
-0.0013268934562802
-0.0010647466406226
-0.0005608247593045
0.0001282980665564
0.0009377095848321
0.0018010409548878
0.0026563080027699
0.0034499750472605
0.0041394615545868
0.0046955212019383
0.0051059713587164
0.0053791948594152
0.005543821491301
0.0056428774259984
0.0057232603430747
0.0058244755491614
0.0059720491990447
0.0061786910519003
0.0064498512074351
0.0067862384021282
0.0071821450255811
0.007624426856637
0.0080932369455695
0.0085632670670747
0.0090067684650421
0.0093981018289923
0.0097166216000914
0.0099473632872104
0.01008166000247
0.010116352699697
0.0100495954975485
0.0098760984838008
0.0095844008028507
0.0091564860194921
0.0085708769038319
0.0078095425851643
0.0068663824349641
0.0057528959587216
0.0044986419379711
0.0031482093036174
0.0017565884627401
0.0003843254526145
-0.000907018140424
-0.0020602375734597
-0.0030276798643171
-0.0037748485337942
-0.004284378606826
-0.0045606736093759
-0.0046309069730341
-0.0045397118665277
-0.0043401680886745
-0.0040842564776539
-0.0038145007565617
-0.0035599053371697
-0.0033366736024618
-0.0031495748553425
-0.0029923999682068
-0.0028489681426435
-0.0026964121498167
-0.0025107618421316
-0.0022711895871907
-0.0019620787352323
-0.0015753606567159
-0.0011120946146547
-0.0005818988429382
-1.2277159839868546e-06
0.0006092269904911
0.0012275818735361
0.001833118032664
0.0024071994703263
0.0029323326889425
0.0033910199999809
0.0037668806035071
0.0040476210415363
0.0042277090251445
0.0043101115152239
0.0043068244121968
0.004235363099724
0.0041094971820712
0.0039289291016757
0.0036745811812579
0.0033119805157184
0.0028015440329909
0.0021106437779963
0.0012217219918966
0.0001360648311674
-0.0011244937777519
-0.0025181234814226
-0.0039878468960523
-0.005468931980431
-0.006894392427057
-0.0081987818703055
-0.0093227671459317
-0.0102191464975476
-0.010859889909625
-0.01124167162925
-0.0113858431577682
-0.0113318040966987
-0.0111277224496006
-0.0108232889324426
-0.0104657858610153
-0.0100970147177577
-0.0097490092739462
-0.0094401501119136
-0.0091747567057609
-0.0089474506676197
-0.008748197928071
-0.008563045412302
-0.0083718560636043
-0.0081476271152496
-0.0078606270253658
-0.0074855582788586
-0.0070071914233267
-0.0064235776662826
-0.0057474602945148
-0.0050051314756274
-0.0042318729683756
-0.0034654824994504
-0.0027401745319366
-0.00208135927096
-0.0015036838594824
-0.0010139197111129
-0.0006151469424366
-0.0003080246970057
-8.872640319168568e-05
5.151802906766534e-05
0.000121230550576
0.0001224169391207
4.926920519210398e-05
-0.0001093485916499
-0.0003670712758321
-0.00073679164052
-0.0012265314580872
-0.0018350461032241
-0.0025474540889263
-0.0033318095374852
-0.004138242918998
-0.0049036014825105
-0.0055622565560042
-0.0060571078211069
-0.0063455495983362
-0.006402158178389
-0.0062208366580307
-0.0058151753619313
-0.0052158911712467
-0.0044666118919849
-0.0036190901882946
-0.0027275444008409
-0.0018419758416712
-0.0010023373179137
-0.0002346290275454
0.0004512229934334
0.0010607978329062
0.0016127359122037
0.0021346225403249
0.0026559899561107
0.0032022609375417
0.0037924591451883
0.0044376943260431
0.0051397858187556
0.0058908504433929
0.0066737052984535
0.0074651129543781
0.0082421908155083
0.008988132700324
0.0096926651895046
0.0103473868221044
0.0109429461881518
0.0114710489287972
0.0119252679869532
0.012298485264182
0.0125820012763142
0.0127678476274013
0.0128504419699311
0.0128245428204536
0.012680702842772
0.0124025288969278
0.0119686070829629
0.0113582946360111
0.0105591472238302
0.0095740519464015
0.0084252776578068
0.007153439335525
0.0058136894367635
0.0044713448733091
0.0031951814889907
0.0020482884719967
0.0010805642232298
0.0003262176178395
-0.0001967237330973
-0.0004899592604488
-0.0005778700578957
-0.0005031854379922
-0.00031768088229
-7.41294352337718e-05
0.0001789099769666
0.0004011584678664
0.000565092312172
0.0006596542079932
0.0006900682346895
0.0006734104827046
0.0006327174487523
0.0005921390838921
0.0005749025731347
0.0006042579771019
0.0007028321269899
0.0008862366667017
0.0011554302182048
0.0014951007906347
0.0018784154672175
0.0022737660910934
0.0026507647708058
0.0029856839682906
0.0032652015797793
0.0034846123307943
0.0036426887381821
0.003739969106391
0.0037796576507389
0.0037668962031602
0.0037067886441946
0.0036025950685143
0.0034529916010797
0.0032469234429299
0.0029585654847323
0.0025475351139903
0.0019668010063469
0.0011759954504668
0.0001541059464216
-0.0010934961028397
-0.0025331601500511
-0.0041049001738429
-0.0057299309410154
-0.0073212110437452
-0.0087915696203708
-0.0100603848695755
-0.0110608143731951
-0.0117458561435341
-0.0120938085019588
-0.0121136670932173
-0.0118460012599825
-0.0113555509597063
-0.0107191037386655
-0.0100145619362592
-0.0093121565878391
-0.0086680511012673
-0.0081210853531956
-0.0076895821839571
-0.0073677888140082
-0.0071277348324656
-0.0069282678887248
-0.0067253587767481
-0.0064786011353135
-0.0061539951711893
-0.0057266503572463
-0.0051852851174771
-0.0045343111269176
-0.0037909117527306
-0.0029813891742378
-0.002138995565474
-0.0012998858001083
-0.0004967800341546
0.0002456662477925
0.0009112533880397
0.0014891759492456
0.0019717554096132
0.0023554870858788
0.0026419896166771
0.0028364139143377
0.0029438487254083
0.0029635610990226
0.0028838929720222
0.0026829259004443
0.0023346245288848
0.0018165813526138
0.0011176994303241
0.000244011869654
-0.0007802737527526
-0.0019162036478519
-0.0031138390768319
-0.0043136440217494
-0.0054484521970152
-0.0064502293244004
-0.0072600985877215
-0.0078362794592976
-0.0081574348732829
-0.0082238325849175
-0.0080583356320858
-0.007703935727477
-0.0072161830030381
-0.0066543435677886
-0.0060738194733858
-0.0055204629898071
-0.0050270669162273
-0.0046108765527606
-0.004272187128663
-0.0039955605752766
-0.0037541971541941
-0.0035158954560756
-0.0032477742061018
-0.0029189772903919
-0.0025029410608112
-0.0019809631630778
-0.0013471543788909
-0.0006115590222179
0.0002020522952079
0.0010632774792611
0.0019429833628237
0.002817949745804
0.0036717019975185
0.0044926591217517
0.0052712550386786
0.005999132990837
0.006670475937426
0.007281428668648
0.0078267976641654
0.0082971844822168
0.0086783207952976
0.0089522562921047
0.0090993447229266
0.0091016171500086
0.0089482786133885
0.0086396802216768
0.0081866150721907
0.0076076700352132
0.0069279870949685
0.0061793075874447
0.0053996397182345
0.0046315197832882
0.0039188689552247
0.0033029057085514
0.0028181849047541
0.0024896431714296
0.0023298431187868
0.0023362706415355
0.0024904203601181
0.0027590375393629
0.0030979379080235
0.0034601546358317
0.0038048839196562
0.0041014607995748
0.0043293605558574
0.0044777016155421
0.0045454027131199
0.0045421058312058
0.0044882269576191
0.0044127935543656
0.0043499898165464
0.0043354579247534
0.0044018882326781
0.004572570323944
0.0048546097241342
0.00523635558784
0.0056909206323325
0.0061838380061089
0.006680279970169
0.0071480562910437
0.0075583611615002
0.0078878281638026
0.008120710030198
0.0082486439496278
0.0082682333886623
0.0081779230386018
0.007974618114531
0.0076504545286297
0.0071918028406798
0.0065805283375084
0.0057961586862802
0.0048210425302386
0.0036486845929175
0.0022907848469913
0.0007803792832419
-0.0008279350586235
-0.0024607595987617
-0.0040334947407245
-0.005461439024657
-0.00667021330446
-0.0076038809493184
-0.0082308314740657
-0.0085468180477619
-0.0085741933435201
-0.0083569660782814
-0.0079538458958268
-0.0074317967519164
-0.0068585844710469
-0.0062932996079325
-0.0057789622806012
-0.0053399917669594
-0.0049822395667433
-0.0046940124593675
-0.0044497139751911
-0.004215994849801
-0.0039576198905706
-0.0036427187733352
-0.0032483208924531
-0.0027643537614494
-0.0021940316073596
-0.0015508836368098
-0.0008549531921744
-0.0001303318422287
0.0005960671696811
0.0012959579471498
0.0019428431987762
0.0025152028538286
0.0029977830126881
0.0033819447271525
0.0036644847132265
0.0038454430177807
0.0039273407310247
0.0039137061685323
0.0038045290857553
0.0035910066217184
0.0032530566677451
0.002761831972748
0.002086229622364
0.0012007509358227
9.443657472729684e-05
-0.0012207180261611
-0.0027062110602855
-0.0043000197038054
-0.0059240125119686
-0.0074918628670275
-0.008915290236473
-0.0101107899099588
-0.0110083743929862
-0.0115601886063814
-0.0117471199482679
-0.0115818297490477
-0.0111055150628089
-0.0103796850889921
-0.0094787180423736
-0.0084848534315824
-0.0074814981780946
-0.0065428158268332
-0.0057236719876527
-0.0050538429059088
-0.0045361695811152
-0.0041488599963486
-0.0038521098904311
-0.0035960553213953
-0.0033282442018389
-0.0030008400790393
-0.0025763867888599
-0.0020310815889388
-0.0013563019456341
-0.0005587601335719
0.0003410228528082
0.0013114777393639
0.0023139019031077
0.0033070025965571
0.0042509059421718
0.0051105455495417
0.0058571947738528
0.0064679915085434
0.0069267963990569
0.0072274636477231
0.007376124151051
0.0073879207484424
0.0072777713648974
0.0070511531084775
0.0067012421786785
0.0062126223929226
0.0055672554299235
0.0047505726106464
0.0037572504952549
0.0025949454866349
0.0012862344738095
-0.0001300317235291
-0.0015990984393283
-0.0030531513039022
-0.004415591713041
-0.0056069632992148
-0.0065543241798877
-0.0072028832510113
-0.0075254002586007
-0.0075264815241098
-0.0072418167255818
-0.0067330286838114
-0.0060787806287407
-0.0053632641211152
-0.0046632275916635
-0.0040360954590141
-0.0035130684264004
-0.0030991497915238
-0.0027778437361121
-0.0025166838895529
-0.0022741090506315
-0.0020083410199731
-0.0016842308687046
-0.0012769568711519
-0.0007745756302028
-0.0001789019443094
0.0004958939971402
0.0012260761577636
0.0019814702682197
0.0027284291572868
0.0034329977352172
0.0040644449181854
0.0045985709875822
0.0050202282145619
0.005325055681169
0.00551996845752
0.005620339885354
0.0056441202759742
0.0056079383939504
0.0055272160097956
0.0054151117801666
0.0052774101495742
0.0051073818467557
0.0048839198425412
0.0045727556571364
0.0041317977011203
0.0035223553422838
0.0027221185155212
0.0017323701176792
0.0005792909068986
-0.0006870973156765
-0.0019976859912276
-0.0032722104806452
-0.0044269505888223
-0.005383076146245
-0.0060762986540794
-0.0064649293199181
-0.0065355040132999
-0.0063057406805455
-0.0058211465366184
-0.0051454366184771
-0.0043511963449418
-0.0035128106828778
-0.0026983995921909
-0.001960753230378
-0.0013312690425664
-0.0008192134555429
-0.0004143093246966
-9.083561599254608e-05
0.0001863678917288
0.0004548740107566
0.0007488182745873
0.0010956602636724
0.0015151258558034
0.0020178204867988
0.0026024542748928
0.0032544296700507
0.0039478400722146
0.0046491469256579
0.0053216908127069
0.005932476837188
0.006458724848926
0.0068901507183909
0.0072278440929949
0.0074814446270465
0.0076650362461805
0.0077929878607392
0.0078769950196146
0.0079240007326006
0.0079323584213852
0.0078870970755815
0.0077595324255526
0.0075120362453162
0.0071041309274733
0.0064978040754795
0.0056640575639903
0.0045927995815873
0.003301971592009
0.0018397127278149
0.000279243919067
-0.0012905846815556
-0.002776650711894
-0.0040914337150752
-0.0051593878306448
-0.0059227291494607
-0.0063494611531496
-0.0064396378584206
-0.0062237149104475
-0.0057541001588106
-0.0050965808331966
-0.0043242396786808
-0.0035117662046104
-0.0027289858553558
-0.0020336094312369
-0.001464304048568
-0.0010371974203735
-0.0007469140691682
-0.000569621915929
-0.0004671539645642
-0.0003927003126591
-0.0002970752539113
-0.0001355556305497
0.0001251948997378
0.0005028448067605
0.0009978130692616
0.0015923907049
0.0022527973633259
0.0029366069938987
0.0036017003003507
0.0042118914425373
0.0047388225793838
0.0051624337211251
0.0054714614525437
0.0056633027270436
0.0057427436113357
0.0057200049050152
0.0056088622659444
0.0054241954348981
0.0051765604875981
0.00486546382308
0.0044763390906155
0.0039816666394472
0.0033439379185438
0.0025217412039637
0.0014809179119765
0.0002079061232507
-0.0012803887948393
-0.002934256568551
-0.004676666110754
-0.0064137130975723
-0.0080469688400626
-0.0094851134344935
-0.0106530683115124
-0.0114987175911664
-0.0119963772594928
-0.0121456319466233
-0.0119685921818017
-0.0115093700587749
-0.0108326412737369
-0.010016094893217
-0.009138680063188
-0.0082702189683914
-0.0074638803489506
-0.0067517152056097
-0.0061438898555934
-0.00562993157655
-0.0051821414381265
-0.0047631375491619
-0.0043351873755455
-0.00386668369174
-0.0033339064102619
-0.0027204765938222
-0.0020183792803436
-0.0012303872499614
-0.0003703573020175
0.0005390404257923
0.0014688605442643
0.002386616077274
0.0032594436779618
0.0040570409037172
0.0047547412104904
0.0053355311974883
0.0057891705073416
0.0061106202192604
0.0063011981546878
0.0063702091574668
0.0063323643989861
0.0062023079954087
0.0059888064861297
0.0056878994219005
0.0052779829129576
0.0047219386324286
0.0039768265560269
0.0030078962445259
0.0018018723931163
0.0003748540766537
-0.0012268396094441
-0.0029319559689611
-0.0046531972475349
-0.0062967026606202
-0.0077711758203804
-0.0089973611757159
-0.0099166175350546
-0.0104966266080737
-0.0107347136363387
-0.0106588443741202
-0.0103241745382547
-0.0098036546260118
-0.009175045415759
-0.0085094980895519
-0.0078637357801198
-0.0072744572535157
-0.0067554088309407
-0.00630000885576
-0.0058890040963888
-0.0054978295229375
-0.0051008630543947
-0.0046736458316445
-0.0041935299523174
-0.0036397785879671
-0.00299615226686
-0.0022561573423445
-0.0014259191229939
-0.0005219746381044
0.0004331464879214
0.0014152568764984
0.002402352169156
0.0033770694863051
0.0043269307352602
0.0052424226887524
0.0061142449267208
0.00693173520267
0.0076827760785818
0.0083540817722678
0.0089318472892045
0.0094027603045105
0.0097524002194404
0.0099596101790666
0.0099931890144944
0.0098177418112754
0.0094058793038129
0.0087479306384921
0.0078549943864345
0.0067584286443889
0.0055088042281568
0.0041736532002687
0.0028325438033789
0.0015689444262534
0.000461007002741
-0.0004263306036591
-0.0010479255579411
-0.0013827132061123
-0.0014349510893225
-0.0012334659695625
-0.0008286014199256
-0.0002860431559383
0.0003222431987524
0.0009286380372941
0.0014791530556976
0.0019388070795685
0.002292476594448
0.0025422766339033
0.0027030848432332
0.0027964876499027
0.0028454230632632
0.0028736549429595
0.0029079152736812
0.0029778371099382
0.0031122381333261
0.0033319997601211
0.0036444021388888
0.0040439842268824
0.0045165456831455
0.0050417184829711
0.0055951597169041
0.0061515625566244
0.0066869482398033
0.0071790525689721
0.0076073966920375
0.0079557038843631
0.0082150548696517
0.0083830216899514
0.0084578432142734
0.0084314998239278
0.0082854684442281
0.007990138605237
0.0075078061781823
0.0067998291924595
0.0058371410705149
0.0046114586293697
0.0031437673605978
0.0014866733690723
-0.0002804022515192
-0.0020618985872715
-0.00375881139189
-0.0052782166749238
-0.0065405182540416
-0.0074876826256513
-0.008089181035757
-0.0083426712080836
-0.0082717183977365
-0.0079228552058339
-0.0073620956391096
-0.0066690626554191
-0.0059277578257024
-0.0052162092179059
-0.0045971125364303
-0.0041101030074059
-0.0037674407940357
-0.0035552370827645
-0.0034404518082737
-0.0033812499605119
-0.0033357848878949
-0.0032666909974068
-0.0031427424401044
-0.0029387040995061
-0.0026353793218731
-0.0022228099405765
-0.0017031895695254
-0.0010893577709794
-0.0004020160995423
0.0003317435039207
0.0010795317357406
0.0018049754435196
0.0024711608421057
0.0030469512566924
0.0035128095187246
0.0038625947199761
0.0040981601923704
0.0042171860113739
0.0042036566883325
0.0040289908647537
0.0036599249579012
0.003065709490329
0.0022243510466068
0.0011300176847726
-0.0002015624195337
-0.0017321065533906
-0.0034009970258921
-0.0051259999163448
-0.0068085747770965
-0.0083446772769093
-0.0096379900351166
-0.0106127560138702
-0.0112234959378838
-0.0114596672356128
-0.0113449478521943
-0.010931865312159
-0.0102940453216433
-0.0095178969204425
-0.008692686446011
-0.0078986128792166
-0.0071960873901844
-0.0066199633292853
-0.0061798566021025
-0.0058644777163863
-0.0056467680260539
-0.0054877968505024
-0.005339911673218
-0.0051524573937058
-0.0048814890906214
-0.0044989413581788
-0.0039952867664396
-0.0033745826222002
-0.0026469971053302
-0.0018256441690027
-0.0009285837877541
1.914822496473789e-05
0.0009870962239801
0.0019428450614213
0.0028550517745316
0.0036967021878808
0.0044484031386673
0.0050992700271308
0.0056428830139338
0.0060689230449497
0.0063564958982169
0.0064742839895188
0.0063867643475532
0.0060640228912234
0.0054914294742047
0.0046746651642024
0.0036405741702765
0.0024360481183975
0.0011249699164181
-0.0002160957083106
-0.0015030442737042
-0.0026504811830818
-0.0035789357498288
-0.0042238170281052
-0.0045456197112798
-0.0045372806489467
-0.0042248819954693
-0.0036612716503441
-0.002915262710303
-0.0020605898462235
-0.0011674491688609
-0.0002972059883177
0.0005014198832213
0.0011971504427492
0.0017800317145884
0.0022598267532885
0.0026601706631481
0.003013692330569
0.0033585038036108
0.0037329564802348
0.0041690506041049
0.0046881879679858
0.0052999192848801
0.0060024023987352
0.0067851720377802
0.0076317340135574
0.0085182059556245
0.0094104707241058
0.010264815762639
0.0110339596867561
0.0116764865815639
0.0121637322008609
0.0124800950288772
0.0126186497509479
0.0125741604715585
0.0123351588845252
0.0118799731135368
0.0111804660409688
0.0102121699601411
0.0089660137891769
0.0074576111510396
0.0057332413271069
0.0038702189922332
0.0019677416421473
0.0001315607805736
-0.001539112185128
-0.0029598232358694
-0.0040663355030119
-0.00481892330572
-0.0052064275369048
-0.005248425528407
-0.0049928077496588
-0.0045098876580595
-0.0038852859288454
-0.0032104013953357
-0.0025696419179439
-0.0020277057774364
-0.001621097093448
-0.0013570075388997
-0.0012193283764645
-0.001175518380478
-0.0011812248267233
-0.0011866491986438
-0.0011450106976553
-0.0010196571238338
-0.0007882506470195
-0.000443052384071
1.2030941434204578e-05
0.000565682305023
0.0012027788907289
0.0019045218359678
0.0026456252671778
0.0033935625106096
0.0041122874245047
0.0047680409625172
0.0053332769311964
0.0057858345098793
0.0061042355373501
0.006262628827244
0.0062276548705995
0.0059588667936623
0.0054144649766385
0.0045616403222084
0.0033877799287438
0.0019082743674516
0.0001695775426924
-0.0017523374408483
-0.0037589634303003
-0.0057398430071771
-0.0075829261913895
-0.0091845244169235
-0.0104594910517334
-0.0113493259996175
-0.0118276653811335
-0.0119040282443165
-0.0116228675469756
-0.0110561661422252
-0.0102923717349767
-0.009424508549273
-0.0085395872592926
-0.0077100154012441
-0.0069869677536189
-0.006396900396794
-0.0059410561807453
-0.0055970381945371
-0.0053227413445711
-0.0050638699904084
-0.0047662160359323
-0.0043880878947675
-0.0039049354381859
-0.0033070018980652
-0.0025966027751564
-0.001786746783182
-0.0008998687844723
3.3424003049731255e-05
0.0009763315320014
0.001890271436423
0.0027406711596995
0.0034997381735593
0.00414396263659
0.0046492395922541
0.0049870908260345
0.0051235412247478
0.0050221998244524
0.0046508032828569
0.0039886767044663
0.0030350424349308
0.0018163956701755
0.0003887065686285
-0.0011656016577035
-0.0027444614097476
-0.0042375824414193
-0.00554028339684
-0.0065649100579321
-0.0072492463514208
-0.0075640226714313
-0.0075175398960709
-0.0071524614468216
-0.0065357009880244
-0.0057483408600091
-0.0048773828893899
-0.0040058260783553
-0.0032018630299717
-0.0025109210982918
-0.001951381098479
-0.0015147236408665
-0.0011713263811543
-0.0008800780633464
-0.0005984788294881
-0.0002896334626711
7.552059832960367e-05
0.0005180398584343
0.0010504722595214
0.0016771056689321
0.0023945053108036
0.0031895050778985
0.0040366253815591
0.0049005984328687
0.0057442365214228
0.0065349163487553
0.007244000211358
0.0078408746048808
0.0082876766100525
0.00853833835572
0.008541265502572
0.0082456842064857
0.0076136090792715
0.0066346526145935
0.0053360746242105
0.0037834506947547
0.0020721659529954
0.0003135807346552
-0.0013776398263871
-0.0028931191191077
-0.0041398098692297
-0.0050485171377658
-0.0055799083784222
-0.0057264417409896
-0.0055115078575909
-0.0049877441488206
-0.0042322780936956
-0.0033373041078448
-0.0023981330450624
-0.0015011195791885
-0.0007141135865822
-8.063483983278275e-05
0.00038311292883
0.0006873764796182
0.0008625043556094
0.0009497650898993
0.0009946799837052
0.0010429734829813
0.0011356499744579
0.0013039379846304
0.0015653665177524
0.0019218381494283
0.0023622759617865
0.0028677843511104
0.0034145694226026
0.0039748018607497
0.0045190588571131
0.0050206147134304
0.005457405000925
0.0058095343410968
0.0060539916157722
0.0061587975360453
0.0060804602690041
0.0057696606963872
0.005184116307646
0.0043024173937737
0.003133776364848
0.0017204589676111
0.0001338229048997
-0.0015323047991842
-0.0031698846723884
-0.0046672155149281
-0.0059211230836808
-0.0068490635603666
-0.0073994398117065
-0.0075589092448353
-0.0073546851053833
-0.006849214900285
-0.0061277830973267
-0.0052834586240351
-0.0044037643820047
-0.0035608764737844
-0.0028060902841389
-0.0021683557424694
-0.0016549306455999
-0.0012534561101347
-0.0009362532291561
-0.000666951178573
-0.000408308696933
-0.0001290941145271
0.000189826125279
0.0005506845191121
0.0009405536111444
0.0013397915754467
0.0017303165514022
0.0021004355512559
0.0024453874211758
0.0027644566725939
0.003059284761548
0.003333831205964
0.0035935493651777
0.0038445808459073
0.0040912954136729
0.0043298923410475
0.0045414520427584
0.0046880519948899
0.0047135055065155
0.0045498316176235
0.0041280221194028
0.0033918374683707
0.002313885372132
0.0009078653529286
-0.0007696370594203
-0.0026266700588166
-0.0045482404530048
-0.0064107696525752
-0.0080967750400304
-0.0095075275748968
-0.0105715533718466
-0.0112489657476544
-0.0115336133167147
-0.0114524280652403
-0.0110604595392942
-0.0104340184479951
-0.0096622435376048
-0.0088341441005468
-0.0080252606421709
-0.0072910864837467
-0.0066659147851169
-0.006162719335407
-0.0057736719027161
-0.0054726251401007
-0.0052210283465683
-0.0049759019166231
-0.004696637392044
-0.0043505299836397
-0.003916067071259
-0.0033815572969615
-0.0027431650087237
-0.0020072755869477
-0.0011930372565984
-0.000329979462549
0.0005472283810377
0.0014042875263839
0.0022128175478428
0.0029541137628257
0.0036185956560075
0.0042013297788798
0.0046970625407993
0.005096630193293
0.0053837313316762
0.0055334116332232
0.0055161551572382
0.0053077819757163
0.0049000680446624
0.0043066097423434
0.0035620059352368
0.0027155487332493
0.0018238604534417
0.0009469185024499
0.0001466646790504
-0.0005143843591213
-0.0009760679677128
-0.001186637673527
-0.0011115819215774
-0.000742947217077
-0.0001053260639309
0.0007465872913599
0.0017393021844327
0.0027938049752265
0.0038346261717379
0.0047953180037438
0.0056239869445562
0.0062894094735383
0.0067839110270142
0.0071207536384463
0.0073286034166812
0.0074455202557146
0.0075123491697013
0.007566045038402
0.0076352208852767
0.0077388156205415
0.0078864078968763
0.0080791162326931
0.0083117336034774
0.0085757486522197
0.008859728462994
0.0091460701078176
0.0094091054052114
0.0096181025728583
0.0097447885200381
0.0097715212032198
0.0096925795078277
0.0095062274485826
0.0092034582048654
0.0087607884779572
0.0081426808610558
0.0073132272809743
0.0062493616715073
0.0049499976448714
0.0034413351677358
0.0017778346082195
3.7228805013000965e-05
-0.0016902294009923
-0.003314992878586
-0.0047583719715476
-0.0059573957696557
-0.0068668080493807
-0.0074612437747418
-0.0077381511218845
-0.0077188573777675
-0.0074462043121457
-0.0069798836484551
-0.0063899443484842
-0.0057483329437673
-0.0051198164001107
-0.0045546432957053
-0.0040836636908352
-0.0037163491360843
-0.0034437198191881
-0.003243847284466
-0.0030852300114929
-0.0029300875030457
-0.0027410252951085
-0.0024886599276214
-0.0021563060581684
-0.0017402427038177
-0.0012465721229091
-0.0006874520331621
-7.925811223685741e-05
0.0005573621019721
0.001198332523927
0.0018188061658293
0.0023949632886797
0.0029036260675638
0.0033213184215128
0.0036250364501029
0.0037959828041493
0.0038238218985497
0.0037070270627737
0.0034481952898204
0.0030469917692244
0.0024948148056864
0.0017744093202054
0.0008655902929604
-0.0002443259581923
-0.001549826003611
-0.0030210702680051
-0.0046042557805776
-0.0062268776819109
-0.0078050149604678
-0.0092520918697118
