bvp
-0.0054593663662672
-0.0049666375853121
-0.004377129022032
-0.0036290858406573
-0.0026859655044972
-0.0015443438896909
-0.0002341817598789
0.001191287767142
0.0026678415015339
0.0041289469227194
0.0055131614208221
0.006772331893444
0.0078771943226456
0.0088171102106571
0.0095963338389992
0.0102303707972168
0.0107419015839695
0.0111530255526304
0.0114738894626498
0.0116927530616521
0.0117701245471835
0.0116377351805567
0.0112075973302125
0.0103931371122598
0.0091347498819231
0.0074205161072313
0.0052971350960433
0.0028689221944659
0.0002852422185242
-0.0022787894122302
-0.0046426905319094
-0.006641084793955
-0.0081446710973978
-0.0090774102136492
-0.0094234999269247
-0.0092226108536124
-0.0085588553920388
-0.0075496188364923
-0.0063325627706944
-0.005047473590821
-0.0038173177745193
-0.0027336024213582
-0.0018470042850822
-0.0011642707977443
-0.0006528932135552
-0.0002533017541281
0.0001051133149303
0.0004889842821285
0.0009502104367129
0.0015214444138109
0.0022161658853292
0.003030041931197
0.0039432616904377
0.0049239112995564
0.0059315515682101
0.006921290885657
0.0078480932861566
0.0086705097928643
0.0093546379357576
0.0098784435540437
0.0102346884086728
0.0104312989860773
0.0104896994307637
0.0104416711255908
0.0103211244568228
0.010148243047297
0.0099143348634243
0.0095777325332164
0.0090700462460517
0.0083079878240823
0.0072104302234947
0.0057198535650968
0.0038232370279729
0.001565168146044
-0.0009519248269498
-0.0035786281805485
-0.0061362902633845
-0.0084402058273553
-0.0103251095861196
-0.0116671398282051
-0.0123996548354625
-0.012521157041192
-0.0120908431708812
-0.0112129393965005
-0.0100190751254558
-0.0086532924324274
-0.0072559202089905
-0.0059457188472151
-0.0048058694228529
-0.003877927083522
-0.0031641868408769
-0.002635744633153
-0.002242503222078
-0.0019232286140322
-0.0016145014669746
-0.0012579965405166
-0.0008069388568401
-0.0002317219041287
0.0004779687151312
0.0013162731193006
0.0022645513527095
0.0032896460033953
0.0043421108275651
0.005362139083445
0.0062916898168623
0.0070858458057045
0.0077184438705444
0.008181364275515
0.0084812343120574
0.0086363274604082
0.008669420145452
0.0085937576368451
0.0083995796740055
0.0080500273033976
0.0074880933389067
0.0066511733457446
0.0054863663390278
0.0039624478667974
0.002081649377942
-0.0001097619533538
-0.002519910223782
-0.005020354874432
-0.0074609569273889
-0.0096880476921796
-0.0115647474303841
-0.0129889193922281
-0.0139046721160411
-0.0143067743629217
-0.0142381377518177
-0.0137815978378057
-0.0130463689565658
-0.0121497362852096
-0.0112013351172208
-0.0102953212335705
-0.0095051461830735
-0.008877239190042
-0.0084264306351542
-0.0081360144540667
-0.0079633994027972
-0.0078491801396012
-0.0077271675691008
-0.0075345430523157
-0.0072202775627374
-0.0067503070458769
-0.0061094961129128
-0.0053016017191112
-0.0043481513857841
-0.0032847421243786
-0.0021550422534346
-0.0010063692461699
0.0001128171570599
0.0011576823890209
0.002094860188663
0.0029087490402162
0.0036011363845318
0.0041833748109638
0.0046663545072078
0.0050520123913884
0.0053249881602823
0.0054475278593599
0.0053632073104381
0.0050089415162801
0.0043325768783688
0.0033117569983005
0.001965329516679
0.0003526536747813
-0.0014338407199829
-0.00327734882012
-0.0050467355176806
-0.006609346717596
-0.0078468043357133
-0.0086703728884458
-0.0090308189392089
-0.008921654894948
-0.0083777047693729
-0.0074701597914099
-0.0062984339892864
-0.0049783089198172
-0.003625426441431
-0.0023375081364065
-0.0011831873562186
-0.0002003000117838
0.0006011319346725
0.0012352387420833
0.0017362848157063
0.0021532173268496
0.00254185218364
0.0029554599896073
0.0034363521263003
0.0040105278603732
0.0046852519735693
0.0054500508122146
0.0062819393351674
0.007152181584388
0.0080314110964536
0.0088925044983625
0.0097098480910062
0.0104550970718264
0.0110962521284818
0.0116055291146039
0.0119693847373127
0.0121907573193311
0.0122841726988554
0.0122673399746418
0.0121488543227314
0.011916022747755
0.011530103161931
0.0109327668324112
0.0100616691634058
0.008867741562426
0.0073310290463268
0.0054748058319091
0.0033696016762405
0.0011225002817809
-0.0011387924896553
-0.003279996337369
-0.0051739672198891
-0.0067131039686501
-0.0078181596472859
-0.0084457397460937
-0.0085950186476111
-0.008309157565236
-0.0076689263805747
-0.0067804232239723
-0.0057599521242082
-0.0047185313887894
-0.0037476120050996
-0.0029093932826071
-0.0022354051470756
-0.0017307931557297
-0.0013786368072032
-0.0011437416542321
-0.0009779663523659
-0.0008273195126093
-0.0006405749591067
-0.000377087155357
-1.0356190614402294e-05
0.0004712303052656
0.0010638711974024
0.0017496936488896
0.002500899368897
0.003284647827968
0.0040675909258425
0.004819774068892
0.0055154394358396
0.0061295568011701
0.0066356351599097
0.0070108049549162
0.0072442376986145
0.0073407338932156
0.0073174461722373
0.0071944054216146
0.0069802142679691
0.0066600451245903
0.0061942394822835
0.005527748260647
0.0046044820919632
0.0033822578843683
0.0018472208175808
2.5799497961997982e-05
-0.0020114418584853
-0.0041574458591639
-0.0062832534313201
-0.0082543129101395
-0.0099470764398574
-0.0112639190629124
-0.0121433604508638
-0.0125637743622064
-0.0125415567308664
-0.0121269738301634
-0.0113986376672983
-0.0104551762342453
-0.0094046359881758
-0.0083522358909249
-0.0073869684711098
-0.0065703899599611
-0.0059317089617252
-0.0054710330441594
-0.0051672994159162
-0.0049850069917738
-0.00487956777215
-0.0048024384304881
-0.0047045587562024
-0.0045402590185403
-0.0042733456939458
-0.003881265874952
-0.0033557352144271
-0.0027025949675589
-0.0019407153595238
-0.0010986381676048
-0.0002095408271998
0.000695523340255
0.0015935318078845
0.0024697494227439
0.0033142184838652
0.004120314028114
0.0048847999423742
0.0056044054217636
0.006267356686294
0.0068445489741861
0.0072869071736931
0.0075306789949536
0.0075083277188241
0.0071625430136919
0.0064607970416545
0.005406935699284
0.0040473565459251
0.0024706772528588
0.0007984288968145
-0.0008327991236001
-0.0022910961415618
-0.0034650021698325
-0.004274473991245
-0.0046782372519373
-0.0046762796118855
-0.004305244423449
-0.0036308376584202
-0.0027416180819272
-0.0017401538789272
-0.0007296553812921
0.0001989044249057
0.0009760351385921
0.0015595322474837
0.0019376382697373
0.0021282245870679
0.0021717515774071
0.0021210357081145
0.0020325831137597
0.001959825400263
0.0019480406772345
0.0020321863703429
0.0022362570744007
0.0025719895493239
0.0030376755166798
0.0036177681758999
0.0042843353003263
0.0050015663728117
0.0057312380522489
0.0064381449483335
0.0070948456414043
0.007682604715228
0.0081899547949433
0.0086116436868906
0.0089441044256091
0.0091750035062432
0.0092733791097998
0.0091884974390268
0.0088580949231982
0.0082210348919034
0.0072309696115553
0.0058691212907433
0.0041533703915774
0.002141618868336
-7.079017086653039e-05
-0.0023576617240905
-0.0045712743885815
-0.0065584369003772
-0.0081851743161678
-0.0093588940799236
-0.0100362626835703
-0.0102205323055386
-0.0099568665027618
-0.009326584637165
-0.0084378542378544
-0.0074120489880442
-0.0063686948269605
-0.0054127522744238
-0.004623838700354
-0.0040477477014064
-0.0036936698015779
-0.0035369934048503
-0.0035253777168691
-0.0035891009029
-0.0036554373800754
-0.0036605715285986
-0.0035548896994441
-0.0033052456565201
-0.0028964618686586
-0.0023304638452827
-0.0016235611401498
-0.0008029122836887
9.769550524652004e-05
0.0010412591509521
0.0019896039739251
0.0029062444809824
0.0037608561106026
0.0045331702567636
0.0052143619395792
0.0058036437258124
0.0062998309731483
0.0066932085901498
0.0069611691869795
0.0070663769729435
0.0069583915174007
0.0065814396366477
0.0058867931365966
0.0048452490009367
0.0034575718455016
0.0017623292515054
-0.0001618200913071
-0.0022021778859198
-0.0042238128371536
-0.0060834912583231
-0.007645770907402
-0.008800190873444
-0.0094765573740005
-0.0096552930772304
-0.0093702767044305
-0.0087032541632652
-0.0077696377411484
-0.0066988752223551
-0.0056158429943025
-0.0046262019313871
-0.0038062359672039
-0.0031988029368221
-0.0028151175938546
-0.0026390289422124
-0.0026302682235836
-0.0027276528999209
-0.002856170758605
-0.002938522491604
-0.0029080715030431
-0.0027178553864359
-0.0023432681336998
-0.0017815129831433
-0.0010491223074495
-0.0001774984411895
0.0007917648181319
0.0018121325410902
0.0028383950702846
0.0038319623563438
0.0047632623463869
0.0056115831248462
0.006364797707647
0.0070191612467169
0.0075765205547213
0.0080360248684883
0.0083809271454811
0.0085700675845146
0.0085430201143026
0.0082348687574267
0.0075929905287921
0.0065929573029279
0.0052504474297165
0.0036256040912121
0.0018193896394222
-3.7143006920814514e-05
-0.0017999680712819
-0.0033316309563815
-0.004517791327089
-0.0052801752462983
-0.0055852429941296
-0.0054461550898849
-0.004920161794871
-0.0041022268123924
-0.0031120441854
-0.0020757019519805
-0.0011073523201048
-0.0002949251793324
0.0003097946755588
0.0006961561739444
0.0008917702361941
0.0009521185420453
0.0009471289813518
0.0009486782364547
0.0010220073163509
0.001221377402544
0.0015865222085267
0.0021380756516009
0.0028729743789881
0.0037626393605023
0.004757210612297
0.0057941828854382
0.0068080844357609
0.0077405320480465
0.0085485717281699
0.0092082684859633
0.009714076295495
0.0100759351626038
0.0103135984390974
0.0104471305385231
0.0104847475886344
0.0104130618274211
0.0101951314136385
0.0097752204164862
0.0090884082019329
0.0080771055072546
0.006711155641824
0.0050023915246129
0.0030088871717453
0.0008295576553791
-0.0014080461114645
-0.00356355169788
-0.0055013918317854
-0.0071077533066272
-0.0083047952502965
-0.0090623283758759
-0.0094032743945717
-0.0093990564346313
-0.0091585982590913
-0.0088150650262832
-0.0085104713216423
-0.0083780940622091
-0.0085256164893507
-0.009023604914546
-0.0098996236920356
-0.0111364312469959
-0.0126771442592144
-0.0144392391666769
-0.0163314007222652
-0.0182635933160781
-0.0201488826423883
-0.0219040755182504
-0.0234519578516483
-0.0247197970747947
-0.0256337355822324
-0.0261216610670089
-0.0261310283094644
-0.0256499052047729
-0.0247171409428119
-0.0234128087759017
-0.0218310263007879
-0.0200507007539272
-0.0181171726435422
-0.0160430185496807
-0.0138343852013349
-0.0115334624424576
-0.0092520583420991
-0.0071766674518585
-0.0055431500077247
-0.004598306491971
-0.004578560590744
-0.0057220943272113
-0.0082899704575538
-0.0125615429133176
-0.0188298057764768
-0.027433842420578
-0.0387405157089233
-0.0529714785516262
-0.069979727268219
-0.0891585126519203
-0.1094944849610328
-0.1296592652797699
-0.1480957120656967
-0.1631404608488083
-0.1732032150030136
-0.1769593507051468
-0.173510730266571
-0.1625037491321563
-0.144195094704628
-0.1194441691040992
-0.0896250084042549
-0.0564742088317871
-0.0219019949436187
0.0122076645493507
0.0441906452178955
0.0727676451206207
0.0971447899937629
0.1170283183455467
0.1325641274452209
0.1442301571369171
0.1527095735073089
0.1587671935558319
0.1631425321102142
0.1664640605449676
0.1691901683807373
0.171586200594902
0.1737383902072906
0.1755926012992859
0.177002727985382
0.177777349948883
0.1777178943157196
0.176647663116455
0.1744351685047149
0.1710100322961807
0.1663684248924255
0.1605708301067352
0.1537355333566665
0.1460310518741607
0.1376678794622421
0.128884345293045
0.119924172759056
0.1110134795308113
0.1023439690470695
0.0940620154142379
0.0862616896629333
0.0789812207221984
0.0722038224339485
0.0658650398254394
0.059867151081562
0.0540980361402034
0.0484508611261844
0.0428396724164485
0.0372065715491771
0.0315229967236518
0.0257890149950981
0.0200277306139469
0.0142749100923538
0.008571621030569
0.0029612891376018
-0.0025139451026916
-0.0078184567391872
-0.0129274427890777
-0.017827995121479
-0.022516630589962
-0.0269963406026363
-0.0312751568853855
-0.035364381968975
-0.0392751805484294
-0.0430152975022792
-0.046587660908699
-0.0499905683100223
-0.0532200708985328
-0.0562754273414611
-0.0591654255986213
-0.0619127042591571
-0.0645563006401062
-0.0671520829200744
-0.0697679072618484
-0.0724724978208541
-0.075320690870285
-0.0783393308520317
-0.0815163776278495
-0.084795281291008
-0.0880780518054962
-0.0912368670105934
-0.0941294729709625
-0.0966136902570724
-0.0985620841383934
-0.0998794138431549
-0.1005177497863769
-0.1004816889762878
-0.0998238250613212
-0.0986352637410163
-0.0970327034592628
-0.0951418951153755
-0.0930822268128395
-0.0909558832645416
-0.088839367032051
-0.0867769122123718
-0.0847781226038932
-0.0828208774328231
-0.0808583572506904
-0.0788272321224212
-0.0766573250293731
-0.0742853134870529
-0.0716678574681282
-0.0687883719801902
-0.0656572803854942
-0.0623067319393157
-0.0587814562022686
-0.055130697786808
-0.0514042116701602
-0.0476499050855636
-0.0439097881317138
-0.0402153432369232
-0.0365854576230049
-0.0330272577702999
-0.0295388158410787
-0.0261151064187288
-0.0227591954171657
-0.0194955132901668
-0.0163756981492042
-0.013470372185111
-0.0108508067205548
-0.0085690133273601
-0.0066431108862161
-0.0050508100539445
-0.0037297229282557
-0.0025850557722151
-0.0015068133361637
-0.0003920153249055
0.0008371446747332
0.0022235049400478
0.0037732745986431
0.0054618683643639
0.0072425655089318
0.0090515194460749
0.0108114071190357
0.0124415857717394
0.0138757964596152
0.0150796519592404
0.0160579625517129
0.016848437488079
0.0175079349428415
0.0180995650589466
0.0186860170215368
0.0193302705883979
0.0200969297438859
0.0210473835468292
0.0222312957048416
0.0236771479249
0.0253790635615587
0.0272831171751022
0.02928476780653
0.0312434677034616
0.033009260892868
0.0344533175230026
0.0354949906468391
0.0361184254288673
0.0363749600946903
0.0363716334104537
0.0362498089671134
0.0361597947776317
0.0362339913845062
0.0365587398409843
0.0371517203748226
0.0379571728408336
0.0388606935739517
0.0397134236991405
0.0403591841459274
0.0406632311642169
0.0405364446341991
0.0399480015039444
0.0389283448457717
0.037567276507616
0.0360052771866321
0.0344140529632568
0.0329682044684886
0.0318154767155647
0.03105447627604
0.0307239945977926
0.0308029223233461
0.0312177389860153
0.031854510307312
0.0325757078826427
0.0332429595291614
0.0337423458695411
0.0340067557990551
0.0340285673737525
0.0338561087846756
0.0335752256214618
0.0332856103777885
0.033079907298088
0.0330281741917133
0.0331680364906787
0.0335011035203933
0.0339955054223537
0.0345939509570598
0.0352262891829013
0.0358214825391769
0.0363141559064388
0.0366472154855728
0.0367736145853996
0.0366575568914413
0.0362739600241184
0.0356059223413467
0.0346403792500495
0.0333615913987159
0.0317454077303409
0.0297598950564861
0.0273729115724563
0.0245628673583269
0.0213301312178373
0.0177085883915424
0.0137737393379211
0.0096394643187522
0.0054422747343778
0.0013220198452472
-0.0025928784161806
-0.0061948522925376
-0.0094039123505353
-0.0121736042201519
-0.0144954416900873
-0.0163991749286651
-0.0179474968463182
-0.019225601106882
-0.0203275736421346
-0.0213431827723979
-0.0223477948457002
-0.0233951155096292
-0.0245118960738182
-0.0256974250078201
-0.026930158957839
-0.0281771663576364
-0.0294016189873218
-0.0305666700005531
-0.0316365584731102
-0.032578382641077
-0.0333656445145607
-0.0339818149805069
-0.0344227999448776
-0.0346971377730369
-0.0348226726055145
-0.0348214656114578
-0.0347174480557441
-0.0345354899764061
-0.0342968553304672
-0.0340147316455841
-0.0336963832378387
-0.0333504453301429
-0.0329947806894779
-0.0326624438166618
-0.0324039235711097
-0.0322835557162761
-0.0323685333132743
-0.0327129513025283
-0.0333432704210281
-0.0342503786087036
-0.0353879071772098
-0.0366738103330135
-0.0379965715110302
-0.0392280146479606
-0.040238332003355
-0.0409104526042938
-0.0411548987030983
-0.0409217625856399
-0.0402052700519561
-0.0390406437218189
-0.0374946780502796
-0.0356541611254215
-0.0336160995066165
-0.0314793810248374
-0.0293358322232961
-0.0272608734667301
-0.025305600836873
-0.0234921611845493
-0.0218140743672847
-0.0202410072088241
-0.018725574016571
-0.0172123163938522
-0.0156496651470661
-0.0139997927471995
-0.0122416634112596
-0.0103708291426301
-0.0083987861871719
-0.0063492469489574
-0.0042521590366959
-0.0021397238597273
-4.403013736009598e-05
0.0020061465911567
0.0039884746074676
0.005887933075428
0.0076952297240495
0.0094052338972687
0.0110156629234552
0.012521332129836
0.0139040350914001
0.0151261277496814
0.0161325745284557
0.0168597772717475
0.0172483008354902
0.0172564480453729
0.0168730430305004
0.0161283258348703
0.015097645111382
0.0138935483992099
0.0126501722261309
0.0115057826042175
0.0105862850323319
0.0099928816780447
0.0097940098494291
0.0100178476423025
0.010647514835
0.011624339967966
0.0128569677472114
0.0142324427142739
0.0156313236802816
0.0169456675648689
0.018092043697834
0.0190161801874637
0.0196941345930099
0.0201341453939676
0.0203752070665359
0.0204778034240007
0.0205115564167499
0.0205452442169189
0.0206386074423789
0.0208352822810411
0.0211569387465715
0.0215999148786067
0.0221373327076435
0.0227270312607288
0.0233220048248767
0.0238789021968841
0.0243619494140148
0.0247443206608295
0.0250103063881397
0.0251567848026752
0.0251911580562591
0.0251272153109312
0.024979980662465
0.0247581843286752
0.0244556330144405
0.0240445956587791
0.0234741978347301
0.0226772110909223
0.0215860418975353
0.0201531555503606
0.0183675959706306
0.0162622388452291
0.0139125399291515
0.0114284381270408
0.0089404927566647
0.0065831691026687
0.0044786287471652
0.0027233874425292
0.0013786135241389
0.0004649758338928
-3.583543002605438e-05
-0.0001756809651851
-3.573950380086899e-05
0.000280980952084
0.0006651785224676
0.0010177204385399
0.0012610461562871
0.0013464037328958
0.0012567355297505
0.0010052514262497
0.0006297477521002
0.0001820903271436
-0.0002825022675096
-0.0007115551270544
-0.0010584820993244
-0.0012854118831455
-0.0013659815303981
-0.0012886179611086
-0.0010611354373395
-0.0007124240510165
-0.0002859500236809
0.0001705780159682
0.0006125184008851
0.0010031168349087
0.0013172305189073
0.0015426431782543
0.001678732340224
0.0017307688249275
0.0016986581031233
0.0015667480183765
0.0013018031604588
0.0008585334289819
0.0001898761838674
-0.0007408377714455
-0.0019498491892591
-0.0034266980364918
-0.005130470264703
-0.0069884229451417
-0.0089000966399908
-0.0107487142086029
-0.0124160517007112
-0.0137960854917764
-0.0148070659488439
-0.01540173497051
-0.0155718084424734
-0.0153459757566452
-0.0147850951179862
-0.0139750130474567
-0.0130151696503162
-0.0120055340230464
-0.0110363829880952
-0.0101810749620199
-0.0094902962446212
-0.0089876428246498
-0.008666425012052
-0.00849075242877
-0.0084039503708481
-0.0083406139165163
-0.0082371607422828
-0.0080397529527544
-0.0077099595218896
-0.0072281528264284
-0.0065948460251092
-0.0058283852413296
-0.0049575311131775
-0.0040147695690393
-0.0030362720135599
-0.0020629954524338
-0.0011363312369212
-0.000291597796604
0.0004461035132408
0.0010633799247443
0.0015560386236757
0.0019210351165384
0.002146438229829
0.0022062931675463
0.0020630059298127
0.0016745945904403
0.0010048924013972
3.6018434911966324e-05
-0.0012198736658319
-0.0027147461660206
-0.0043679219670593
-0.0060761040076613
-0.0077253710478544
-0.0092020817101001
-0.0104023525491356
-0.0112424660474061
-0.0116700809448957
-0.0116709107533097
-0.0112691195681691
-0.0105245374143123
-0.0095257824286818
-0.0083778053522109
-0.0071871178224682
-0.006047376897186
-0.0050268229097127
-0.0041617332026362
-0.0034592053852975
-0.0029052693862468
-0.0024709478020668
-0.0021157222799956
-0.0017922078259289
-0.0014519733376801
-0.0010510771535336
-0.0005549262277781
5.8477744460105896e-05
0.0007970319129526
0.0016540056094527
0.0026084785349667
0.0036276984028518
0.0046719475649297
0.0057012806646525
0.0066802976652979
0.0075777005404233
0.0083657605573534
0.0090236365795135
0.0095390435308218
0.0099051976576447
0.0101155769079923
0.0101576698943972
0.0100067146122455
0.0096234306693077
0.0089613124728202
0.0079837087541818
0.0066828080452978
0.0050918301567435
0.0032867141999304
0.0013782600872218
-0.0005027069710195
-0.0022244728170335
-0.0036730989813804
-0.0047655212692916
-0.0054554222151637
-0.005734231788665
-0.0056295441463589
-0.0051999590359628
-0.004526060540229
-0.0036995322443544
-0.0028124558739364
-0.0019476511515676
-0.001170199830085
-0.0005219127051532
-1.902645453810692e-05
0.000347760040313
0.0006075087003409
0.0007981425151228
0.0009586308151483
0.0011271508410573
0.0013410155661404
0.0016335975378751
0.0020277071744203
0.0025314050726592
0.0031389736104756
0.0038331737741827
0.0045874896459281
0.0053695971146225
0.0061456179246306
0.0068838936276733
0.007558005861938
0.0081506865099072
0.0086563238874077
0.0090758185833692
0.0094060022383928
0.0096314698457717
0.0097206365317106
0.0096255093812942
0.0092878397554159
0.0086519541218876
0.007679131347686
0.0063588349148631
0.0047156624495983
0.002812401857227
0.0007485027890652
-0.001348610385321
-0.0033387830480933
-0.0050864238291978
-0.0064784660935401
-0.0074410112574696
-0.0079479813575744
-0.0080199558287858
-0.0077171698212623
-0.0071292510256171
-0.0063625844195485
-0.0055267382413148
-0.004721300676465
-0.0040240096859633
-0.0034830104559659
-0.0031151282601058
-0.0029075264465063
-0.0028209430165588
-0.0027954860124737
-0.0027598382439464
-0.002645252039656
-0.0024011784698814
-0.0020033295731991
-0.0014520117547363
-0.0007664130534976
2.2032996639609337e-05
0.0008758855983614
0.0017558732070028
0.0026235857512801
0.0034448767546564
0.0041936733759939
0.0048542539589107
0.0054218056611716
0.0059007513336837
0.0063010202720761
0.0066329999826848
0.0068978765048086
0.0070745744742453
0.007114631589502
0.0069505469873547
0.0065114935860037
0.0057403747923672
0.0046088555827736
0.0031280773691833
0.0013540920335799
-0.0006139883189462
-0.0026449048891663
-0.0045928787440061
-0.0063158893026411
-0.0076909796334803
-0.0086273159831762
-0.0090769371017813
-0.0090414090082049
-0.0085723055526614
-0.0077634858898818
-0.0067363157868385
-0.0056214062497019
-0.0045402408577501
-0.0035911328159272
-0.0028408137150108
-0.0023179431445896
-0.0020099615212529
-0.0018696158658713
-0.001828615553677
-0.0018107299692928
-0.0017431842861697
-0.0015655079623684
-0.0012331584002822
-0.0007202739361673
-2.5326735340058804e-05
0.0008266817894764
0.001789434114471
0.0028042132034897
0.0038100401870906
0.0047528850845992
0.0055920556187629
0.0063043162226676
0.0068848980590701
0.0073435357771813
0.007696152664721
0.0079545872285962
0.008115935139358
0.0081548858433961
0.008025350049138
0.0076696653850376
0.007027419283986
0.006046281196177
0.0046989582479
0.002998461946845
0.0010048770345747
-0.0011765514500439
-0.0034070601686835
-0.0055337264202535
-0.0074103754013776
-0.0089161228388547
-0.0099694849923253
-0.0105362785980105
-0.0106303179636597
-0.010306978598237
-0.0096519663929939
-0.0087693883106112
-0.0077705709263682
-0.0067614605650305
-0.0058298977091908
-0.0050369054079055
-0.0044127311557531
-0.0039570061489939
-0.0036420098040252
-0.0034181668888777
-0.003223224543035
-0.0029945317655801
-0.0026792094577103
-0.0022390901576727
-0.0016538843046873
-0.0009238969068974
-6.823980947956443e-05
0.0008803972159512
0.0018802502891048
0.0028853863477706
0.0038523115217685
0.0047458368353545
0.0055414997041225
0.0062246145680546
0.0067892502993345
0.0072377403266727
0.0075759077444672
0.0078026801347732
0.0078996438533067
0.0078265126794576
0.0075254999101161
0.0069345012307167
0.0060049830935895
0.0047167148441076
0.0030852677300572
0.0011657745344564
-0.0009463994065299
-0.0031231914181262
-0.0052194772288203
-0.0070907725021243
-0.008610064163804
-0.0096835559234023
-0.010263055562973
-0.0103517509996891
-0.0100013054907321
-0.009300896897912
-0.0083623575046658
-0.0073045520111918
-0.0062369732186198
-0.0052465414628386
-0.004392662551254
-0.0037069581449031
-0.0031926052179187
-0.0028251502662897
-0.002558316104114
-0.0023337812162935
-0.0020911637693643
-0.0017762032803148
-0.0013470906997099
-0.0007788095390424
-6.521516479551792e-05
0.0007809625240042
0.001731171272695
0.0027484288439154
0.0037956787273287
0.0048383781686425
0.0058414195664227
0.006767984945327
0.0075836624018847
0.0082626026123762
0.0087927095592021
0.0091771502047777
0.0094282664358615
0.0095543097704648
0.0095463674515485
0.0093727726489305
0.0089828083291649
0.0083182146772742
0.0073295114561915
0.0059926258400082
0.0043220096267759
0.002376539632678
0.0002556730760261
-0.0019125288818031
-0.0039882315322756
-0.005837433040142
-0.0073465076275169
-0.0084336437284946
-0.0090577574446797
-0.0092222234234213
-0.008972130715847
-0.0083873001858592
-0.0075711240060627
-0.0066352542489767
-0.0056846011430025
-0.0048048719763755
-0.0040516587905585
-0.0034452420659363
-0.0029754189308732
-0.0026121418923139
-0.0023157810792326
-0.0020437096245586
-0.0017529592150822
-0.0014030608581379
-0.0009617165196686
-0.0004098492208868
0.0002571820514276
0.0010298822307959
0.0018850876949727
0.0027896554674953
0.003707469208166
0.0046060485765337
0.005460231564939
0.006251745391637
0.0069656306877732
0.0075879972428083
0.0081082135438919
0.0085225794464349
0.0088347550481557
0.0090514868497848
0.0091736270114779
0.009184650145471
0.0090437540784478
0.0086881862953305
0.0080441646277904
0.0070462059229612
0.0056594088673591
0.0038947970606386
0.0018143006600439
-0.0004747129278257
-0.0028335305396467
-0.0051092579960823
-0.0071521792560815
-0.0088329222053289
-0.0100577780976891
-0.0107789877802133
-0.0109979510307312
-0.010761902667582
-0.0101554859429597
-0.0092886732891201
-0.0082813622429966
-0.0072470852173864
-0.0062807956710457
-0.005450373981148
-0.0047894408926367
-0.0042959479615092
-0.0039399927482008
-0.0036744761746376
-0.0034428955987095
-0.0031866347417235
-0.0028539460618048
-0.002407772000879
-0.0018289656145498
-0.0011152700753882
-0.0002789694117382
0.0006561069749295
0.0016587702557444
0.002693620044738
0.0037225275300443
0.0047082831151783
0.0056211790069937
0.006443093996495
0.007165971212089
0.0077878050506114
0.0083090374246239
0.0087303835898637
0.0090514766052365
0.0092674465849995
0.0093630533665418
0.0093071768060326
0.009051245637238
0.0085353618487715
0.007702175527811
0.0065133906900882
0.0049635572358965
0.0030892586801201
0.000973185757175
-0.0012611804995685
-0.0034684741403907
-0.0055057704448699
-0.007248705253005
-0.0085995160043239
-0.0094954706728458
-0.0099168121814727
-0.0098878499120473
-0.0094714304432272
-0.0087589817121624
-0.0078569706529378
-0.0068740169517695
-0.0059102834202349
-0.005046762060374
-0.0043354528024792
-0.0037931138649582
-0.0034020717721432
-0.0031200849916785
-0.0028937186580151
-0.0026686305645853
-0.002395688323304
-0.0020347693935036
-0.0015586053486913
-0.0009559579775668
-0.0002310154377482
0.0005998882697895
0.0015104815829545
0.0024661505594849
0.0034277164377272
0.004356765653938
0.0052213007584214
0.0060016443021595
0.0066918325610458
0.0072937216609716
0.0078104701824486
0.0082437163218855
0.0085922200232744
0.0088504776358604
0.0090056024491786
0.0090316692367196
0.0088858865201473
0.0085111605003476
0.0078454259783029
0.0068348376080393
0.0054478873498737
0.0036893023643642
0.0016103251837193
-0.0006903193425387
-0.0030780520755797
-0.005403796210885
-0.007524442858994
-0.0093150101602077
-0.0106777530163526
-0.0115532698109745
-0.0119286654517054
-0.0118374414741992
-0.0113520370796322
-0.0105723571032285
-0.0096130659803748
-0.0085905669257044
-0.0076088397763669
-0.0067460420541465
-0.0060454104095697
-0.0055119008757174
-0.0051165674813091
-0.0048089963383972
-0.0045313369482755
-0.0042273676954209
-0.0038478018250316
-0.0033553459215909
-0.0027287062257528
-0.0019633551128208
-0.0010693880030885
-6.88598956912756e-05
0.0010066737886518
0.0021202396601438
0.0032337130978703
0.0043096644803881
0.0053140297532081
0.0062222816050052
0.0070237587206065
0.007718289270997
0.0083087868988513
0.0087987584993243
0.0091957254335284
0.0095112323760986
0.0097512956708669
0.0099030314013361
0.0099271414801478
0.0097605381160974
0.0093270326033234
0.0085524711757898
0.0073822857812047
0.005798187572509
0.0038297970313578
0.0015584302600473
-0.0008893072372302
-0.0033581822644919
-0.0056864758953452
-0.0077257999219
-0.0093541843816638
-0.0104857934638857
-0.0110806543380022
-0.0111507251858711
-0.0107570402324199
-0.0099978921934962
-0.0089936880394816
-0.0078727323561906
-0.0067562344484031
-0.0057426299899816
-0.0048963343724608
-0.0042439620010554
-0.0037773116491734
-0.0034604652319103
-0.0032382905483245
-0.0030464788433164
-0.0028233279008418
-0.0025192103348672
-0.0020999759435653
-0.0015456951223313
-0.0008485896978527
-1.296214759349823e-05
0.0009434195235371
0.0019887490198016
0.0030787794385105
0.0041625937446951
0.0051923301070928
0.0061318427324295
0.0069594378583133
0.0076653361320495
0.0082492735236883
0.0087194247171282
0.0090892761945724
0.0093729440122842
0.0095807183533906
0.009712828323245
0.0097504705190658
0.0096501326188445
0.009346873499453
0.0087654665112495
0.00783715210855
0.0065183755941689
0.0048068710602819
0.0027526260819286
0.0004580339882522
-0.0019374159164726
-0.0042804642580449
-0.0064243450760841
-0.0082424618303775
-0.0096370205283164
-0.0105462912470102
-0.0109511315822601
-0.0108766239136457
-0.0103876963257789
-0.0095809958875179
-0.0085732582956552
-0.0074862437322735
-0.0064306040294468
-0.0054913870990276
-0.0047172093763947
-0.0041174096986651
-0.0036695741582661
-0.0033309974242001
-0.0030476262327283
-0.0027615667786449
-0.0024195467121899
-0.0019804972689598
-0.0014180638827383
-0.0007187898736447
0.0001184493303298
0.0010805502533912
0.0021397490054368
0.0032573451753705
0.0043908949010074
0.0055011701770126
0.0065554152242839
0.0075269304215908
0.0083930287510156
0.0091344695538282
0.0097387172281742
0.0102044697850942
0.0105426562950015
0.0107712028548121
0.0109024690464138
0.0109276995062828
0.0108078438788652
0.0104758022353053
0.0098492801189422
0.0088501097634434
0.0074249836616218
0.0055647646076977
0.0033177642617374
0.0007885750383138
-0.0018789222231134
-0.0045233094133436
-0.0069820862263441
-0.0091051943600177
-0.0107705974951386
-0.0118983387947082
-0.0124585013836622
-0.0124740004539489
-0.0120177259668707
-0.0112014040350914
-0.0101578906178474
-0.0090219164267182
-0.0079131992533802
-0.006922953762114
-0.0061038634739816
-0.0054667699150741
-0.0049870200455188
-0.0046166223473846
-0.0042959172278642
-0.0039629945531487
-0.0035615421365946
-0.0030471535865217
-0.0023919481318444
-0.0015866917092353
-0.0006403066217899
0.000422905664891
0.0015685292892158
0.0027570284437388
0.0039464766159653
0.0050965165719389
0.0061746845021843
0.0071595138870179
0.0080373659729957
0.0087984669953584
0.0094376588240265
0.0099569829180836
0.0103653371334075
0.0106750298291444
0.0108946999534964
0.0110185202211141
0.0110172312706708
0.0108359083533287
0.0103983860462903
0.0096195321530103
0.0084254769608378
0.0067761596292257
0.0046828803606331
0.0022142329253256
-0.0005109726916998
-0.0033382263500243
-0.0060943835414946
-0.0086050815880298
-0.0107121691107749
-0.0122913690283894
-0.0132673112675547
-0.0136230159550905
-0.0134018836542963
-0.0127002038061618
-0.0116517152637243
-0.010407593101263
-0.0091150263324379
-0.0078980196267366
-0.0068428022786974
-0.005990591365844
-0.0053402772173285
-0.0048582516610622
-0.0044896490871906
-0.0041682608425617
-0.0038254186511039
-0.0033986801281571
-0.0028395089320838
-0.0021181928459554
-0.0012257131747901
-0.0001733165699988
0.0010099535575136
0.0022818972356617
0.0035934296902269
0.0048953602090477
0.0061444835737347
0.0073058633133769
0.008350072428584
0.0092515861615538
0.0099931051954627
0.0105711231008172
0.0109969694167375
0.0112935826182365
0.0114893270656466
0.0116088027134537
0.0116612166166305
0.0116280931979417
0.0114564560353755
0.0110639976337552
0.0103546809405088
0.0092397248372435
0.0076612327247858
0.0056119095534086
0.0031421871390193
0.0003555677831172
-0.0026018559001386
-0.0055555994622409
-0.0083197085186839
-0.01071597635746
-0.0125953815877437
-0.0138573441654443
-0.0144617464393377
-0.0144329387694597
-0.0138553027063608
-0.0128596648573875
-0.0116030154749751
-0.0102454228326678
-0.0089276656508445
-0.0077551137655973
-0.0067913657985627
-0.0060589304193854
-0.0055431295186281
-0.0051973266527056
-0.0049506668001413
-0.0047204727306962
-0.0044257743284106
-0.0039971312507987
-0.003383788280189
-0.002560744760558
-0.0015333557967096
-0.000334526412189
0.0009845502208918
0.0023654378019273
0.0037527759559452
0.0050998087972402
0.0063666021451354
0.007516682613641
0.0085190497338771
0.0093538556247949
0.0100158415734767
0.0105140870437026
0.010869295336306
0.0111092953011393
0.0112616149708628
0.0113413678482174
0.0113373417407274
0.0112035144120454
0.0108623933047056
0.0102208666503429
0.0091932415962219
0.0077236467041075
0.0058012474328279
0.0034679328091442
0.0008200278971344
-0.0019991009030491
-0.0048159495927393
-0.0074471007101237
-0.009718089364469
-0.0114812385290861
-0.0126344067975878
-0.0131366550922393
-0.0130116669461131
-0.012339343316853
-0.0112434346228837
-0.0098757948726415
-0.0083954837173223
-0.0069483984261751
-0.005653450731188
-0.0045927902683615
-0.0038036091718822
-0.0032762442715466
-0.0029604509472846
-0.0027755012270063
-0.0026233599055558
-0.0024063158780336
-0.0020432681776583
-0.0014787203399464
-0.000686518731527
0.000329214381054
0.0015363313723355
0.0028809821233153
0.004298185929656
0.0057213623076677
0.0070867305621504
0.0083368420600891
0.0094255367293953
0.0103221032768487
0.0110139185562729
0.0115066906437277
0.011821542866528
0.0119904214516282
0.012050749734044
0.0120372325181961
0.0119688650593161
0.0118350172415375
0.0115883778780698
0.0111490897834301
0.0104192635044455
0.0093032140284776
0.0077276560477912
0.0056599848903715
0.0031233001500368
0.0002032658085227
-0.0029569189064204
-0.0061723385006189
-0.0092384805902838
-0.0119551680982112
-0.014149566181004
-0.0156964156776666
-0.016533562913537
-0.0166697539389133
-0.0161807425320148
-0.0151931121945381
-0.0138621497899293
-0.0123523110523819
-0.0108222067356109
-0.0094102891162037
-0.0082196313887834
-0.0073049739003181
-0.0066685425117611
-0.00626677647233
-0.0060226158238947
-0.0058402144350111
-0.0056205913424491
-0.0052749342285096
-0.004735694732517
-0.0039651584811508
-0.0029575859662145
-0.0017340101767331
-0.0003342042909935
0.0011886155698448
0.0027695565950125
0.0043353480286896
0.005813144147396
0.007142218761146
0.0082824397832155
0.0092163989320397
0.0099472748115658
0.0104955397546291
0.0108944550156593
0.0111828753724694
0.0113954795524477
0.0115499943494796
0.0116329304873943
0.0115924710407853
0.0113452430814504
0.0107916165143251
0.0098318988457322
0.0083848778158426
0.0064103966578841
0.0039280545897781
0.0010237945243716
-0.002154582645744
-0.0054103923030197
-0.0085213407874107
-0.0112704876810312
-0.0134753249585628
-0.0150083797052502
-0.0158097371459007
-0.0158916488289833
-0.0153318531811237
-0.0142572997137904
-0.0128266615793108
-0.0112140234559774
-0.0095896227285265
-0.0080991955474019
-0.006848017219454
-0.0058917384594678
-0.0052336072549223
-0.0048295371234416
-0.0046008508652448
-0.0044494392350316
-0.0042712539434432
-0.0039691478013992
-0.0034662308171391
-0.002717605093494
-0.0017155450768768
-0.000485565746203
0.0009223283268511
0.0024418490938842
0.0039974451065063
0.005511796567589
0.0069149220362305
0.0081537216901779
0.0091977464035153
0.0100391320884227
0.0106891952455043
0.011173247359693
0.0115233529359102
0.0117703303694725
0.0119359483942389
0.0120240012183785
0.0120118632912635
0.0118475882336497
0.0114537691697478
0.0107379201799631
0.0096114939078688
0.0080142114311456
0.0059347744099795
0.0034226230345666
0.0005887883598916
-0.0024055920075625
-0.0053704068996012
-0.0081105288118124
-0.0104469880461692
-0.0122345220297575
-0.013377190567553
-0.0138402581214904
-0.0136528741568326
-0.0129000414162874
-0.011708915233612
-0.0102342665195465
-0.0086428932845592
-0.0070953075774014
-0.0057261763140559
-0.0046277833171188
-0.0038409736007452
-0.0033549373038113
-0.0031136770267039
-0.0030276782345026
-0.0029898539651185
-0.0028929808177053
-0.002645012224093
-0.0021797996014356
-0.0014619063585996
-0.0004848325625061
0.0007331490051001
0.0021499791182577
0.0037010442465543
0.005306945182383
0.0068866135552525
0.0083700008690357
0.0097055453807115
0.0108622461557388
0.0118294833227992
0.012613913975656
0.0132317338138818
0.0137000055983662
0.0140287801623344
0.0142112653702497
0.0142149161547422
0.0139800840988755
0.0134263914078474
0.0124643882736563
0.011014636605978
0.0090325474739074
0.0065285172313451
0.0035758030135184
0.0003075113054364
-0.0030939639545977
-0.0064148041419684
-0.009435573592782
-0.0119608305394649
-0.0138437543064355
-0.0150011498481035
-0.0154199078679084
-0.0151548413559794
-0.0143169481307268
-0.0130565017461776
-0.0115455100312829
-0.0099576553329825
-0.0084462594240903
-0.0071259313262999
-0.006061574909836
-0.0052652135491371
-0.0047010048292577
-0.0042979996651411
-0.0039653731510043
-0.0036060723941773
-0.0031310215126723
-0.0024735711049288
-0.0015980312600731
-0.0004985246341675
0.0008073046337813
0.0022826972417533
0.0038735198322683
0.005511216353625
0.0071198381483554
0.0086274445056915
0.0099774282425642
0.0111335087567567
0.012079544365406
0.0128190228715538
0.0133730629459023
0.0137733649462461
0.0140505116432905
