bvp
-0.0050457417964935
-0.0038826260715723
-0.0028584999963641
-0.0020322492346167
-0.0014293576823547
-0.0010447675595059
-0.0008460324024781
-0.0007790154777467
-0.0007770375232212
-0.0007710740319453
-0.0006984254578128
-0.0005095504457131
-0.000173270193045
0.0003202958614565
0.0009595356532372
0.0017150456551462
0.0025467812083661
0.0034114331938326
0.0042691030539572
0.0050879712216556
0.0058436174876987
0.0065157255157828
0.0070878458209335
0.0075491913594305
0.007893300615251
0.0081111826002597
0.0081821689382195
0.0080687860026955
0.0077184797264635
0.0070728249847888
0.0060848402790725
0.0047380467876791
0.0030576505232602
0.0011125423479825
-0.0009889756329357
-0.0031109196133911
-0.0051091192290186
-0.0068516479805111
-0.0082327583804726
-0.0091808587312698
-0.0096640884876251
-0.0096920458599925
-0.0093117412179708
-0.0086003514006733
-0.0076560685411095
-0.0065859677270054
-0.0054929349571466
-0.0044644786976277
-0.0035639789421111
-0.0028247460722923
-0.0022474694997072
-0.0018038908019661
-0.0014485208084806
-0.0011318492470309
-0.0008079996914602
-0.0004380107857286
8.174276445060968e-06
0.0005498470272868
0.0011935022193938
0.001932484912686
0.002748655155301
0.0036146924830973
0.0044975616037845
0.0053616603836417
0.0061705615371465
0.0068915975280106
0.0075043407268822
0.0080052018165588
0.0084029361605644
0.0087102875113487
0.0089360680431127
0.0090763196349143
0.0091067785397171
0.0089816264808177
0.008639944717288
0.008018247783184
0.0070665283128619
0.0057649770751595
0.004137450363487
0.0022561331279575
0.000233338214457
-0.0017954730428755
-0.0036886380985379
-0.005315198097378
-0.0065751899965107
-0.0074154692701995
-0.0078323353081941
-0.007865066640079
-0.0075868885032832
-0.0070930374786257
-0.0064863036386668
-0.0058636670000851
-0.005305633880198
-0.0048684403300285
-0.0045799808576703
-0.0044398549944162
-0.0044225719757378
-0.0044826292432844
-0.0045613921247422
-0.0045975833199918
-0.0045406562276184
-0.004360273014754
-0.0040473714470863
-0.0036102400626987
-0.0030690510757267
-0.002449422609061
-0.0017783674411475
-0.0010854715947061
-0.0004046782851219
0.0002288208343088
0.0007841892074793
0.0012398669496178
0.0015882984735071
0.0018383099231868
0.0020122653804719
0.0021361026447266
0.0022225892171263
0.0022565447725355
0.0021919005084782
0.0019611900206655
0.0014924206770956
0.0007278341799974
-0.0003597459290176
-0.0017556233797222
-0.0033996207639575
-0.0051911161281168
-0.0070011671632528
-0.008689621463418
-0.0101234503090381
-0.0111921988427639
-0.0118198478594422
-0.0119748283177614
-0.0116771068423986
-0.0109956385567784
-0.0100332591682672
-0.0089076394215226
-0.0077357646077871
-0.0066197207197546
-0.0056343283504247
-0.0048211310058832
-0.0041877049952745
-0.0037109246477484
-0.0033452485222369
-0.0030327034182846
-0.0027107016649097
-0.0023182262666523
-0.0018018644768744
-0.0011230644304305
-0.0002657370641827
0.0007599042728543
0.0019200649112462
0.0031656089704483
0.0044416347518563
0.0056957527995109
0.0068847914226353
0.007978213019669
0.0089587569236755
0.0098226200789213
0.0105771627277135
0.0112338382750749
0.0117985447868704
0.0122627029195427
0.0125968139618635
0.0127483494579792
0.0126468520611524
0.0122171454131603
0.0113968644291162
0.0101535264402627
0.008498266339302
0.0064931837841868
0.00424863724038
0.0019091829890385
-0.0003671902231872
-0.0024299139622598
-0.0041532586328685
-0.0054485714063048
-0.0062724221497774
-0.0066297641023993
-0.0065686088055372
-0.0061709466390311
-0.0055440720170736
-0.0048071518540382
-0.0040725637227296
-0.0034290412440896
-0.0029318539891391
-0.0026001271326094
-0.0024192538112401
-0.0023475065827369
-0.0023252018727362
-0.0022841645404696
-0.0021573239937424
-0.0018882877193391
-0.0014388379640877
-0.0007913676090538
5.426397547125816e-05
0.0010840925388038
0.0022691516205668
0.003564161946997
0.0049108015373349
0.0062447465024888
0.0075043006800115
0.0086391493678092
0.0096164308488368
0.0104232672601938
0.0110658556222915
0.0115618715062737
0.0119260475039482
0.0121553018689155
0.0122202951461076
0.0120673021301627
0.0116297807544469
0.0108443219214677
0.0096650775521993
0.0080754896625876
0.0060982713475823
0.0038009530398994
0.0012934484984725
-0.0012828139588236
-0.003771970514208
-0.006023864261806
-0.0079138167202472
-0.009357688948512
-0.010319766588509
-0.0108130509033799
-0.0108912596479058
-0.0106344455853104
-0.0101324953138828
-0.0094714825972914
-0.0087280692532658
-0.0079692266881465
-0.0072482763789594
-0.0065969889983534
-0.006021172273904
-0.0055036768317222
-0.0050131264142692
-0.0045133847743272
-0.0039709229022264
-0.0033618102315813
-0.0026772851124405
-0.0019232450285926
-0.0011153279338032
-0.0002749483101069
0.0005742067005485
0.0014090401818975
0.0022061599884182
0.0029407301917672
0.0035895071923732
0.0041365697979927
0.004579528234899
0.0049324855208396
0.0052219294011592
0.0054769804701209
0.0057162409648299
0.0059339310973882
0.0060927085578441
0.0061276578344404
0.005958710797131
0.005509010516107
0.004726008977741
0.0035968804731965
0.0021538520231842
0.0004715489631053
-0.001343410112895
-0.0031678192317485
-0.0048760632053017
-0.0063513852655887
-0.0074963611550629
-0.0082444744184613
-0.0085704335942864
-0.0084940269589424
-0.0080751609057188
-0.0074013997800648
-0.0065733664669096
-0.0056919059716165
-0.0048448843881487
-0.004095687996596
-0.0034798574633896
-0.003008022904396
-0.0026695390697568
-0.0024361633695662
-0.0022663839627057
-0.0021112922113388
-0.001922553172335
-0.0016591774765402
-0.0012918973807245
-0.0008071220945566
-0.0002080809790641
0.0004882693756371
0.0012553794076666
0.0020616794936358
0.0028752540238201
0.0036663138307631
0.0044089034199714
0.0050845611840486
0.0056873550638556
0.0062272902578115
0.0067269289866089
0.0072093750350177
0.0076825926080346
0.0081259850412607
0.0084853954613208
0.0086809750646352
0.0086239064112305
0.0082346992567181
0.0074610924348235
0.0062959156930446
0.0047892956063151
0.0030451314523816
0.0012009834172204
-0.0005960832932032
-0.0022082189098
-0.0035218929406255
-0.0044609773904085
-0.004994720686227
-0.0051381308585405
-0.0049459552392363
-0.0045037134550511
-0.0039158570580184
-0.0032901640515774
-0.0027217892929911
-0.0022804937325417
-0.0020026196725666
-0.0018891033250838
-0.0019105626270174
-0.00201829476282
-0.0021568234078586
-0.0022741924040019
-0.0023286617361009
-0.0022921035997569
-0.0021503870375454
-0.0019010269315913
-0.0015505030751228
-0.0011129062622785
-0.0006083218613639
-6.000109715387225e-05
0.0005081689450889
0.0010739139979705
0.0016202840488404
0.0021398814860731
0.0026365779340267
0.0031225213315337
0.0036114091053605
0.0041114552877843
0.0046188710257411
0.0051110670901834
0.0055417343974113
0.0058423802256584
0.0059335865080356
0.0057433280162513
0.0052246320992708
0.0043677841313183
0.0032068425789475
0.0018185965018346
0.000313242082484
-0.0011789873242378
-0.0025245111901313
-0.0036072358489036
-0.0043462812900543
-0.0047035147435963
-0.0046831686049699
-0.0043277172371745
-0.0037096969317644
-0.0029182550497353
-0.0020436351187527
-0.0011665080673992
-0.000352669856511
0.000351587194018
0.0009214725578203
0.0013510258868336
0.0016503173392266
0.0018438892439007
0.0019661732949316
0.0020523704588413
0.0021300769876688
0.0022170215379446
0.002322990912944
0.0024506165646016
0.0025946588721126
0.0027432860806584
0.0028815588448196
0.0029942747205495
0.0030675446614623
0.0030907094478607
0.0030580416787415
0.0029684007167816
0.0028242447879165
0.002631583251059
0.0023966687731444
0.0021163802593946
0.0017692861147224
0.0013149105943739
0.0007004630751907
-0.0001284582540392
-0.001215586438775
-0.0025817956775426
-0.0042144614271819
-0.0060608400963246
-0.0080284383147954
-0.0099936295300722
-0.011816251091659
-0.0133565515279769
-0.0144914938136935
-0.0151282120496034
-0.0152154676616191
-0.0147531675174832
-0.0137939825654029
-0.0124338930472731
-0.0107968552038073
-0.0090178027749061
-0.0072256932035088
-0.0055300062522292
-0.0040119281038641
-0.0027191203553229
-0.001664150157012
-0.0008277134620584
-0.0001668927143327
0.0003741956024896
0.0008562540169805
0.0013410022947937
0.001885543577373
0.002529724035412
0.0032846983522176
0.0041333744302392
0.0050402712076902
0.0059612463228404
0.0068487948738038
0.0076558506116271
0.0083414055407047
0.0088769318535923
0.0092498119920492
0.0094614485278725
0.0095225656405091
0.0094478698447346
0.0092491777613759
0.0089283362030982
0.0084711965173482
0.0078437216579914
0.0069961305707693
0.0058782654814422
0.0044594812206923
0.0027441279962658
0.000778874149546
-0.0013490126002579
-0.0035215504467487
-0.0056047700345516
-0.0074652298353612
-0.0089856954291462
-0.0100781600922346
-0.0106938006356358
-0.0108268819749355
-0.0105113750323653
-0.0098155904561281
-0.0088367024436593
-0.0076900622807443
-0.0064915036782622
-0.0053389277309179
-0.004300604108721
-0.0034123016521334
-0.0026808469556272
-0.0020898920483887
-0.0016054279403761
-0.0011822676751762
-0.0007720787543803
-0.0003305895952507
0.0001769722439348
0.0007721486035734
0.001462920801714
0.0022452163975685
0.0031015856657177
0.0039992281235754
0.0048942402936518
0.0057404469698667
0.0064974650740623
0.007138093933463
0.0076532131060957
0.0080516375601291
0.00835732370615
0.0086037972941994
0.0088227409869432
0.0090295914560556
0.009213613346219
0.0093372212722897
0.0093437498435378
0.0091692823916673
0.0087559092789888
0.0080660507082939
0.0070948484353721
0.0058763585984706
0.004481335170567
0.0030066086910665
0.0015592596028
0.0002408172003924
-0.0008654163684695
-0.0017040784005075
-0.0022544402163475
-0.0025323529262095
-0.0025850236415863
-0.0024783995468169
-0.002282480476424
-0.0020620389841496
-0.0018737625796347
-0.0017639029538258
-0.0017628781497478
-0.0018796155927702
-0.0021004078444093
-0.0023939728271216
-0.0027189294341951
-0.0030287217814475
-0.0032749422825872
-0.0034131046850234
-0.0034101656638085
-0.0032502058893442
-0.0029364256188273
-0.0024884482845664
-0.0019364997278898
-0.0013173429761081
-0.0006732086185365
-4.880153574049473e-05
0.0005162351299077
0.0009946876671165
0.0013744763564318
0.0016571867745369
0.0018546478822827
0.0019852092955261
0.0020676746498793
0.0021107904613018
0.0021038341801613
0.0020148635376244
0.0017962744459509
0.0013952469453215
0.0007678386755287
-0.0001068580895662
-0.0012177422177046
-0.0025202920660376
-0.0039411867037415
-0.0053858724422752
-0.0067485854960978
-0.0079253325238823
-0.0088273975998163
-0.0093927383422851
-0.0095938146114349
-0.0094408523291349
-0.0089806271716952
-0.0082899797707796
-0.0074639162048697
-0.006600905675441
-0.0057873586192727
-0.0050853230059146
-0.0045287827961146
-0.0041269497014582
-0.0038686040788888
-0.0037241391837596
-0.0036475323140621
-0.0035821152850985
-0.0034689824096858
-0.0032555426005274
-0.0029029280412942
-0.0023907306604087
-0.0017192136729136
-0.0009089499362744
3.196881152689457e-06
0.0009714684565551
0.0019502325449138
0.002899641636759
0.0037845470942556
0.0045725814998149
0.0052368668839335
0.0057613439857959
0.0061453469097614
0.0064034508541226
0.006559619680047
0.0066386749967932
0.0066561014391481
0.0066086174920201
0.006470734719187
0.0061990427784621
0.005742862354964
0.0050603584386408
0.0041362647898495
0.0029911785386502
0.0016772156814113
0.0002682353078853
-0.0011476059444248
-0.0024757329374551
-0.0036265680100768
-0.0045269252732396
-0.0051284325309097
-0.0054134987294673
-0.0053966911509633
-0.0051196217536926
-0.0046430714428424
-0.0040396293625235
-0.0033854546491056
-0.0027495198883116
-0.0021828170865774
-0.0017133527435362
-0.0013484547380357
-0.0010796952992677
-0.0008868931327015
-0.0007408473175019
-0.0006062649190425
-0.0004463349469006
-0.0002274732105433
7.71752092987299e-05
0.0004848940297961
0.0010008940007537
0.0016168201109394
0.0023121088743209
0.0030582898762077
0.0038244121242314
0.0045824712142348
0.0053094364702701
0.0059849047102034
0.0065899062901735
0.0071088420227169
0.0075327530503273
0.0078628761693835
0.0081108007580041
0.0082935998216271
0.0084272846579551
0.0085201542824506
0.008565355092287
0.0085346698760986
0.0083778128027915
0.0080295810475945
0.0074244732968509
0.0065151071175932
0.0052867103368043
0.0037629783619195
0.0020051528699696
0.0001053182641044
-0.0018253484740853
-0.0036699268966913
-0.0053191585466265
-0.0066846460103988
-0.0077094379812479
-0.0083720004186034
-0.0086837764829397
-0.0086853271350264
-0.0084411744028329
-0.0080298511311411
-0.0075302869081497
-0.0070091001689434
-0.0065136859193444
-0.0060727326199412
-0.0056995232589542
-0.0053934906609356
-0.0051404368132352
-0.0049130781553685
-0.004674473311752
-0.004385388456285
-0.0040118526667356
-0.0035311123356223
-0.0029358104802668
-0.0022335441317409
-0.0014434329932555
-0.000593448523432
0.0002840630477294
0.0011591990478336
0.0020071251783519
0.0028039398603141
0.0035222470760345
0.0041327802464365
0.0046102870255708
0.0049395966343581
0.005120983812958
0.0051729883998632
0.0051304926164448
0.0050372048281133
0.0049323933199048
0.0048354505561292
0.0047355438582599
0.0045912000350654
0.0043400051072239
0.0039162845350801
0.003270074725151
0.0023797750473022
0.0012579286703839
-4.762568278238177e-05
-0.0014578702393919
-0.002873730380088
-0.0041917278431355
-0.0053172376938164
-0.0061730747111141
-0.00670723663643
-0.0069004991091787
-0.0067704902030527
-0.0063689751550555
-0.0057724523358047
-0.0050704088062047
-0.0043525472283363
-0.0036955461837351
-0.0031555569730699
-0.0027679251506924
-0.0025475216098129
-0.0024874852970242
-0.0025606560520827
-0.002724853111431
-0.0029287457000464
-0.003118104301393
-0.0032430761493742
-0.0032631193753331
-0.0031487355008721
-0.0028827278874814
-0.0024612704291939
-0.0018936563283205
-0.0011998873669654
-0.0004073434974998
0.0004497186746448
0.0013301519211381
0.0021909596398472
0.0029945478308945
0.0037136324681341
0.0043339813128113
0.0048548975028097
0.0052881496958434
0.0056558661162853
0.0059848017990589
0.0062960945069789
0.0065932981669902
0.0068538570776581
0.0070296479389071
0.0070571559481322
0.0068716504611074
0.0064195953309535
0.0056683369912207
0.0046140933409333
0.0032871474977582
0.0017520514084026
0.0001017695758491
-0.0015522204339504
-0.0030918854754418
-0.0044081341475248
-0.0054177930578589
-0.0060745747759938
-0.0063714198768138
-0.0063376501202583
-0.0060319416224956
-0.0055312011390924
-0.0049199927598237
-0.0042830747552216
-0.0036972891539335
-0.0032218371052294
-0.0028909225948154
-0.0027110048104077
-0.0026619429700076
-0.0027012447826564
-0.002772060688585
-0.0028135501779615
-0.0027695284225046
-0.0025949040427803
-0.0022612493485212
-0.0017590662464499
-0.0010947920382022
-0.0002856445498764
0.0006425026804208
0.0016535059548914
0.0027016212698072
0.0037380359135568
0.0047184559516608
0.0056073958985507
0.0063809105195105
0.0070300623774528
0.0075631169602274
0.008002202026546
0.0083729876205325
0.0086905993521213
0.0089481081813573
0.0091124922037124
0.0091283172369003
0.0089280866086483
0.0084472130984067
0.0076390001922845
0.00648695230484
0.0050129517912864
0.0032782978378236
0.0013776483247056
-0.0005711783887818
-0.0024398728273808
-0.0041045709513127
-0.0054621184244751
-0.0064432001672685
-0.0070180487819015
-0.0071957213804125
-0.0070196315646171
-0.0065594054758548
-0.0058989487588405
-0.0051251081749796
-0.0043202359229326
-0.0035547816660255
-0.0028793264646083
-0.0023207543417811
-0.0018818927928805
-0.0015427514445036
-0.0012654026504606
-0.001002189470455
-0.000704406062141
-0.0003295368514955
0.0001534356269985
0.0007592656183987
0.0014830303844064
0.0023016454651951
0.003180127358064
0.0040778517723083
0.0049510803073644
0.0057542668655514
0.00644485745579
0.0069901486858725
0.0073725343681871
0.0075927297584712
0.0076700029894709
0.0076370006427168
0.0075295437127351
0.0073743727989494
0.0071773049421608
0.0069147758185863
0.0065329419448971
0.0059578432701528
0.0051157930865883
0.0039543393068015
0.002454804489389
0.0006381681887432
-0.0014326778473332
-0.0036563025787472
-0.0059033846482634
-0.0080326162278652
-0.0099074803292751
-0.0114113949239254
-0.0124605298042297
-0.013011896982789
-0.0130650280043482
-0.0126595208421349
-0.0118698393926024
-0.0107957022264599
-0.0095489816740155
-0.0082409642636775
-0.0069726007059216
-0.0058277333155274
-0.0048672426491975
-0.0041230823844671
-0.0035942664835602
-0.003248460125178
-0.0030311229638755
-0.0028786184266209
-0.0027295020408928
-0.0025322341825813
-0.0022495863959193
-0.0018603461794555
-0.0013596294447779
-0.0007566576823592
-6.964476779103279e-05
0.0006769075989723
0.0014511599438264
0.002215452492237
0.0029326232615858
0.0035735596902668
0.0041225655004382
0.0045795128680765
0.0049590058624744
0.0052850767970085
0.0055814511142671
0.0058600977063179
0.0061105079948902
0.0062945834361016
0.0063513265922665
0.0062087597325444
0.0057987147010862
0.0050723082385957
0.0040137590840458
0.0026493309997022
0.0010488940170034
-0.0006799900438636
-0.0024046963080763
-0.0039848443120718
-0.0052900742739439
-0.0062155202031135
-0.0066943517886102
-0.0067061828449368
-0.0062799537554383
-0.0054904278367757
-0.0044467994011938
-0.0032743280753493
-0.0020939635578542
-0.00100644887425
-8.511869236826897e-05
0.0006258047651499
0.0011124981101602
0.0013915136223658
0.0015049097128212
0.0015103371115401
0.0014705861685797
0.0014458656078204
0.001487651723437
0.0016325816977769
0.0018979121232405
0.0022822576574981
0.0027708255220204
0.0033406079746782
0.0039644055068492
0.0046128565445542
0.0052541894838213
0.005855806171894
0.00638979813084
0.0068397838622331
0.0072044776752591
0.0074948221445083
0.0077274697832763
0.0079176481813192
0.0080692451447248
0.0081631392240524
0.0081516299396753
0.0079646315425634
0.0075250873342156
0.0067673483863472
0.0056543992832303
0.0041899727657437
0.0024220766499638
0.0004389320965856
-0.0016405732603743
-0.0036810350138694
-0.0055467747151851
-0.0071162926033139
-0.0082936938852071
-0.0090190535411238
-0.0092776576057076
-0.0091054178774356
-0.0085872849449515
-0.0078454930335283
-0.0070189470425248
-0.0062393625266849
-0.0056095737963914
-0.0051905829459428
-0.0050004995428025
-0.0050196354277431
-0.0051977005787193
-0.0054640173912048
-0.0057390760630369
-0.005945177283138
-0.0060149729251861
-0.0058966120705008
-0.0055563463829457
-0.0049802688881754
-0.0041739782318472
-0.0031585046090185
-0.0019651637412607
-0.0006324559217318
0.0007969106081873
0.002279557287693
0.0037711635231971
0.0052239708602428
0.0065900841727852
0.0078297797590494
0.0089175784960389
0.0098438709974288
0.0106116095557808
0.0112268049269914
0.0116853276267647
0.0119632976129651
0.0120165031403303
0.0117871789261698
0.0112151261419057
0.0102537022903561
0.0088879577815532
0.0071459054015576
0.0050983559340238
0.0028511530254036
0.0005335574969649
-0.0017163227312266
-0.0037665618583559
-0.005504653789103
-0.0068504074588418
-0.0077671185135841
-0.0082649840041995
-0.0083956820890307
-0.0082419356331229
-0.0079039353877305
-0.0074847787618637
-0.007077339105308
-0.0067516854032874
-0.0065457224845886
-0.0064655211754143
-0.0064924913458526
-0.0065880501642823
-0.0066954856738448
-0.0067466590553522
-0.0066745020449161
-0.0064241467043757
-0.0059594018384814
-0.0052663525566458
-0.0043542627245187
-0.003253458533436
-0.0020102648995816
-0.0006789671606384
0.0006863182643428
0.0020366548560559
0.0033296921756118
0.004527979530394
0.0055977590382099
0.006511356215924
0.0072501320391893
0.0078061879612505
0.0081829521805047
0.0083904471248388
0.0084339547902345
0.0083017963916063
0.0079598473384976
0.0073570702224969
0.0064393505454063
0.0051656723953783
0.0035239339340478
0.0015454036183655
-0.0006888345815241
-0.0030566393397748
-0.0054133748635649
-0.0076100337319076
-0.009507673792541
-0.010988944210112
-0.0119683891534805
-0.0124022560194134
-0.0122956652194261
-0.0117026744410395
-0.010717112571001
-0.0094588436186313
-0.0080594317987561
-0.0066461726091802
-0.0053260088898241
-0.0041730660013854
-0.0032231786753982
-0.0024779732339084
-0.0019136391347274
-0.001487603643909
-0.0011449004523456
-0.0008269444806501
-0.0004800620372407
-6.131036207079887e-05
0.00045831760508
0.0010918942280113
0.0018354742787778
0.0026692142710089
0.0035596613306552
0.0044621843844652
0.005327221006155
0.0061116707511246
0.0067878109402954
0.0073436186648905
0.0077780555002391
0.0080956788733601
0.0083006937056779
0.008390043862164
0.0083465920761227
0.0081361243501305
0.0077116717584431
0.0070240325294435
0.0060351663269102
0.0047317091375589
0.00313521316275
0.0013063711812719
-0.0006565756630152
-0.002624824643135
-0.0044539384543895
-0.0060063833370804
-0.0071733514778316
-0.0078877406194806
-0.0081282528117299
-0.0079187704250216
-0.0073251011781394
-0.0064479983411729
-0.0054099224507808
-0.0043364027515053
-0.0033384975977241
-0.0025011361576616
-0.0018763915868476
-0.0014801797224208
-0.0012928000651299
-0.0012634969316422
-0.0013203050475567
-0.0013856913428753
-0.0013912331778556
-0.0012847918551415
-0.0010326675837859
-0.0006205746904015
-5.384464748203754e-05
0.0006429172353819
0.0014284863136708
0.0022525056265294
0.0030650072731077
0.0038229362107813
0.0044936211779713
0.0050577484071254
0.0055112428963184
0.0058647016994655
0.0061383601278066
0.006349379196763
0.0064953891560435
0.0065436693839728
0.0064314822666347
0.0060776611790061
0.0054009687155485
0.0043401028960943
0.0028724500443786
0.0010272737126797
-0.0011114698136225
-0.003413560334593
-0.0057192984968423
-0.0078599154949188
-0.0096769547089934
-0.0110385008156299
-0.0118537181988358
-0.0120856836438179
-0.0117568308487534
-0.010943641886115
-0.009764214977622
-0.0083620529621839
-0.0068872720003128
-0.0054774647578597
-0.0042408714070916
-0.0032447269186377
-0.0025113087613135
-0.0020214840769767
-0.0017236731946468
-0.0015448797494173
-0.001399828121066
-0.0011976961977779
-0.0008508577011525
-0.0002878503873944
0.0005358946509659
0.0016353300306946
0.0029975632205605
0.00458330148831
0.0063276765868067
0.0081434920430183
0.0099286567419767
0.0115730725228786
0.0129620237275958
0.0139835262671113
0.014545951038599
0.0145974475890398
0.0141332056373357
0.0131887812167406
0.0118262562900781
0.010117208585143
0.0081282388418912
0.0059175342321395
0.0035423943772912
0.0010699834674596
-0.001414195052348
-0.0038030091673135
-0.0059724855236709
-0.0077945068478584
-0.0091525753960013
-0.0099563626572489
-0.0101535972207784
-0.0097370743751525
-0.0087446607649326
-0.0072535770013928
-0.0053740888833999
-0.0032450798898935
-0.0010253586806356
0.0011237247381359
0.0030592270195484
0.0046755131334066
0.0059169204905629
0.0067797992378473
0.0073058283887803
0.0075712068937718
0.0076734945178031
0.0077179735526442
0.0078046303242444
0.0080163935199379
0.0084111345931887
0.0090186381712555
0.0098400004208087
0.0108479317277669
0.0119908265769481
0.0132026672363281
0.0144162969663739
0.0155756743624806
0.0166431590914726
0.0176005233079195
0.0184459760785102
0.0191882122308015
0.0198349356651306
0.0203759223222732
0.0207678414881229
0.0209287758916616
0.0207441821694374
0.0200834088027477
0.0188243463635444
0.0168802812695503
0.0142221134155988
0.0108913397416472
0.0070021944120526
0.0027326215058565
-0.0016952939331531
-0.0060423174872994
-0.0100817941129207
-0.0136268902570009
-0.0165504794567823
-0.0187947824597358
-0.0203710626810789
-0.0213510785251855
-0.0218506827950477
-0.022006444633007
-0.0219515822827816
-0.021799124777317
-0.0216318070888519
-0.0214949809014797
-0.0213949773460626
-0.0213059559464454
-0.0211843438446521
-0.0209880974143743
-0.0206938982009887
-0.020303338766098
-0.0198357887566089
-0.0193145554512739
-0.0187547989189624
-0.0181561261415481
-0.0174998193979263
-0.0167519636452198
-0.0158732254058122
-0.0148326465860009
-0.0136183146387338
-0.0122393853962421
-0.0107210427522659
-0.0090972008183598
-0.0074047381058335
-0.005681425333023
-0.003969541285187
-0.0023251343518495
-0.0008263359777629
0.0004278072156012
0.0013284110464155
0.0017712377011775
0.0016713910736143
0.0009787664748728
-0.000308861490339
-0.0021394826471805
-0.0044076228514313
-0.0069611640647053
-0.0096133155748248
-0.0121596977114677
-0.0144006591290235
-0.0161652769893407
-0.017331788316369
-0.0178413242101669
-0.0177021194249391
-0.0169824585318565
-0.0157948918640613
-0.0142767587676644
-0.0125707071274518
-0.0108062615618109
-0.0090866684913635
-0.0074862805195152
-0.0060523157007992
-0.0048035122454166
-0.0037298742681741
-0.0027972608804702
-0.0019541392102837
-0.0011384710669517
-0.0002858359366655
0.0006604213267564
0.0017399983480572
0.0029707485809922
0.0043482012115418
0.0058474857360124
0.0074274130165576
0.0090379314497113
0.0106275612488389
0.0121465064585208
0.0135475676506757
0.0147886592894792
0.0158354025334119
0.0166585557162761
0.0172268655151128
0.0175020359456539
0.0174392014741897
0.0169934593141078
0.0161329675465822
0.0148558337241411
0.0132028060033917
0.0112590342760086
0.0091468952596187
0.0070150992833077
0.0050239069387316
0.0033262651413679
0.0020503457635641
0.0012864368036389
0.0010775448754429
0.0014163395389914
0.0022487696260213
0.0034814467653632
0.0049932496622204
0.0066514778882265
0.0083290617913007
0.0099177034571766
0.0113354139029979
0.0125318318605422
0.0134921511635184
0.0142355561256408
0.0148052927106618
0.0152539759874343
0.0156311839818954
0.0159762036055326
0.016314759850502
0.0166576411575078
0.0170002058148384
0.0173241626471281
0.0176021456718444
0.0178029183298349
0.0178959220647811
0.0178553815931081
0.0176638904958963
0.01731563732028
0.016819717362523
0.0162012949585914
0.0154955489560961
0.0147321298718452
0.0139166535809636
0.0130209866911172
0.0119864959269762
0.0107361376285552
0.0091923717409372
0.0072977608069777
0.0050339442677795
0.0024353258777409
-0.0004082615487277
-0.0033625450450927
-0.0062667801976203
-0.0089515093713998
-0.0112555045634508
-0.0130431605502963
-0.014222789555788
-0.0147621585056185
-0.0146940052509307
-0.0141099570319056
-0.0131459971889853
-0.0119618251919746
-0.0107175577431917
-0.009552844800055
-0.0085722096264362
-0.0078363958746194
-0.0073595913127064
-0.0071146488189697
-0.0070437244139611
-0.0070691062137484
-0.0071033551357686
-0.007061006501317
-0.0068718488328158
-0.0064922017045319
-0.0059106382541358
-0.0051465639844536
-0.0042431689798831
-0.003258517012
-0.0022572497837245
-0.0013032723218202
-0.0004535978659987
0.000246699899435
0.0007697055116295
0.0011095227673649
0.0012828512117266
0.0013213008642196
0.0012565981596708
0.0011055460199713
0.0008591078221797
0.000475974753499
-0.0001152670010924
-0.0010002208873629
-0.0022522555664181
-0.003906225785613
-0.0059419167228043
-0.0082801636308431
-0.0107893655076622
-0.0133001049980521
-0.0156264994293451
-0.0175903066992759
-0.0190418735146522
-0.0198762957006692
-0.0200457237660884
-0.0195645689964294
-0.0185051169246435
-0.0169867612421512
-0.0151623198762536
-0.0132007906213402
-0.0112655386328697
-0.0094925109297037
-0.0079758549109101
-0.0067623732611536
-0.0058522871695458
-0.0052059581503272
-0.0047548878937959
-0.0044136084616184
-0.0040930826216936
-0.0037157754413783
-0.0032257053535431
-0.0025888292584568
-0.001790769980289
-0.0008384870598092
0.0002396257186774
0.0014007191639393
0.0025982498191297
0.0037908316589891
0.004946254659444
0.0060415887273848
0.0070624849759042
0.0080044716596603
0.0088745085522532
0.0096878800541162
0.0104595720767974
0.011192156933248
0.0118640633299946
0.0124242203310132
0.0127938063815236
0.0128740034997463
0.0125635778531432
0.0117846131324768
0.0105063831433653
0.0087595805525779
0.0066372663713991
0.0042833513580262
0.0018750708550214
-0.0003967461234424
-0.002350021386519
-0.003833761671558
-0.0047478675842285
-0.0050585628487169
-0.0048031769692897
-0.004082032945007
-0.0030434082727879
-0.0018649497069418
-0.0007308416534215
0.0001942668750416
0.0007906684768386
0.0010010749101638
0.0008345833048224
0.000357172160875
-0.0003276147763244
-0.0011012648465111
-0.0018504705512896
-0.0024812021292746
-0.0029246911872178
-0.0031375761609524
-0.0030980261508375
-0.0027992287650704
-0.0022453698329627
-0.0014523181598633
-0.0004498105263337
0.0007185150752775
0.0019994063768535
0.0033367672003805
0.0046769841574132
0.005972868297249
0.0071870735846459
0.0082936016842722
0.009276052005589
0.0101203685626387
0.0108029851689934
0.0112820342183113
0.0114983869716525
0.0113861421123147
0.0108868861570954
0.0099630551412701
0.0086098220199346
0.0068636490032076
0.0048043923452496
0.0025511553976684
0.0002515974920243
-0.0019354179967194
-0.0038592386990785
-0.0053953668102622
-0.0064616189338266
-0.0070291315205395
-0.007123933173716
-0.0068191373720765
-0.0062207500450313
-0.005451064556837
-0.0046329386532306
-0.0038759224116802
-0.0032639852724969
-0.0028461473993957
-0.002632369287312
-0.0025951729621738
-0.0026770301628857
-0.0028033677954226
-0.0028972676955163
-0.0028910459950566
-0.0027334466576576
-0.0023923516273498
-0.0018543099286034
-0.0011233002878725
-0.0002177357673645
0.0008337367326021
0.0019936545286327
0.0032151888590306
0.0044434680603444
0.0056198616512119
0.0066888039000332
0.0076053719967603
0.0083408169448375
0.0088849943131208
0.0092447232455015
0.0094371568411588
0.0094802770763635
0.0093823065981268
0.0091310366988182
0.0086887460201978
0.0079991156235337
0.0070038880221545
0.0056604607962071
0.0039555444382131
0.0019150851294398
-0.0003912555985152
-0.0028539905324578
-0.0053352280519902
-0.0076845264993608
-0.0097570931538939
-0.011431929655373
-0.0126260397955775
-0.01330192014575
-0.0134691521525383
-0.0131818726658821
-0.0125310942530632
-0.011630711145699
-0.0105996951460838
-0.0095470566302537
-0.008564400486648
-0.007721890695393
-0.0070626195520162
-0.0065985559485852
-0.0063114957883954
-0.00615801429376
-0.0060770083218812
-0.0059990780428051
-0.0058568525128066
-0.0055940458551049
-0.0051724622026085
-0.0045777731575071
-0.0038207578472793
-0.0029309142846614
-0.0019465347286313
-0.0009081573225557
0.0001418760512024
0.0011579551501199
0.0020942061673849
0.0029116680379956
0.0035842251963913
0.004101927857846
0.0044727814383804
0.004719665274024
0.0048692226409912
0.0049369493499398
0.0049164947122335
0.0047770030796527
0.0044674612581729
0.0039281081408262
0.0031092287972569
0.0019895550794899
0.0005852349568158
-0.0010477828327566
-0.0028143089730292
-0.004588131327182
-0.006229359190911
-0.0076052150689065
-0.008607130497694
-0.0091617982834577
-0.0092394575476646
-0.008859297260642
-0.008088051341474
-0.00703058950603
-0.0058139446191489
-0.0045680091716349
-0.0034076026640832
-0.0024199611507356
-0.0016589181032031
-0.0011441214010119
-0.0008625416085124
-0.0007713194936513
-0.000804009148851
-0.000880615087226
-0.0009188358671963
-0.0008449528831988
-0.0006019636057317
-0.0001527112908661
0.000519699184224
0.0014117003884166
0.0025003843475133
0.0037476618308573
0.0051060514524579
0.0065221758559346
0.0079372599720954
0.0092890793457627
0.0105184447020292
0.0115785058587789
0.0124422945082187
0.0131039675325155
0.0135737527161836
0.0138694224879145
0.0140049923211336
0.0139790400862693
0.0137690920382738
0.0133353034034371
0.0126308808103203
0.011616688221693
0.0102789504453539
0.0086438655853271
0.0067791668698191
0.0047827418893575
0.0027691030409187
0.0008588320342823
-0.0008324076188728
-0.0022073010914027
-0.0032001938670873
-0.0037858646828681
-0.0039824126288294
-0.0038491957820951
-0.0034779477864503
-0.0029771314002573
-0.0024559071753174
-0.0020108569879084
-0.0017129881307482
-0.0015988220693543
-0.0016714917728677
-0.0019077218603342
-0.0022637657821178
-0.0026801694184541
-0.003088645869866
-0.0034213769249618
-0.0036204122006893
-0.0036460016854107
-0.0034818635322153
-0.0031345407478511
-0.0026279864832758
-0.0019977132324129
-0.00128701957874
-0.0005433454643934
0.0001882474170997
0.0008721742779016
0.0014842702075839
0.0020084688439965
0.0024345244746655
0.0027600503526628
0.0029920381493866
0.003141788765788
0.0032141699921339
0.0031977440230548
0.0030613020062446
0.0027573965489864
0.0022317827679216
0.0014378363266587
0.0003521144390106
-0.0010123401880264
-0.0025984952226281
-0.0043102600611746
-0.0060288286767899
-0.007631067186594
-0.0090054962784051
-0.010065427981317
-0.0107569396495819
-0.0110608804970979
-0.0109919803217053
-0.0105969980359077
-0.0099498694762587
-0.0091428589075803
-0.0082743093371391
-0.007434164173901
-0.0066924085840582
-0.0060932338237762
-0.0056519592180848
-0.0053552910685539
-0.0051679727621376
-0.0050429017283022
-0.0049297777004539
-0.0047811320982873
-0.0045557031407952
-0.0042201299220323
-0.0037515040021389
-0.0031408630311489
-0.0023952019400894
-0.0015357062220573
-0.000592416152358
0.0004000773187726
0.0014033988118171
0.0023779803887009
0.003290825523436
0.0041216416284441
0.0048611247912049
0.0055045937187969
0.0060455044731497
0.006469109095633
0.0067475559189915
0.0068389400839805
0.0066902902908623
0.006244164891541
0.0054502412676811
0.0042816172353923
0.0027507778722792
0.0009170591365545
-0.0011181288864463
-0.0032224543392658
-0.0052449535578489
-0.0070318379439413
-0.0084465658292174
-0.0093893660232424
-0.0098102185875177
-0.0097115105018019
-0.0091417003422975
-0.0081846844404935
-0.0069473343901336
-0.0055457246489822
-0.0040919878520071
-0.0026827845722436
-0.0013897437602281
-0.0002549719065427
0.0007076966576278
0.0015097553841769
0.0021848529577255
0.0027821813710033
0.0033543994650244
0.0039452454075217
0.0045839180238544
0.0052854102104902
0.0060522272251546
0.0068748658522963
0.0077313869260251
0.008590412326157
0.009417925029993
0.010182143189013
0.010855920612812
0.0114207817241549
0.0118719674646854
0.0122198136523365
0.0124847050756216
0.0126870954409241
0.0128361899405717
0.0129205686971545
0.0129035497084259
0.0127251679077744
0.0123100187629461
0.011579705402255
0.0104702338576316
0.0089512895792722
0.0070400116965174
0.0048055578954517
0.0023646098561584
-0.0001326545607298
-0.0025233807973563
-0.0046527869999408
-0.0063906237483024
-0.0076446402817964
-0.0083726588636636
-0.0085890544578433
-0.0083601903170347
-0.0077902385964989
-0.0070035308599472
-0.0061270277947187
-0.0052738981321454
-0.0045305080711841
-0.0039494046941399
-0.00354835530743
-0.0033132801763713
-0.0032035037875175
-0.0031601418741047
-0.0031166553962975
-0.0030083220917731
-0.0027812109328806
-0.0024017363321036
-0.0018629212863743
-0.001183764077723
-0.0004027117975056
0.0004313234239816
0.0012672685552388
0.0020581143908202
0.0027661283966153
0.0033677862957119
0.0038564857095479
0.0042408350855112
0.0045392783358693
0.0047731567174196
0.0049577504396438
0.005091827828437
0.0051492787897586
0.0050765816122293
0.0047992104664444
0.0042373514734208
0.0033277431502938
0.0020455482881516
0.0004184718709439
-0.0014713836135342
-0.0034965095110237
-0.0055010658688843
-0.007323034107685
-0.0088158920407295
-0.009866720996797
-0.0104105388745665
-0.0104368273168802
-0.009984865784645
-0.009134592488408
-0.0079999156296253
-0.0067183682695031
-0.0054306341335177
-0.0042562056332826
-0.0032761059701442
-0.0025278013199567
-0.0020087070297449
-0.0016822374891489
-0.0014858152717351
-0.0013418779708445
-0.0011705937795341
-0.0009029693901538
-0.0004914035089313
8.640391752123833e-05
0.0008302505593746
0.0017213490791618
0.002723830519244
0.0037875964771956
0.0048548392951488
0.005868480540812
0.0067806439474225
0.0075574731454253
0.008180109784007
0.0086460271850228
0.0089691812172532
0.0091749299317598
0.0092897731810808
0.0093270055949687
0.0092728147283196
0.0090817622840404
0.0086857862770557
0.0080111529678106
0.0069952625781297
0.0056013539433479
0.0038328799419105
0.0017441868549212
-0.000559548381716
-0.0029342381749302
-0.0052161957137286
-0.0072439545765519
-0.0088784955441951
-0.0100198630243539
-0.0106182834133505
-0.0106780594214797
-0.0102555779740214
-0.009451599791646
-0.0083953095600008
-0.0072233923710882
-0.0060629984363913
-0.0050198063254356
-0.0041666845791041
-0.0035352990962564
-0.0031150004360824
-0.0028592739254236
-0.0026977830566465
-0.0025498550385236
-0.0023357621394097
-0.001986137824133
-0.0014513377100229
-0.0007084566168487
0.0002374330069869
0.0013572715688496
0.0026049802545458
0.0039234585128724
0.0052477424032986
0.0065095927566289
0.0076462319120764
0.0086105810478329
0.00937813334167
0.0099477553740143
0.0103381685912609
0.010581131093204
0.0107102608308196
0.010746675543487
0.0106854187324643
0.0104889115318655
0.0100923180580139
0.0094198808073997
0.008406207896769
0.0070139663293957
0.005243144929409
0.0031353998929262
0.0007772205863147
-0.0017027427675202
-0.0041481629014015
-0.0063979597762227
-0.0083085689693689
-0.009771142154932
-0.0107243098318576
-0.0111602898687124
-0.0111214285716414
-0.0106911221519112
-0.0099827218800783
-0.0091242603957653
-0.0082395188510417
-0.0074306447058916
-0.0067668040283024
-0.0062808687798678
-0.0059726294130086
-0.0058136782608926
-0.0057520745322108
-0.0057193166576325
-0.0056402552872896
-0.005444451700896
-0.0050773709081113
-0.0045079649426043
-0.0037306160666048
-0.0027637605089694
-0.0016468497924506
-0.0004333871765993
0.0008195800473913
0.0020586554892361
0.0032352055422961
0.0043069352395832
0.0052430005744099
0.0060281516052782
0.0066641918383538
0.0071683633141219
0.007565994746983
0.0078799854964017
0.0081217298284173
0.0082822628319263
0.0083242505788803
0.008182325400412
