bvp
0.0184899382293224
0.0186265613883733
0.0191910956054925
0.0200586877763271
0.0210913326591253
0.022155825048685
0.0231364425271749
0.0239396542310714
0.024492559954524
0.0247405059635639
0.0246483813971281
0.024205619469285
0.0234334375709295
0.0223913807421922
0.0211778208613395
0.0199212674051523
0.0187630970031023
0.0178356226533651
0.0172429177910089
0.0170486997812986
0.0172702558338642
0.0178793333470821
0.0188101790845394
0.0199691988527774
0.0212436225265264
0.0225121807307004
0.0236592181026935
0.0245888754725456
0.0252332780510187
0.0255519039928913
0.0255237929522991
0.0251352209597826
0.0243687275797128
0.0231997948139905
0.0216016788035631
0.0195563025772571
0.0170682705938816
0.0141778364777565
0.0109676234424114
0.0075584230944514
0.004096882417798
0.0007424629293382
-0.0023458222858607
-0.0050263414159417
-0.0071934880688786
-0.0087912231683731
-0.0098162088543176
-0.0103128422051668
-0.0103657338768243
-0.0100890211760997
-0.0096112042665481
-0.0090597961097955
-0.0085484543815255
-0.0081650409847497
-0.0079632718116045
-0.0079621318727731
-0.0081497160717844
-0.008488186635077
-0.008921236731112
-0.0093829510733485
-0.009806185029447
-0.0101300114765763
-0.0103057855740189
-0.0103025566786527
-0.0101111475378274
-0.0097443619742989
-0.009232991375029
-0.0086197741329669
-0.0079526184126734
-0.0072773820720613
-0.0066322297789156
-0.0060455836355686
-0.0055365702137351
-0.0051158852875232
-0.0047864373773336
-0.0045433705672621
-0.0043745124712586
-0.0042655058205127
-0.0042113037779927
-0.0042284065857529
-0.0043606236577034
-0.0046756267547607
-0.0052530299872159
-0.0061662858352065
-0.0074625825509428
-0.0091463411226868
-0.0111706592142581
-0.0134385637938976
-0.0158137585967779
-0.0181382037699222
-0.0202519390732049
-0.0220112707465887
-0.0233048610389232
-0.0240670684725046
-0.0242846887558698
-0.0239956174045801
-0.0232814010232687
-0.022255502641201
-0.0210492070764303
-0.0197960454970598
-0.0186147503554821
-0.0175926964730024
-0.0167751386761665
-0.0161639489233493
-0.0157229378819465
-0.0153866745531558
-0.0150731857866048
-0.0146994572132825
-0.0141958352178335
-0.0135146994143724
-0.0126321911811828
-0.0115472888574004
-0.0102812405675649
-0.0088746603578329
-0.0073802499100565
-0.0058538969606161
-0.0043479120358824
-0.0029076496139168
-0.0015706215053796
-0.0003673480823636
0.0006781117990612
0.0015501603484153
0.0022445730865001
0.0027701528742909
0.0031469287350773
0.0033978568390011
0.0035360436886548
0.0035534240305423
0.0034152204170823
0.0030632028356194
0.0024275416508316
0.0014434624463319
7.102172821760178e-05
-0.0016850885003805
-0.0037655280902981
-0.0060614929534494
-0.0084298513829708
-0.0107111781835556
-0.0127481389790773
-0.0144042428582906
-0.0155795682221651
-0.016219213604927
-0.0163160450756549
-0.0159104354679584
-0.0150861777365207
-0.0139604937285184
-0.0126678179949522
-0.0113407541066408
-0.010091807693243
-0.0089988093823194
-0.0080983322113752
-0.0073886755853891
-0.0068378513678908
-0.0063919378444552
-0.005985926836729
-0.0055622616782784
-0.0050985887646675
-0.0046362266875803
-0.0042878342792391
-0.0042085293680429
-0.0045418422669172
-0.0053677009418606
-0.0066720955073833
-0.0083429906517267
-0.0101868323981761
-0.0119585981592535
-0.0134002650156617
-0.0142805846408009
-0.0144264595583081
-0.0137400906533002
-0.0122033366933465
-0.0098729217424988
-0.0068691056221723
-0.00336186401546
0.0004424732178449
0.0043166084215044
0.0080317808315157
0.0113780368119478
0.0141815729439258
0.016319366171956
0.0177322197705507
0.0184332989156246
0.0185058265924453
0.0180883966386318
0.01735445484519
0.0164922382682561
0.0156851653009653
0.0150921083986759
0.0148307345807552
0.0149667430669069
0.0155098214745521
0.0164165832102298
0.0175997260957956
0.0189414657652378
0.0203098859637975
0.0215769354254007
0.0226349048316478
0.023408593609929
0.0238613784313201
0.0239930003881454
0.0238312203437089
0.0234248153865337
0.0228397380560636
0.0221531502902507
0.0214434936642646
0.0207791365683078
0.0202100556343793
0.0197655279189348
0.0194544568657875
0.0192655175924301
0.0191697515547275
0.0191266536712646
0.0190918408334255
0.0190240032970905
0.0188893005251884
0.018663115799427
0.0183295030146837
0.0178800784051418
0.0173148903995752
0.0166425369679927
0.0158748719841241
0.0150170046836137
0.0140575217083096
0.0129640027880668
0.0116863101720809
0.0101676303893327
0.008360480889678
0.0062418677844107
0.0038240756839513
0.0011617722921073
-0.0016473149880766
-0.0044733099639415
-0.0071723498404026
-0.009603283368051
-0.0116426674649119
-0.0131988953799009
-0.014221467077732
-0.0147047471255064
-0.0146885197609663
-0.014253381639719
-0.0135084586217999
-0.0125747378915548
-0.0115679539740085
-0.0105842901393771
-0.0096928756684064
-0.0089334892109036
-0.0083159878849983
-0.0078241936862468
-0.0074251610785722
-0.0070783626288175
-0.0067426469177007
-0.0063829948194324
-0.0059756631962955
-0.005508569534868
-0.0049776434898376
-0.0043833274394273
-0.0037300353869795
-0.0030277296900749
-0.0022936342284083
-0.0015518767759203
-0.0008301511406898
-0.0001559741795063
0.0004449114203453
0.0009484523907303
0.0013318080455064
0.0015740636736154
0.001658346503973
0.0015716776251792
0.0012994017452001
0.0008167419582605
8.40853899717331e-05
-0.0009490866214036
-0.0023326110094785
-0.004101363942027
-0.0062634134665131
-0.0087929340079426
-0.0116259455680847
-0.0146583765745162
-0.0177509151399135
-0.0207435097545385
-0.0234755836427211
-0.0258050449192523
-0.0276228301227092
-0.0288630723953247
-0.0295081753283739
-0.0295876581221818
-0.0291717052459716
-0.0283612832427024
-0.027276499196887
-0.0260440781712532
-0.0247826594859361
-0.0235875062644481
-0.0225200019776821
-0.021603412926197
-0.0208241008222103
-0.0201386418193578
-0.0194848030805587
-0.0187928099185228
-0.0179947391152381
-0.0170318242162466
-0.0158610809594392
-0.01446043420583
-0.0128296334296464
-0.010988151654601
-0.0089723533019423
-0.0068306736648082
-0.0046165739186108
-0.0023809787817299
-0.0001653265208005
0.0020018266513943
0.0041022161021828
0.0061219707131385
0.0080474019050598
0.0098651610314846
0.0115629751235246
0.0131247034296393
0.0145228262990713
0.0157173741608858
0.0166624616831541
0.0173158627003431
0.0176501553505659
0.0176647938787937
0.017394671216607
0.0169102177023887
0.0163089651614427
0.0157026536762714
0.0152029711753129
0.0149071803316473
0.0148862432688474
0.0151775116100907
0.0157809928059577
0.0166588630527257
0.0177398677915334
0.0189280454069376
0.0201134048402309
0.0211843382567167
0.0220418684184551
0.0226132590323686
0.0228611975908279
0.0227859988808631
0.0224226880818605
0.0218350440263748
0.0211045481264591
0.0203152205795049
0.0195404440164566
0.0188358426094055
0.0182377137243747
0.0177638437598943
0.0174138527363538
0.0171700567007064
0.0170017685741186
0.0168725959956645
0.0167469773441553
0.0165941342711448
0.0163898169994354
0.0161158367991447
0.0157586671411991
0.0153093123808503
0.0147645659744739
0.0141254290938377
0.0133890975266695
0.0125393709167838
0.0115429852157831
0.0103533947840332
0.008919758722186
0.0071973400190472
0.0051573999226093
0.0027969628572463
0.0001466181129217
-0.0027263183146715
-0.005721066147089
-0.0087125226855278
-0.0115639800205826
-0.0141419600695371
-0.0163319800049066
-0.0180542562156915
-0.0192755945026874
-0.0200110506266355
-0.0203159693628549
-0.0202748849987983
-0.0199899859726429
-0.0195695403963327
-0.0191169548779726
-0.0187194999307394
-0.0184382703155279
-0.0183040425181388
-0.0183191765099763
-0.0184621606022119
-0.0186933148652315
-0.018961027264595
-0.0192088931798934
-0.0193839985877275
-0.0194439906626939
-0.0193612854927778
-0.0191241800785064
-0.0187339391559362
-0.0181997027248144
-0.0175351537764072
-0.0167578216642141
-0.015888849273324
-0.0149509478360414
-0.013966160826385
-0.0129558742046356
-0.011940985918045
-0.01094083301723
-0.0099716652184724
-0.0090469559654593
-0.0081841070204973
-0.0074147582054138
-0.0067889210768043
-0.0063690985552966
-0.0062171495519578
-0.0063795405440032
-0.0068766912445425
-0.0076958751305937
-0.0087865246459841
-0.0100621357560157
-0.0114094614982604
-0.0127015504986047
-0.0138133056461811
-0.0146361347287893
-0.015087341889739
-0.0151169011369347
-0.0147148007526993
-0.013914137147367
-0.0127857727929949
-0.0114273717626929
-0.009949835948646
-0.0084618385881185
-0.0070550260134041
-0.0057938653044402
-0.0047113485634326
-0.0038099838420748
-0.0030667260289192
-0.0024387394078075
-0.0018686284311115
-0.0012913951650261
-0.000644402578473
0.0001221923157572
0.0010380186140537
0.0021096616983413
0.0033223628997802
0.0046449149958789
0.0060362662188708
0.0074523729272186
0.0088510634377598
0.0101953549310565
0.0114571843296289
0.0126195205375552
0.0136749828234314
0.0146218696609139
0.0154576376080513
0.0161712132394313
0.0167374163866043
0.0171160753816366
0.0172563735395669
0.0171050634235143
0.0166183579713106
0.0157751776278018
0.0145857669413089
0.0130951600149273
0.0113837169483304
0.0095619652420282
0.0077577703632414
0.006099191494286
0.0046985307708382
0.0036403834819793
0.0029737623408436
0.0027091205120086
0.0028205718845129
0.0032509416341781
0.0039180992171168
0.0047241281718015
0.0055677406489849
0.0063576023094356
0.0070240730419754
0.007527220994234
0.0078590009361505
0.0080387201160192
0.0081045720726251
0.0081055834889411
0.0080941598862409
0.0081175845116376
0.0082116294652223
0.0084005407989025
0.0086999787017703
0.0091149285435676
0.0096329981461167
0.0102233281359076
0.0108451088890433
0.0114577012136578
0.0120262373238801
0.0125246867537498
0.0129381716251373
0.0132623370736837
0.0134984944015741
0.013646462932229
0.0136970207095146
0.0136257167905569
0.0133913997560739
0.0129414098337292
0.0122219379991292
0.0111900866031646
0.0098240431398153
0.0081307562068104
0.0061519839800894
0.0039656129665672
0.0016786754131317
-0.0005859225057065
-0.0027048790361732
-0.004568887874484
-0.006093350239098
-0.0072256918065249
-0.0079494686797261
-0.0082837408408522
-0.0082788271829485
-0.0080091254785656
-0.0075618447735905
-0.0070248693227767
-0.0064778756350278
-0.0059856730513274
-0.0055928062647581
-0.0053203916177153
-0.0051641827449202
-0.0050957151688635
-0.0050697596743702
-0.005034243222326
-0.0049391072243452
-0.0047445856034755
-0.0044266753830015
-0.0039778519421815
-0.0034045497886836
-0.002724170917645
-0.0019627208821475
-0.0011515651131048
-0.000323318876326
0.0004905418027192
0.0012596775777637
0.0019558069761842
0.0025569244753569
0.0030511438380926
0.0034347595646977
0.0037034600973129
0.0038412860594689
0.0038156495429575
0.0035821986384689
0.0030946498736739
0.0023153028450906
0.001227565575391
-0.0001518726348876
-0.0017704144120216
-0.0035487546119838
-0.0053929365240037
-0.0072025251574814
-0.008876446634531
-0.01032030954957
-0.011455931700766
-0.012230890803039
-0.012625204399228
-0.0126529745757579
-0.012359119951725
-0.0118122082203626
-0.0110942162573337
-0.0102894641458988
-0.0094745699316263
-0.0087093990296125
-0.0080308178439736
-0.0074521526694297
-0.0069666476920247
-0.0065519320778548
-0.006175784394145
-0.0058020576834678
-0.0053952150046825
-0.0049249720759689
-0.0043709455057978
-0.003724240232259
-0.0029854744207113
-0.0021629554685205
-0.0012723389081656
-0.0003360718255862
0.0006176856113597
0.0015582689084112
0.002457465045154
0.0032918949145823
0.0040428056381642
0.0046957992017269
0.0052408115006983
0.0056696822866797
0.0059689613990485
0.0061131264083087
0.006064498797059
0.0057791154831647
0.0052156741730868
0.0043468065559864
0.0031707023736089
0.0017181509174406
5.393987521529198e-05
-0.0017264120979234
-0.0035079692024737
-0.0051750331185758
-0.0066277016885578
-0.0077896267175674
-0.0086106285452842
-0.0090696504339575
-0.0091765709221363
-0.0089696627110242
-0.008509605191648
-0.0078711127862334
-0.0071322633884847
-0.0063637909479439
-0.005621732212603
-0.0049451068043708
-0.0043551414273679
-0.0038523450493812
-0.0034164730459451
-0.0030137915164232
-0.0026069586165249
-0.0021626683883368
-0.0016547355335205
-0.001063464442268
-0.0003767474554479
0.0004066925030201
0.0012761207763105
0.0022102140355855
0.0031808726489543
0.0041586807928979
0.0051167462952435
0.0060318713076412
0.0068857381120324
0.0076668728142976
0.0083695687353611
0.0089889578521251
0.0095162549987435
0.0099342167377471
0.0102124270051717
0.0103073241189122
0.0101683801040053
0.009747302159667
0.009008701890707
0.007939875125885
0.0065568005666136
0.0049064462073147
0.0030658568721264
0.0011368634877726
-0.0007635566871613
-0.0025144212413579
-0.004002989269793
-0.0051407041028141
-0.0058785774745047
-0.0062125595286488
-0.0061776805669069
-0.0058378335088491
-0.0052750357426702
-0.0045784832909703
-0.003834854112938
-0.0031207944266498
-0.002496515866369
-0.0019989111460745
-0.0016357912681996
-0.0013862112537026
-0.0012081642635166
-0.0010488601401448
-0.00085288612172
-0.0005689011886715
-0.0001575923524796
0.0004010600969195
0.0011053320486098
0.0019347411580383
0.0028564119711518
0.0038316347636282
0.0048214634880423
0.0057914806529879
0.0067133111879229
0.0075636301189661
0.0083249136805534
0.0089869825169444
0.0095464689657092
0.0100059136748313
0.0103717623278498
0.0106460452079772
0.0108138434588909
0.0108369281515479
0.0106585975736379
0.0102149490267038
0.0094477934762835
0.008318961597979
0.0068250130861997
0.0050069638527929
0.0029487216379493
0.0007649404578842
-0.0014137956313788
-0.0034545580856502
-0.0052363597787916
-0.0066638556309044
-0.0076780533418059
-0.0082647232338786
-0.0084567535668611
-0.0083240773528814
-0.0079558379948139
-0.0074460739269852
-0.0068842871114611
-0.0063464855775237
-0.0058878581039607
-0.0055388091132044
-0.0053035304881632
-0.0051621105521917
-0.0050765569321811
-0.0049984860233962
-0.004876981023699
-0.0046656094491481
-0.0043283151462674
-0.0038445985410362
-0.0032118186354637
-0.0024431918282061
-0.0015637370524927
-0.0006061475723981
0.000392872840166
0.0013957464834675
0.0023673856630921
0.0032787690870463
0.0041092601604759
0.0048470040783286
0.005488347262144
0.0060365516692399
0.0064979544840753
0.0068746861070394
0.0071555390022695
0.0073083513416349
0.0072797937318682
0.0070055876858532
0.0064270771108567
0.0055081695318222
0.0042481240816414
0.0026862826198339
0.000897497870028
-0.0010173597838729
-0.0029411572031676
-0.0047515090554952
-0.0063343471847474
-0.0075977407395839
-0.0084825530648231
-0.008967250585556
-0.0090676564723253
-0.0088346851989626
-0.0083491429686546
-0.0077108745463192
-0.0070234984159469
-0.0063786758109927
-0.005844457540661
-0.0054595307447016
-0.0052309557795524
-0.0051355259492993
-0.0051269396208226
-0.0051463400013744
-0.0051319985650479
-0.0050266333855688
-0.0047829798422753
-0.0043684728443622
-0.0037697323132306
-0.0029966062866151
-0.0020818531047552
-0.001074583386071
-3.129965625703335e-05
0.0009932728717103
0.0019544716924428
0.0028225532732903
0.0035831292625516
0.0042337803170084
0.0047796098515391
0.0052301371470093
0.0055943066254258
0.0058706165291368
0.0060381405055522
0.0060563287697732
0.0058729331940412
0.0054354295134544
0.0047044642269611
0.0036671992857009
0.0023468218278139
0.0008058678358793
-0.0008588911732658
-0.002530391793698
-0.0040889917872846
-0.0054270918481051
-0.006458394229412
-0.0071241450496017
-0.0073990086093544
-0.0072947656735777
-0.0068559711799025
-0.0061483578756451
-0.0052490192465484
-0.0042413370683789
-0.003209161106497
-0.0022277783136814
-0.0013541760854423
-0.0006195590831339
-2.699950709939003e-05
0.0004453593865036
0.0008376219775527
0.0011990854982286
0.0015788625460118
0.0020187986083328
0.0025485204532742
0.0031824237667024
0.0039200037717819
0.0047486168332397
0.0056454315781593
0.0065782885067164
0.0075081354007124
0.008394032716751
0.0091990595683455
0.0098947687074542
0.0104641858488321
0.010904086753726
0.0112230889499187
0.0114327203482389
0.0115354228764772
0.0115158036351203
0.0113387564197182
0.0109556391835212
0.0103166671469807
0.0093842893838882
0.0081427777186036
0.0066031930036842
0.004806000739336
0.002821756992489
0.0007475512102246
-0.0013011771952733
-0.0032030520960688
-0.0048471111804246
-0.0061484258621931
-0.0070571918040513
-0.0075615206733345
-0.0076863053254783
-0.007487560622394
-0.0070430487394332
-0.0064415829256176
-0.0057713026180863
-0.0051088654436171
-0.0045133177191019
-0.0040242550894618
-0.0036608406808227
-0.0034197499044239
-0.0032746123615652
-0.0031808912754058
-0.0030840330291539
-0.002927265362814
-0.0026601669378578
-0.0022482096683233
-0.0016787977656349
-0.0009606073144823
-0.0001187923480756
0.0008113498915918
0.0017910198075696
0.0027811008039861
0.0037418068386614
0.0046341647394001
0.0054251034744083
0.0060925018042325
0.0066270069219172
0.0070305606350302
0.0073108123615384
0.0074712401255965
0.0075023164972662
0.0073777576908469
0.0070560867898166
0.0064883939921855
0.0056304652243852
0.0044559827074408
0.0029692007228732
0.0012124865315854
-0.0007359846495091
-0.0027722236700356
-0.0047793146222829
-0.0066403839737176
-0.0082502588629722
-0.0095254387706518
-0.0104123447090387
-0.0108933132141828
-0.0109882056713104
-0.0107497442513704
-0.0102543644607067
-0.0095913596451282
-0.0088509377092123
-0.0081127658486366
-0.0074375518597662
-0.0068624755367636
-0.0064005786553025
-0.0060434467159211
-0.0057661831378936
-0.005533245857805
-0.0053033363074064
-0.0050339130684733
-0.0046860035508871
-0.0042288387194275
-0.003644952783361
-0.0029341259505599
-0.0021120887249708
-0.001204768079333
-0.0002432118635624
0.0007399267051368
0.0017146616009995
0.0026564847212284
0.0035446314141154
0.0043584499508142
0.0050768600776791
0.005682491697371
0.0061658862978219
0.0065234191715717
0.0067495889961719
0.0068300198763608
0.0067386929877102
0.0064388383179903
0.0058879423886537
0.0050485748797655
0.0039032371714711
0.0024674928281456
0.000795277999714
-0.0010271035134792
-0.0028950565028935
-0.0046987747773528
-0.0063320193439722
-0.0077014537528157
-0.0087371449917554
-0.0093997251242399
-0.0096836173906922
-0.0096170660108327
-0.0092566926032304
-0.0086776800453662
-0.0079644881188869
-0.0072024599649012
-0.0064682373777031
-0.0058197071775794
-0.0052880230359733
-0.0048755691386759
-0.0045610512606799
-0.0043085250072181
-0.0040762405842542
-0.003822561353445
-0.0035097647923976
-0.0031071093399077
-0.0025928704999387
-0.0019560880027711
-0.001198140438646
-0.0003327175509184
0.0006166577804833
0.0016203152481466
0.0026451244484633
0.0036574706900864
0.0046281684190034
0.0055351536720991
0.0063606183975934
0.0070877326652407
0.0077013690024614
0.0081878202036023
0.0085295066237449
0.0086995903402566
0.0086613781750202
0.0083728786557912
0.0077962060458958
0.0069091939367353
0.0057148709893226
0.0042480966076254
0.0025790398940443
0.0008096294477581
-0.0009383817669004
-0.0025408437941223
-0.0038895385805517
-0.0049050720408558
-0.0055417749099433
-0.0057886731810867
-0.0056693363003432
-0.0052381507121026
-0.004571636673063
-0.003758318722248
-0.0028897607699036
-0.0020509092137217
-0.0013092434965074
-0.0007058647461235
-0.000251515302807
7.152371108531952e-05
0.0003037559799849
0.0004999912343919
0.0007169134914875
0.0010010660625994
0.0013830936513841
0.0018778145313262
0.0024870806373655
0.0032017610501497
0.0040014674887061
0.0048564900644123
0.0057340897619724
0.0066040209494531
0.007439365144819
0.0082155670970678
0.008911826647818
0.0095145953819155
0.0100201116874814
0.0104319714009761
0.0107519952580332
0.0109697766602039
0.0110580194741487
0.0109740262851119
0.010664913803339
0.0100767379626631
0.0091666970402002
0.0079146511852741
0.0063317031599581
0.0044654607772827
0.0023993924260139
0.000244706403464
-0.0018719690851867
-0.0038220137357711
-0.0054885991849005
-0.0067804474383592
-0.0076447650790214
-0.0080749876797199
-0.0081085041165351
-0.0078167058527469
-0.0072926981374621
-0.0066373944282531
-0.0059445020742714
-0.0052893077954649
-0.0047239186242222
-0.0042761447839438
-0.0039496147073805
-0.0037253513000905
-0.0035658157430589
-0.0034217787906527
-0.0032401061616837
-0.0029712282121181
-0.0025777933187782
-0.0020420814398676
-0.0013664704747498
-0.0005686753429472
0.0003224314423277
0.0012704894179478
0.0022363613825291
0.0031822938472032
0.0040741600096225
0.0048828632570803
0.0055873617529869
0.0061782067641615
0.006658062338829
0.0070392456836998
0.0073379455134272
0.0075629893690347
0.0077032707631587
0.0077218529768288
0.0075595891103148
0.00714673101902
0.0064192581921815
0.0053351246751844
0.0038867003750056
0.0021079289726912
7.444270886480808e-05
-0.0021045980975031
-0.0042998730204999
-0.006376298610121
-0.0082061821594834
-0.0096809510141611
-0.0107233505696058
-0.0112994238734245
-0.0114251589402556
-0.0111635010689497
-0.0106126703321933
-0.0098883444443345
-0.0091030811890959
-0.0083500808104872
-0.0076940185390412
-0.0071663809940218
-0.0067659341730177
-0.0064647169783711
-0.006216584239155
-0.0059660538099706
-0.0056577683426439
-0.0052457409910857
-0.0046984497457742
-0.0039997291751205
-0.0031498786993324
-0.0021665035746991
-0.0010817162692546
6.335263606160879e-05
0.0012246096739545
0.0023609346244484
0.0034390212967991
0.0044359844177961
0.0053389375098049
0.006142321974039
0.0068453541025519
0.0074511659331619
0.0079672969877719
0.0084048565477132
0.0087736379355192
0.0090727917850017
0.0092797465622425
0.009344944730401
0.0091976542025804
0.0087596513330936
0.0079631702974438
0.0067698480561375
0.0051842676475644
0.003258662065491
0.0010892944410443
-0.0011947106104344
-0.0034477021545171
-0.0055254101753234
-0.0073016011156141
-0.0086800567805767
-0.0096005890518426
-0.0100440699607133
-0.010038181208074
-0.0096558472141623
-0.0090018268674612
-0.0081932116299867
-0.0073411520570516
-0.0065375668928027
-0.005846946965903
-0.0053017595782876
-0.0049017742276191
-0.0046178712509572
-0.0043996451422572
-0.0041864402592182
-0.0039196158759295
-0.003551315749064
-0.0030476716347038
-0.0023890698794275
-0.0015711521264165
-0.0006073298864066
0.0004705805331468
0.0016170203452929
0.0027807420119643
0.0039121373556554
0.0049689169973134
0.0059201056137681
0.0067474823445081
0.0074451365508139
0.0080185569822788
0.0084833921864628
0.0088615380227565
0.0091740116477012
0.009434051811695
0.009639598429203
0.0097639998421072
0.0097519634291529
0.0095264883711934
0.0090055353939533
0.0081230178475379
0.0068469983525574
0.0051915487274527
0.0032211430370807
0.0010451354319229
-0.0011968542821705
-0.0033525668550282
-0.0052740620449185
-0.0068344329483807
-0.0079423822462558
-0.0085514904931187
-0.0086641805246472
-0.0083311917260289
-0.0076453830115497
-0.0067287622950971
-0.0057136109098792
-0.0047213146463036
-0.0038443906232714
-0.0031361915171146
-0.0026097146328538
-0.0022428287193179
-0.0019872195553034
-0.0017801739741116
-0.001556469942443
-0.0012573138810694
-0.000835832208395
-0.0002602437743917
0.0004835780709981
0.0013892168644815
0.0024284268729388
0.0035543653648346
0.0047088963910937
0.0058317803777754
0.0068696895614266
0.007782720029354
0.0085473954677581
0.0091562718152999
0.0096157314255833
0.0099435402080416
0.0101653402671217
0.0103099644184112
0.0104036554694175
0.0104611916467547
0.0104742683470249
0.0104030650109052
0.0101776290684938
0.0097094597294926
0.0089098252356052
0.0077119218185544
0.0060913832858204
0.0040780045092105
0.001755635254085
-0.0007483810186386
-0.0032803162466734
-0.0056788306683301
-0.0077935885637998
-0.0095035731792449
-0.0107312630861997
-0.0114477146416902
-0.011669467203319
-0.0114535428583621
-0.0108915045857429
-0.0100967101752758
-0.0091864420101046
-0.0082669602707028
-0.0074223084375262
-0.0067053567618131
-0.0061333542689681
-0.0056878589093685
-0.00531737646088
-0.0049448078498244
-0.0044820378534495
-0.0038477228954434
-0.0029803412035107
-0.0018428328912705
-0.0004232085775583
0.0012614936567842
0.0031587504781782
0.0051806848496198
0.0072136931121349
0.0091321058571338
0.0108128581196069
0.012150514870882
0.0130703197792172
0.0135374814271926
0.013560377061367
0.0131850857287645
0.0124830231070518
0.0115377232432365
0.0104353474453091
0.0092560332268476
0.0080610644072294
0.0068782912567257
0.0056927418336272
0.0044476715847849
0.0030577313154935
0.0014318330213427
-0.0005000475794076
-0.0027647130191326
-0.0053340476006269
-0.0081236520782113
-0.0110022537410259
-0.0138111617416143
-0.016386529430747
-0.0185788813978433
-0.020269813016057
-0.0213848315179348
-0.0219009257853031
-0.0218486934900283
-0.0213072597980499
-0.0203909836709499
-0.0192313380539417
-0.0179587937891483
-0.0166872665286064
-0.0155016267672181
-0.0144494380801916
-0.0135394921526312
-0.012747474014759
-0.0120256152004003
-0.0113141741603612
-0.0105528598651289
-0.0096892500296235
-0.0086831860244274
-0.007509633898735
-0.0061638969928026
-0.0046665021218359
-0.0030609192326664
-0.0014037797227501
0.0002471141051501
0.001841420889832
0.0033397707156836
0.0047146291472017
0.0059500564821064
0.0070401807315647
0.0079871173948049
0.0087996236979961
0.0094920303672552
0.0100827477872371
0.0105922678485512
0.0110375778749585
0.0114213787019252
0.0117215337231755
0.0118877915665507
0.0118490234017372
0.0115282237529754
0.0108604850247502
0.0098112262785434
0.0083909565582871
0.0066633280366659
0.0047440724447369
0.002789543941617
0.0009784696158021
-0.0005087306490167
-0.0015091683017089
-0.0018915142863988
-0.0015679311472922
-0.0005069136386737
0.001261482713744
0.0036549414508044
0.0065556406043469
0.0098248478025197
0.0133118694648146
0.0168572217226028
0.0202938262373209
0.0234534665942192
0.0261808913201093
0.0283494424074888
0.0298731382936239
0.030714139342308
0.0308830495923757
0.0304319094866514
0.0294413696974515
0.0280028749257326
0.0262043438851833
0.024129144847393
0.0218628421425819
0.0194945819675922
0.0171083789318799
0.0147685008123517
0.0125048896297812
0.0103048924356698
0.0081171859055757
0.0058688540011644
0.0034894440323114
0.0009334348142147
-0.0018036495894193
-0.0046785287559032
-0.0076072663068771
-0.0104867862537503
-0.0132245253771543
-0.0157636012881994
-0.0180929359048604
-0.0202428568154573
-0.0222709011286497
-0.0242417939007282
-0.0262082051485776
-0.0281979516148567
-0.030208034440875
-0.0322028025984764
-0.0341162383556366
-0.0358612611889839
-0.0373435653746128
-0.0384746417403221
-0.0391843020915985
-0.0394337773323059
-0.0392251871526241
-0.0386020056903362
-0.0376393534243106
-0.0364295728504657
-0.0350698381662368
-0.0336511991918087
-0.0322471298277378
-0.03090600669384
-0.0296497531235218
-0.0284750461578369
-0.0273557603359222
-0.026248101145029
-0.0250977296382188
-0.0238470248878002
-0.0224435981363058
-0.0208509266376495
-0.0190565641969442
-0.017073780298233
-0.0149374194443225
-0.0126962307840585
-0.0104049118235707
-0.0081172147765755
-0.0058782454580068
-0.0037189926952123
-0.0016576535999774
0.000296451151371
0.0021421806886792
0.0038871830329298
0.0055459523573517
0.0071360152214765
0.0086720744147896
0.0101555222645401
0.0115632880479097
0.012843208387494
0.0139190219342708
0.0147054474800825
0.0151282902806997
0.0151411816477775
0.0147368535399436
0.0139538804069161
0.0128766009584069
0.0116266496479511
0.0103481179103255
0.0091901244595646
0.0082904119044542
0.0077616404742002
0.0076789055019617
0.0080684069544076
0.0089037101715803
0.0101133845746517
0.0115938736125826
0.01322210021317
0.0148683115839958
0.0164098143577575
0.0177448559552431
0.0188048742711544
0.0195615664124488
0.0200267117470502
0.0202460512518882
0.0202890429645776
0.0202370099723339
0.0201723743230104
0.0201683118939399
0.0202783774584531
0.0205295905470848
0.0209213718771934
0.0214301999658346
0.0220185127109289
0.0226429775357246
0.0232591684907674
0.023825317621231
0.0243065394461154
0.0246769860386848
0.0249198284000158
0.0250278450548648
0.0250039584934711
0.0248599052429199
0.0246141590178012
0.0242869816720485
0.0238897092640399
0.0234137307852506
0.0228252336382865
0.0220667216926813
0.0210663750767707
0.0197538174688816
0.01807726547122
0.0160185415297746
0.0136027988046407
0.0108988052234053
0.0080100940540432
0.0050625265575945
0.0021922627929598
-0.0004656191449612
-0.002789351157844
-0.0046853027306497
-0.0061031165532767
-0.0070444135926663
-0.0075611108914017
-0.0077446531504392
-0.0077089928090572
-0.0075715668499469
-0.0074368990026414
-0.0073845610022544
-0.0074626337736845
-0.0076872496865689
-0.0080451285466551
-0.008497386239469
-0.0089871287345886
-0.0094495024532079
-0.009818953461945
-0.0100356973707675
-0.0100561212748289
-0.0098618967458605
-0.0094613675028085
-0.0088856425136327
-0.0081820394843816
-0.0074043492786586
-0.006603660993278
-0.0058245207183063
-0.0051044300198554
-0.0044718491844832
-0.0039428113959729
-0.0035209297202527
-0.0032011372968554
-0.0029712147079408
-0.0028102812357246
-0.0026917536742985
-0.0025953659787774
-0.002522487193346
-0.0025042593479156
-0.0025986926630139
-0.0028802640736103
-0.0034249993041157
-0.0042934827506542
-0.0055151470005512
-0.0070755635388195
-0.0089104948565363
-0.0109118735417723
-0.0129440324380993
-0.0148628922179341
-0.0165325067937374
-0.0178381633013486
-0.0186983700841665
-0.019075684249401
-0.018981335684657
-0.0184697806835174
-0.0176275130361318
-0.0165617950260639
-0.0153875388205051
-0.0142113976180553
-0.0131173953413963
-0.0121581312268972
-0.0113535150885581
-0.0106942588463425
-0.010146684013307
-0.0096606388688087
-0.0091794431209564
-0.0086465645581483
-0.0080107534304261
-0.0072351368144154
-0.0063061341643333
-0.0052340375259518
-0.0040466296486556
-0.0027821944095194
-0.001483685686253
-0.0001936992630362
0.0010498657356947
0.0022175025660544
0.0032892569433897
0.0042532752268016
0.0051051736809313
0.0058492813259363
0.0064986017532646
0.0070698135532438
0.0075731249526143
0.0080013321712613
0.0083231888711452
0.0084838299080729
0.0084132459014654
0.008042094297707
0.0073192650452256
0.0062246029265224
0.0047758370637893
0.0030308633577078
0.0010855377186089
-0.0009340131655335
-0.0028862631879746
-0.004633373580873
-0.0060576717369258
-0.0070725944824516
-0.007630506530404
-0.0077286465093493
-0.0074089705012738
-0.0067495936527848
-0.0058524855412542
-0.0048301625065505
-0.0037910435348749
-0.0028264331631362
-0.0020016259513795
-0.0013512489385902
-0.000879056751728
-0.000560839427635
-0.0003492454998195
-0.0001816162839531
9.671784937381744e-06
0.0002879432868212
0.0007056521717458
0.0012977591250091
0.0020745676010847
0.0030189456883817
0.0040907813236117
0.0052351974882185
0.0063906130380928
0.0074968878179788
0.0085039176046848
0.009377958253026
0.010103166103363
0.0106789786368608
0.011116312816739
0.0114344079047441
0.0116572342813014
0.0118074407801032
0.0118973441421985
0.0119187235832214
0.0118351830169558
0.0115834129974246
0.0110871493816375
0.0102775944396853
0.0091108232736587
0.0075796390883624
0.0057206442579627
0.0036141979508101
0.0013755103573203
-0.0008601174922659
-0.0029542527627199
-0.0047815172001719
-0.0062417378649115
-0.0072675440460443
-0.0078303888440132
-0.0079468470066785
-0.0076798764057457
-0.0071291592903435
-0.0064142593182623
-0.0056562172248959
-0.0049597504548728
-0.0044002723880112
-0.0040183220990002
-0.0038190716877579
-0.0037751202471554
-0.0038331157993525
-0.0039249216206371
-0.003981424961239
-0.0039439308457076
-0.0037691013421863
-0.0034301162231713
-0.0029203733429312
-0.0022570863366127
-0.0014777926262468
-0.0006320037646219
0.0002276130835525
0.0010537727503105
0.0018106627976521
0.0024769087322056
0.0030465794261544
0.0035265784244984
0.0039302962832152
0.0042718178592622
0.0045624137856066
0.0048073478974401
0.0050008683465421
0.005117961205542
0.0051083699800074
0.0049018403515219
0.004423797596246
0.0036144307814538
0.0024460491258651
0.0009345517610199
-0.0008577655535191
-0.0028278236277401
-0.0048437183722853
-0.0067609390243887
-0.0084405960515141
-0.0097663681954145
-0.0106568075716495
-0.0110717639327049
-0.0110139679163694
-0.0105278296396136
-0.0096962489187717
-0.008631826378405
-0.0074600116349756
-0.0063000922091305
-0.0052508069202303
-0.0043806191533803
-0.0037212094757705
-0.0032651948276907
-0.0029701732564717
-0.0027697046753019
-0.0025881973560899
-0.0023549003526568
-0.0020137303508818
-0.0015273760072886
-0.0008766171522438
-5.95911405980587e-05
0.0009069633670151
0.0019895306322723
0.0031445566564798
0.0043252767063677
0.0054867356084287
0.0065898736938834
0.0076039466075599
0.0085074650123715
0.009287916123867
0.0099391434341669
0.0104561299085617
0.0108277183026075
0.0110297594219446
0.0110231172293424
0.0107588581740856
0.0101894987747073
0.00928252376616
0.0080316718667745
0.0064634922891855
0.0046389587223529
0.0026505168061703
0.0006141774356365
-0.0013435108121484
-0.003100482514128
-0.0045518283732235
-0.0056197829544544
-0.0062618944793939
-0.0064759962260723
-0.0063002724200487
-0.0058068051002919
-0.0050889290869235
-0.0042476458474993
-0.0033808501902967
-0.0025732528883963
-0.001887269783765
-0.0013582392130047
-0.0009934913832694
-0.0007739893626421
-0.0006593205034732
-0.0005950110498815
-0.0005196556448936
-0.0003714247141033
-9.48708038777113e-05
0.0003512292169034
0.0009862226434051
0.001804704661481
0.0027814365457743
0.003878912422806
0.0050504095852375
0.0062404302880167
0.0073887044563889
0.0084391497075557
0.0093499906361103
0.0100989220663905
0.0106805739924311
0.0110984276980161
0.0113542564213275
0.01143803820014
0.011321622878313
0.0109589016065001
0.010293586179614
0.0092734899371862
0.0078678987920284
0.0060826577246189
0.0039675189182162
0.0016140192747116
-0.0008536416571587
-0.0032928634900599
-0.0055597135797142
-0.0075246049091219
-0.0090853003785014
-0.0101766269654035
-0.0107761165127158
-0.0109067792072892
-0.0106337331235408
-0.0100513119250535
-0.0092672053724527
-0.0083898911252617
-0.0075169163756072
-0.0067231431603431
-0.0060532591305673
-0.005520555190742
-0.0051105543971061
-0.0047878539189696
-0.0045050703920423
-0.0042116246186196
-0.003860434051603
-0.0034128613770008
-0.0028420155867934
-0.0021347294095903
-0.00129209831357
-0.0003282177494838
0.0007310846704058
0.0018493070965632
0.0029829998966306
0.0040887924842536
0.0051288409158587
0.0060717617161571
0.0068928706459701
0.0075763924978673
0.0081177297979593
0.0085224490612745
0.0087997205555439
0.0089514274150133
0.0089618097990751
0.008793631568551
0.0083927977830171
0.0076992171816527
0.0066626169718801
0.0052604731172323
0.0035118395462632
0.0014808215200901
-0.0007312628440558
-0.0029981774277985
-0.0051810666918754
-0.0071431919932365
-0.0087661799043416
-0.009962884709239
-0.0106865111738443
-0.0109360851347446
-0.0107537172734737
-0.0102147851139307
-0.0094175804406404
-0.0084728337824344
-0.0074907066300511
-0.0065657976083457
-0.0057638427242636
-0.0051154107786715
-0.0046178265474736
-0.0042419079691171
-0.0039404300041496
-0.0036580318119376
-0.0033412664197385
-0.0029449961148202
-0.0024351133033633
-0.0017918221419677
-0.0010137893259525
-0.0001180425751954
0.0008652613032609
0.0018985038623213
0.0029407544061541
0.0039514023810625
0.0048941052518785
0.0057406751438975
0.0064724357798695
0.0070784483104944
0.007553962059319
0.0079015847295522
0.0081331897526979
0.0082678450271487
0.0083230286836624
0.0083011481910943
0.0081788394600152
0.0079072536900639
0.0074228080920875
0.0066613927483558
0.0055728396400809
0.0041362531483173
0.0023725097998976
0.00034611672163
-0.0018443618901073
-0.0040796976536512
-0.0062322090379893
-0.0081772059202194
-0.0098042236641049
-0.0110285338014364
-0.0118026286363601
-0.0121233826503157
-0.0120312366634607
-0.0116022359579801
-0.0109358243644237
-0.0101410578936338
-0.0093210060149431
-0.0085571529343724
-0.0079000694677233
-0.0073681427165865
-0.0069521851837635
-0.006623510736972
-0.0063420394435524
-0.0060628373175859
-0.0057413326576352
-0.0053377365693449
-0.004821796901524
-0.0041768946684896
-0.0034010878298431
-0.0025057920720428
-0.0015141022158786
-0.0004588917654473
0.0006204442470334
0.0016837852308526
0.0026968694292008
0.0036338979844003
0.0044755395501852
0.005207909271121
0.0058251745067536
0.0063318209722638
0.0067414944060146
0.0070721292868256
0.0073366900905966
0.0075323530472815
0.0076346141286194
0.0075983828864991
0.007364778779447
0.0068738125264644
0.0060802903026342
0.0049682450480759
0.0035608438774943
0.0019215189386159
0.0001452699070796
-0.0016533547313883
-0.0033510525245219
-0.0048286253586411
-0.0059872847050428
-0.0067618521861732
-0.0071262898854911
-0.00709371548146
-0.0067117889411747
-0.0060535729862749
-0.0052073621191084
-0.0042674564756453
-0.0033243675716221
-0.0024538354482501
-0.0017066459404304
-0.0011029631132259
-0.0006342628039419
-0.0002712171990424
2.7440255507826805e-05
0.0003067071083933
0.0006073508411645
0.0009613439906388
0.0013932341244071
0.0019222744740545
0.0025590565055608
0.0033003580756485
0.0041288277134299
0.0050162719562649
0.005927650257945
0.0068261371925473
0.007679171860218
0.0084627047181129
0.009159573353827
0.0097551476210355
0.010237319394946
0.0105994269251823
0.0108415121212601
0.0109682800248265
0.0109832510352134
0.0108808651566505
0.010639508254826
0.0102187748998403
0.0095651363953948
0.008626265451312
0.0073680039495229
0.0057880654931068
0.00392392789945
0.0018520625308156
-0.0003220192156732
-0.0024776747450232
-0.0044929981231689
-0.0062578925862908
-0.0076850685290992
-0.008718317374587
-0.0093372706323862
-0.0095569444820284
-0.0094232065603137
