bvp
0.0011618300341069
0.0021183446515351
0.0030777798965573
0.0040360349230468
0.0049862442538142
0.0059197531081736
0.0068251262418925
0.0076880222186446
0.0084931254386901
0.0092248143628239
0.0098646376281976
0.0103876674547791
0.0107598043978214
0.0109372921288013
0.0108704576268792
0.0105116693302989
0.0098249204456806
0.0087947649881243
0.0074329068884253
0.0057806274853646
0.0039052283391356
0.0018910989165306
-0.0001707240007817
-0.0021915361285209
-0.0040923412889242
-0.0058088805526494
-0.0072922022081911
-0.0085065336897969
-0.0094285290688276
-0.0100479312241077
-0.0103677967563271
-0.0104038221761584
-0.0101824710145592
-0.0097381938248872
-0.0091105457395315
-0.0083407396450638
-0.0074676708318293
-0.0065254536457359
-0.0055430247448384
-0.0045435111969709
-0.0035424989182502
-0.0025474124122411
-0.0015594151336699
-0.0005764613160863
0.0004043343942612
0.0013848333619534
0.0023643851745873
0.0033397283405065
0.0043055415153503
0.005254354327917
0.006175915710628
0.0070570311509072
0.0078833410516381
0.0086418827995657
0.0093217715620994
0.0099141215905547
0.010411781258881
0.0108059626072645
0.0110803646966815
0.0112068112939596
0.0111450403928756
0.0108483405783772
0.0102744987234473
0.009397336281836
0.0082141440361738
0.0067486553452908
0.0050501339137554
0.0031876964494585
0.0012414045631885
-0.0007066123653203
-0.002579970518127
-0.0043135331943631
-0.0058551710098981
-0.0071660261601209
-0.0082211010158061
-0.0090089412406086
-0.0095303235575556
-0.0097967451438307
-0.0098284371197223
-0.0096519999206066
-0.0092982985079288
-0.0088005159050226
-0.0081923566758632
-0.0075067849829792
-0.0067747132852673
-0.0060236207209527
-0.0052764168940484
-0.0045494334772229
-0.0038508903235197
-0.0031824538018554
-0.0025422209873795
-0.0019268825417384
-0.0013328059576451
-0.0007562962127849
-0.0001941281370818
0.0003554714494384
0.0008926352020353
0.0014168280176818
0.0019278427353128
0.0024265132378786
0.0029154976364225
0.0033979141153395
0.0038719717413187
0.0043240920640528
0.00472426507622
0.0050260312855243
0.0051721385680139
0.0051044840365648
0.004775381181389
0.0041579781100153
0.0032536508515477
0.0020944867283105
0.000741199532058
-0.0007232045172713
-0.002203807234764
-0.0036062174476683
-0.0048477761447429
-0.0058644963428378
-0.0066133812069892
-0.0070719849318265
-0.0072371349669992
-0.0071231424808502
-0.006758370436728
-0.0061806105077266
-0.0054329633712768
-0.0045609767548739
-0.0036104356404393
-0.0026240632869303
-0.0016370159573853
-0.0006734761409461
0.0002539963461458
0.0011421528179198
0.0019933814182877
0.0028129727579653
0.0036073955707252
0.0043831281363964
0.0051457583904266
0.0058975992724299
0.0066351215355098
0.007349363528192
0.0080283870920538
0.0086604543030262
0.0092373266816139
0.0097556272521615
0.0102160135284066
0.0106200277805328
0.0109631782397627
0.0112267713993787
0.0113736186176538
0.0113501232117414
0.0110945822671055
0.0105496952310204
0.0096758026629686
0.0084613412618637
0.0069281011819839
0.0051302253268659
0.0031471839174628
0.0010724024614319
-0.0009983209893107
-0.00297482451424
-0.0047776401042938
-0.0063422187231481
-0.0076227998360991
-0.0085947196930646
-0.0092539833858609
-0.009614922106266
-0.0097063779830932
-0.0095663163810968
-0.0092367911711335
-0.0087607596069574
-0.0081798154860734
-0.0075314645655453
-0.0068463119678199
-0.0061468491330742
-0.005448346491903
-0.0047605535946786
-0.0040883910842239
-0.0034313756041228
-0.0027840263210237
-0.0021384654100984
-0.0014873320469632
-0.0008253821870312
-0.0001502587110735
0.0005369827267713
0.0012312711915001
0.0019228244200348
0.0025979524943977
0.0032421573996543
0.0038434294983744
0.0043929875828325
0.0048819039948284
0.0052946228533983
0.0056032380089163
0.0057656867429614
0.0057287090457975
0.0054357652552425
0.0048385178670287
0.0039080581627786
0.0026422515511512
0.0010688500478863
-0.0007552839233539
-0.0027500493451952
-0.0048220506869256
-0.0068751294165849
-0.0088191051036119
-0.0105759622529149
-0.0120836775749921
-0.0132981287315487
-0.0141929136589169
-0.0147579126060009
-0.0149983000010252
-0.0149330301210284
-0.0145917627960443
-0.0140119865536689
-0.0132362265139818
-0.0123076708987355
-0.0112652713432908
-0.0101407635957002
-0.0089575573801994
-0.0077306958846747
-0.0064691333100199
-0.0051794201135635
-0.0038677095435559
-0.0025399234145879
-0.0012017488479614
0.0001409146934747
0.0014816191978752
0.002813511993736
0.0041293865069746
0.0054210675880312
0.0066790217533707
0.007893057540059
0.0090520353987813
0.0101421857252717
0.0111476704478263
0.0120529811829328
0.0128422295674681
0.0134941060096025
0.0139765311032533
0.0142445340752601
0.0142429629340767
0.0139150638133287
0.0132145257666707
0.0121170673519372
0.0106294751167297
0.0087931267917156
0.0066806087270379
0.0043882075697183
0.0020262789912521
-0.0002923836000263
-0.0024639433249831
-0.0044017760083079
-0.0060410327278077
-0.0073394048959016
-0.0082755489274859
-0.0088482461869716
-0.009075541049242
-0.0089915916323661
-0.0086424127221107
-0.0080819763243198
-0.0073676174506545
-0.0065531153231859
-0.0056814206764101
-0.004781394265592
-0.00386877451092
-0.0029487255960702
-0.0020185336470603
-0.0010699871927499
-9.243283420801164e-05
0.0009230282157659
0.0019801473245024
0.003076325636357
0.0042030299082398
0.0053472137078642
0.0064933961257338
0.0076257213950157
0.0087292753159999
0.0097896857187151
0.0107920188456773
0.0117215206846594
0.0125654796138405
0.0133136361837387
0.0139564480632543
0.0144811011850833
0.0148657001554965
0.0150747699663043
0.0150597486644983
0.0147647745907306
0.0141351893544197
0.0131273139268159
0.0117192864418029
0.0099202543497085
0.0077745830640196
0.005360001232475
0.0027798402588814
0.0001510821748524
-0.0024086677003651
-0.0047925990074872
-0.0069124870933592
-0.0087021440267562
-0.0101184658706188
-0.0111421411857008
-0.0117771355435252
-0.0120476661249995
-0.0119932498782873
-0.0116631910204887
-0.0111117158085107
-0.0103938123211264
-0.0095608234405517
-0.0086566880345344
-0.0077159376814961
-0.006762005854398
-0.0058060670271515
-0.0048487428575754
-0.0038839566987007
-0.0029027559794485
-0.0018967641517519
-0.0008609164506196
0.0002054704818874
0.0012986597139388
0.0024105422198772
0.0035290934611111
0.0046393726952373
0.0057253632694482
0.0067722275853157
0.0077674956992268
0.0087015805765986
0.0095683485269546
0.0103630190715193
0.0110748223960399
0.0116776404902338
0.0121246827766299
0.0123504688963294
0.0122798839583992
0.0118418559432029
0.0109843583777546
0.0096872486174106
0.0079708434641361
0.005898498930037
0.0035703058820217
0.0011084817815572
-0.0013595824129879
-0.0037149167619645
-0.0058559877797961
-0.0077038221061229
-0.0092035708948969
-0.0103244222700595
-0.0110593978315591
-0.0114236641675233
-0.0114507852122187
-0.0111884726211428
-0.0106937307864427
-0.010026179254055
-0.0092412866652011
-0.0083859534934163
-0.0074962261132895
-0.0065965186804533
-0.0057005295529961
-0.0048132482916116
-0.0039328364655375
-0.0030526216141879
-0.0021639273036271
-0.0012586560333147
-0.000330890296027
0.0006214438471943
0.0015948659274727
0.0025808634236454
0.0035685047041624
0.0045450436882674
0.0054943864233791
0.0063981800340116
0.0072395503520965
0.0080044195055961
0.0086780339479446
0.0092387497425079
0.0096524069085717
0.0098696583881974
0.0098285488784313
0.0094638243317604
0.0087205972522497
0.0075677493587136
0.0060076331719756
0.0040800394490361
0.0018599606119096
-0.0005498905666172
-0.0030313627794384
-0.0054660458117723
-0.0077475472353398
-0.0097868870943784
-0.0115143721923232
-0.0128819830715656
-0.0138646066188812
-0.0144586376845836
-0.0146799748763442
-0.014561460353434
-0.0141480732709169
-0.0134916417300701
-0.0126476343721151
-0.0116718923673033
-0.0106153599917888
-0.0095191095024347
-0.0084109650924801
-0.0073045943863689
-0.006202767137438
-0.0051023648120462
-0.0039976271800696
-0.0028827548958361
-0.0017549614422023
-0.0006156456656754
0.0005306359380483
0.001676810439676
0.0028130763676017
0.0039274124428629
0.0050069764256477
0.0060392469167709
0.0070126894861459
0.0079171424731612
0.0087432963773608
0.0094803422689437
0.0101110441610217
0.0106054795905947
0.0109168905764818
0.0109826317057013
0.0107323573902249
0.0101028438657522
0.0090541038662195
0.0075813378207385
0.0057206670753657
0.0035474365577101
0.0011667083017528
-0.0013004546053707
-0.003730809316039
-0.0060111940838396
-0.008047318086028
-0.00976840313524
-0.0111283436417579
-0.0121035203337669
-0.0126899722963571
-0.0129025457426905
-0.0127732120454311
-0.0123463356867432
-0.0116734560579061
-0.0108093284070491
-0.0098083522170782
-0.0087208123877644
-0.0075894678011536
-0.0064472672529518
-0.0053162104450166
-0.0042066522873938
-0.0031180838122963
-0.0020428402349352
-0.0009707827703095
0.0001069004065357
0.0011946781305596
0.0022915119770914
0.0033916593529284
0.0044859303161501
0.0055628917180001
0.0066099953837692
0.0076145096682012
0.0085638789460062
0.0094456942752003
0.0102489488199353
0.0109664071351289
0.011595313437283
0.0121343722566962
0.0125761963427066
0.0128980046138167
0.0130566395819187
0.0129908695816993
0.0126309795305132
0.0119138173758983
0.0107977064326405
0.0092725288122892
0.0073646372184157
0.0051375729963183
0.0026871585287153
0.0001298058778047
-0.0024118949659168
-0.0048218974843621
-0.0070014423690736
-0.0088770454749464
-0.0104027986526489
-0.0115569895133376
-0.0123375058174133
-0.0127590028569102
-0.0128500945866107
-0.0126488730311393
-0.0121988514438271
-0.0115466052666306
-0.0107390331104397
-0.0098201427608728
-0.0088291019201278
-0.0077992193400859
-0.0067567341029644
-0.0057194340042769
-0.0046960855834186
-0.0036873111966997
-0.0026875538751482
-0.0016877118032425
-0.0006785647710785
0.0003452828386798
0.0013826293870806
0.0024258764460682
0.0034632720053195
0.0044809486716985
0.0054643210023641
0.0063989870250225
0.007271449547261
0.0080705089494585
0.008788856677711
0.0094232931733131
0.0099738910794258
0.0104424823075532
0.0108282444998621
0.0111203035339713
0.0112911518663167
0.0112950121983885
0.0110732968896627
0.0105652920901775
0.0097194910049438
0.0085036354139447
0.0069133341312408
0.0049774022772908
0.0027584470808506
0.000348191242665
-0.00214280677028
-0.0045987600460648
-0.0069114509969949
-0.0089896693825721
-0.0107645913958549
-0.0121917277574539
-0.013250371441245
-0.0139406453818082
-0.0142793152481317
-0.0142957549542188
-0.0140278618782758
-0.0135181667283177
-0.0128108095377683
-0.0119495000690221
-0.0109757389873266
-0.0099267242476344
-0.0088338423520326
-0.0077218213118612
-0.0066075841896235
-0.0054996204562485
-0.0043992223218083
-0.0033034547232091
-0.0022088552359491
-0.0011145223397761
-2.3081433027982712e-05
0.0010608790908008
0.0021323740947991
0.0031851641833782
0.0042110541835427
0.0052013634704053
0.006147860083729
0.0070425551384687
0.0078783277422189
0.0086492374539375
0.0093493126332759
0.0099729551002383
0.0105178374797105
0.010985511355102
0.0113777685910463
0.0116903875023126
0.0119054429233074
0.0119859725236892
0.0118775879964232
0.0115174865350127
0.0108485789969563
0.0098344162106513
0.0084694679826498
0.0067818886600434
0.0048301201313734
0.0026969779282808
0.0004819676978513
-0.0017097209347411
-0.0037793419323861
-0.005643792450428
-0.0072403084486722
-0.0085271252319216
-0.0094819301739335
-0.0101001961156725
-0.0103941243141889
-0.0103914868086576
-0.0101328501477837
-0.0096674337983131
-0.0090490374714136
-0.0083309207111597
-0.0075595048256218
-0.0067707453854382
-0.0059900004416704
-0.0052317543886601
-0.0044989837333559
-0.0037851526867598
-0.0030785026028752
-0.0023659318685531
-0.0016360119916498
-0.0008815656183287
-0.0001007980899885
0.0007032973226159
0.0015239170752465
0.0023511683102697
0.0031735687516629
0.0039802980609238
0.0047625014558434
0.0055133178830146
0.0062270304188132
0.0068974057212471
0.0075166234746575
0.0080765634775161
0.0085713332518935
0.0089969029650092
0.0093454048037529
0.0095977131277322
0.0097201345488429
0.0096669113263487
0.0093875899910926
0.0088370256125926
0.0079849772155284
0.0068242750130593
0.005376482848078
0.0036921924911439
0.0018451632931828
-7.665751036256552e-05
-0.0019800902809947
-0.0037756403908133
-0.0053858244791626
-0.0067511014640331
-0.0078332563862204
-0.0086162723600864
-0.0091046690940856
-0.009319994598627
-0.0092962905764579
-0.0090755950659513
-0.0087036490440368
-0.0082253273576498
-0.0076803844422101
-0.00710070412606
-0.0065091801807284
-0.0059187565930187
-0.0053318599238991
-0.004742715973407
-0.0041412059217691
-0.0035148335155099
-0.002849698299542
-0.0021325745619833
-0.0013541160151362
-0.0005123375449329
0.000385224353522
0.0013221893459558
0.0022767938207834
0.0032261044252663
0.0041487654671072
0.0050259116105735
0.0058416472747921
0.0065847150981426
0.0072502982802689
0.0078388331457972
0.0083508882671594
0.0087804552167654
0.0091089634224772
0.0093015320599079
0.0093086212873458
0.0090747568756341
0.0085511980578303
0.0077077643945813
0.0065409308299422
0.0050775799900293
0.0033739684149622
0.0015093821566551
-0.0004240826237946
-0.0023320852778851
-0.0041263615712523
-0.0057309218682348
-0.0070870220661163
-0.0081564681604504
-0.00892218016088
-0.0093860542401671
-0.0095652071759104
-0.0094881374388933
-0.0091918930411338
-0.0087198987603187
-0.0081193344667553
-0.0074372966773808
-0.0067159398458898
-0.0059879031032323
-0.0052737724035978
-0.0045829028822481
-0.0039161872118711
-0.003268108703196
-0.0026284409686923
-0.0019847550429403
-0.0013251604977995
-0.0006407061591744
7.358391303569078e-05
0.0008195001864805
0.0015961354365572
0.0023986087180674
0.003216644283384
0.0040349988266825
0.0048356903716921
0.0056009422987699
0.0063155898824334
0.0069686314091086
0.007554180920124
0.0080690784379839
0.008505368605256
0.0088417874649167
0.0090394793078303
0.00904431194067
0.0087949121370911
0.0082342242822051
0.0073230029083788
0.0060513205826282
0.0044432231225073
0.0025548445992171
0.0004686272004619
-0.001715961145237
-0.0038941772654652
-0.0059675169177353
-0.0078523959964513
-0.0094848601147532
-0.0108218248933553
-0.0118405036628246
-0.0125372502952814
-0.0129239708185195
-0.013022344559431
-0.0128605440258979
-0.0124732358381152
-0.0119011215865612
-0.0111878011375665
-0.010374853387475
-0.0094972979277372
-0.0085799247026443
-0.0076355868950486
-0.0066679422743618
-0.0056761694140732
-0.0046578221954405
-0.0036106281913816
-0.0025343401357531
-0.0014320285990834
-0.0003098519518971
0.0008247490040957
0.001964020775631
0.0030985665507614
0.004215866792947
0.005300666205585
0.0063368021510541
0.0073095383122563
0.0082078017294406
0.0090253101661801
0.0097598284482955
0.01041030138731
0.0109717501327395
0.0114292446523904
0.0117530655115842
0.0118969473987817
0.011802302673459
0.0114083122462034
0.0106636639684438
0.0095373671501874
0.008027670904994
0.0061674928292632
0.004023996181786
0.0016903822543099
-0.0007272092625498
-0.003121665213257
-0.0053931595757603
-0.0074548395350575
-0.0092368694022297
-0.0106889531016349
-0.0117819467559456
-0.0125076659023761
-0.0128757655620574
-0.0129099581390619
-0.0126458685845136
-0.0121288951486349
-0.0114098452031612
-0.0105392187833786
-0.0095623675733804
-0.0085164885967969
-0.0074289129115641
-0.0063169663771986
-0.0051900399848818
-0.0040521156042814
-0.0029030805453658
-0.0017394516617059
-0.0005553718656301
0.0006551695987582
0.0018946724012494
0.0031593018211424
0.004439434967935
0.0057222349569201
0.0069920788519084
0.0082291383296251
0.0094106970354914
0.0105157205834984
0.0115283299237489
0.0124377869069576
0.0132375974208116
0.0139253642410039
0.0145009094849228
0.0149604026228189
0.0152872968465089
0.0154450163245201
0.0153771275654435
0.015015298500657
0.0142923686653375
0.0131577989086508
0.0115901585668325
0.0096028000116348
0.0072445003315806
0.004596465267241
0.0017647100612521
-0.0011312267743051
-0.0039706523530185
-0.0066426987759768
-0.0090536102652549
-0.0111303701996803
-0.012821864336729
-0.0140978135168552
-0.014946961775422
-0.0153762996196746
-0.0154109587892889
-0.0150930564850568
-0.0144778750836849
-0.0136274024844169
-0.0126036200672388
-0.0114636402577161
-0.0102564208209514
-0.009019891731441
-0.0077785504981875
-0.0065431538969278
-0.005312786437571
-0.0040775602683424
-0.0028217993676662
-0.0015289280563592
-0.0001868214458227
0.0012087542563676
0.0026531848125159
0.0041337204165756
0.0056306663900613
0.00711923930794
0.0085726389661431
0.0099648768082261
0.0112723913043737
0.0124759981408715
0.0135633926838636
0.0145296016708016
0.0153750237077474
0.0161026027053594
0.0167122334241867
0.0171912834048271
0.0175062622874975
0.0176004283130168
0.0173987671732902
0.0168208200484514
0.0157982036471366
0.0142903812229633
0.0122948689386248
0.009852054528892
0.0070442706346511
0.0039876815862953
0.0008182704914361
-0.0023244451731443
-0.0053117168135941
-0.0080346371978521
-0.0104085272178053
-0.0123747587203979
-0.0139003181830048
-0.0149758551269769
-0.0156137384474277
-0.0158451460301876
-0.0157156866043806
-0.0152813736349344
-0.0146041670814156
-0.0137455910444259
-0.0127609241753816
-0.011696103028953
-0.0105855846777558
-0.009450483135879
-0.0082986932247877
-0.0071276747621595
-0.0059297406114637
-0.0046975594013929
-0.0034258943051099
-0.0021110721863806
-0.0007524937391281
0.0006450414657592
0.0020708625670522
0.0035087205469608
0.004937891382724
0.0063363672234117
0.0076838838867843
0.0089630205184221
0.01015957724303
0.0112630501389503
0.0122673967853188
0.0131703875958919
0.0139691568911075
0.0146529106423258
0.0151958297938108
0.0155526371672749
0.0156581923365592
0.0154333924874663
0.0147995585575699
0.0136972879990935
0.012101761996746
0.0100309308618307
0.0075470795854926
0.0047515984624624
0.0017729341052472
-0.0012490694643929
-0.0041774087585508
-0.0068885846994817
-0.0092802476137876
-0.0112755121663212
-0.0128247085958719
-0.0139062786474823
-0.0145257301628589
-0.0147122526541352
-0.0145148886367678
-0.0139979431405663
-0.0132341422140598
-0.0122962873429059
-0.011249610222876
-0.0101463682949543
-0.0090229026973247
-0.0078983688727021
-0.006774756591767
-0.0056403414346277
-0.0044773602858185
-0.0032689683139324
-0.0020019905641674
-0.000668034190312
0.0007348827202804
0.0022003976628184
0.0037125933449715
0.0052474988624453
0.0067770201712846
0.0082721961662173
0.0097053563222289
0.0110526522621512
0.0122955627739429
0.0134205287322402
0.014417908154428
0.0152782490476965
0.015983672812581
0.0164993498474359
0.0167718920856714
0.0167343653738498
0.016315221786499
0.0154514349997043
0.0141038419678807
0.0122698489576578
0.0099903950467705
0.0073492201045155
0.0044633755460381
0.0014676814898848
-0.0015011383220553
-0.0043164887465536
-0.0068699573166668
-0.0090767331421375
-0.0108785070478916
-0.0122440923005342
-0.0131689757108688
-0.0136733334511518
-0.0137976426631212
-0.0135973719879984
-0.0131374699994921
-0.0124856252223253
-0.0117056276649236
-0.0108532048761844
-0.0099735809490084
-0.0090983128175139
-0.0082415454089641
-0.0073992740362882
-0.0065541486255824
-0.0056836474686861
-0.0047680428251624
-0.0037956573069095
-0.0027639023028314
-0.0016779606230556
-0.0005504181608557
0.0005986578762531
0.0017436342313885
0.002856882289052
0.0039124740287661
0.0048893205821514
0.0057724360376596
0.0065528322011232
0.0072277374565601
0.0077978484332561
0.008258581161499
0.0085902865976095
0.008752891793847
0.0086866347119212
0.0083210421726107
0.0075904512777924
0.0064491434022784
0.0048823533579707
0.0029129739850759
0.0006027081981301
-0.0019534965977072
-0.0046384492889046
-0.0073262010701
-0.0098945666104555
-0.0122340964153409
-0.0142540289089083
-0.0158874224871397
-0.0170945972204208
-0.0178626552224159
-0.0182026159018278
-0.0181456003338098
-0.0177375115454196
-0.0170336589217185
-0.0160949509590864
-0.0149847920984029
-0.0137643655762076
-0.0124861998483538
-0.0111893555149436
-0.009897943586111
-0.0086221424862742
-0.0073611834086477
-0.0061077545396983
-0.0048527978360652
-0.0035892331507056
-0.0023136450909078
-0.0010262317955493
0.000270037446171
0.0015694489702582
0.0028623035177588
0.0041343299672007
0.0053684576414525
0.0065478519536554
0.0076575679704546
0.0086851045489311
0.0096220513805747
0.0104650976136326
0.0112136956304311
0.0118655338883399
0.0124109610915184
0.0128264185041189
0.0130699407309293
0.0130825880914926
0.0127964243292808
0.012147793546319
0.0110935121774673
0.0096250530332326
0.0077746538445353
0.0056112417951226
0.0032301219180226
0.0007414417341351
-0.0017409091815352
-0.0041099051013588
-0.0062736882828176
-0.0081599755212664
-0.0097177112475037
-0.0109173413366079
-0.0117492191493511
-0.0122198890894651
-0.0123483072966337
-0.0121643114835023
-0.0117083834484219
-0.011029664427042
-0.0101811420172452
-0.0092137474566698
-0.0081720799207687
-0.0070917820557951
-0.0059971739538013
-0.0049007385969161
-0.0038061435334384
-0.0027125882916152
-0.0016173265175893
-0.000516212079674
0.0005955633241683
0.0017210154328495
0.0028584587853401
0.0040004127658903
0.0051347408443689
0.006246798671782
0.0073210578411817
0.00834187772125
0.0092943590134382
0.0101654883474111
0.0109450435265898
0.0116262678056955
0.0122059592977166
0.0126832732930779
0.0130579192191362
0.0133276833221316
0.0134837972000241
0.0135048190131783
0.0133529538288712
0.0129766874015331
0.0123199932277202
0.0113353226333856
0.0099961403757333
0.0083050858229398
0.0062972037121653
0.0040392894297838
0.0016238400712609
-0.0008431151509284
-0.0032562240958213
-0.0055215484462678
-0.0075615639798343
-0.0093166520819067
-0.0107464082539081
-0.0118311075493693
-0.0125714475288987
-0.0129854334518313
-0.0131038818508386
-0.0129666877910494
-0.0126192457973957
-0.0121080372482538
-0.0114767178893089
-0.0107631748542189
-0.009997334331274
-0.0092008709907531
-0.008388478308916
-0.0075687477365136
-0.0067447191104292
-0.0059150056913495
-0.005075333174318
-0.004220051690936
-0.003342853160575
-0.0024377154186367
-0.0015018044505268
-0.000538240885362
0.000443625729531
0.0014297647867351
0.0024042837321758
0.003352239029482
0.0042600706219673
0.0051150009967386
0.0059059276245534
0.0066242446191608
0.0072633167728781
0.0078187128528952
0.0082896575331687
0.0086782556027174
0.0089843403548002
0.0091983014717698
0.0092955054715275
0.0092348614707589
0.0089638959616422
0.0084305331110954
0.0075966157019138
0.0064473906531929
0.004995830822736
0.0032832683064043
0.0013766335323452
-0.0006382530555129
-0.0026671164669096
-0.0046190964058041
-0.0064159082248806
-0.0079961027950048
-0.0093161575496196
-0.0103503223508596
-0.0110896974802017
-0.0115404892712831
-0.0117215476930141
-0.0116618806496262
-0.0113972919061779
-0.010966089554131
-0.010406388901174
-0.0097541818395257
-0.0090403947979211
-0.008289286866784
-0.0075186765752732
-0.0067393202334642
-0.0059540886431932
-0.005159271415323
-0.0043473932892084
-0.0035105366259813
-0.0026438063941895
-0.0017473504412919
-0.0008259979076683
0.0001120730303227
0.0010562557727098
0.0019946526736021
0.0029157320968806
0.0038089493755251
0.0046640820801258
0.0054711960256099
0.0062216604128479
0.0069090239703655
0.0075295781716704
0.0080822594463825
0.0085674365982413
0.0089857010170817
0.0093367770314216
0.0096167027950286
0.0098126986995339
0.0098987622186541
0.0098362332209944
0.0095797134563326
0.009085732512176
0.0083223432302474
0.0072776712477207
0.005965338088572
0.0044260225258767
0.002724148100242
0.0009394041262567
-0.0008436754578724
-0.0025445690844208
-0.0040933373384177
-0.0054347733967006
-0.0065298536792397
-0.0073554068803787
-0.0079035526141524
-0.008181357756257
-0.0082093738019466
-0.0080186566337943
-0.0076478929258883
-0.0071405852213501
-0.006540679372847
-0.0058867796324193
-0.0052074869163334
-0.0045201894827187
-0.0038326233625411
-0.0031443308107554
-0.0024477732367813
-0.0017317556776106
-0.0009865178726613
-0.0002068392932415
0.0006080032326281
0.0014554574154317
0.002330245450139
0.0032239812426269
0.0041241566650569
0.0050140051171183
0.0058749350719153
0.0066897151991724
0.0074438657611608
0.0081264479085803
0.0087317675352096
0.0092604020610451
0.0097170434892177
0.0101048480719327
0.0104185529053211
0.0106394495815038
0.0107342302799224
0.0106583014130592
0.0103635657578706
0.0098091010004282
0.0089712161570787
0.0078504253178834
0.0064741084352135
0.0048938943073153
0.0031790833454579
0.0014087290037423
-0.0003361920826137
-0.0019795927219092
-0.0034556621685624
-0.0047126412391662
-0.0057147121988236
-0.0064428388141095
-0.0068956092000007
-0.0070892423391342
-0.0070546306669712
-0.0068320706486701
-0.0064667090773582
-0.0060049341991543
-0.0054902210831642
-0.00495909107849
-0.0044382279738783
-0.0039428966119885
-0.0034770423080772
-0.0030344570986926
-0.002600627252832
-0.002156913280487
-0.0016860880423337
-0.0011756299063563
-0.0006177651230245
-8.469214662909508e-06
0.000651872716844
0.0013566125417128
0.0020924960263073
0.0028412993997335
0.0035816573072224
0.004290634766221
0.0049464022740721
0.0055319163948297
0.0060379607602953
0.0064633907750248
0.0068097035400569
0.0070707607083022
0.0072241392917931
0.0072294296696782
0.0070335483178496
0.0065808021463453
0.005825282074511
0.0047430153936147
0.0033406978473067
0.0016582634998485
-0.0002353156451135
-0.002251545432955
-0.0042936354875564
-0.0062662791460752
-0.0080843782052397
-0.0096803270280361
-0.0110072465613484
-0.0120384115725755
-0.0127648143097758
-0.0131923165172338
-0.0133391870185732
-0.0132333487272262
-0.0129096079617738
-0.0124075738713145
-0.0117694307118654
-0.0110367219895124
-0.0102456472814083
-0.0094222677871584
-0.0085813524201512
-0.0077293063513934
-0.0068670585751533
-0.0059904991649091
-0.0050909388810396
-0.0041581653058528
-0.0031842407770454
-0.0021654395386576
-0.0011027720756828
-2.517830580472946e-06
0.0011234139092266
0.0022584195248782
0.0033827815204858
0.0044752871617674
0.0055153788998723
0.0064853224903345
0.0073727359995245
0.0081730131059885
0.008888236247003
0.0095213036984205
0.0100666349753737
0.01050032582134
0.0107754720374941
0.0108267543837428
0.0105830375105142
0.0099830757826566
0.0089891795068979
0.0075962245464324
0.005835061892867
0.0037700398825109
0.0014917845837771
-0.0008934019133448
-0.0032757841981947
-0.0055528911761939
-0.0076368609443306
-0.0094580734148621
-0.0109657645225524
-0.0121285319328308
-0.0129351513460278
-0.0133929532021284
-0.0135244186967611
-0.0133647210896015
-0.0129592744633555
-0.0123585052788257
-0.0116108134388923
-0.0107572898268699
-0.0098295798525214
-0.0088495323434472
-0.0078291399404406
-0.0067714359611272
-0.0056731374934315
-0.0045271329581737
-0.0033247172832489
-0.0020591299980878
-0.0007285643368959
0.0006627365946769
0.002103853970766
0.0035778377205133
0.0050647025927901
0.0065436586737632
0.0079930098727345
0.0093903364613652
0.0107142478227615
0.011946877464652
0.0130758369341492
0.014094335027039
0.0149998506531119
0.0157918203622102
0.0164661798626184
0.017006229609251
0.0173742976039648
0.0175095405429601
0.0173341855406761
0.0167661793529987
0.0157347582280635
0.0141973793506622
0.0121538741514086
0.0096518853679299
0.0067829834297299
0.0036722104996442
0.0004637874662876
-0.0026945872232317
-0.0056666797026991
-0.0083385575562715
-0.0106238909065723
-0.0124654145911335
-0.0138338860124349
-0.0147260772064328
-0.0151626523584127
-0.0151849696412682
-0.0148499943315982
-0.0142231211066246
-0.0133704915642738
-0.0123533522710204
-0.011224415153265
-0.0100251473486423
-0.0087840277701616
-0.0075156828388571
-0.0062214564532041
-0.0048924162983894
-0.0035142172127962
-0.0020729089155793
-0.0005604438483715
0.00102199614048
0.0026636822149157
0.0043465495109558
0.0060482462868094
0.0077439695596694
0.0094075016677379
0.0110130831599235
0.0125376898795366
0.0139629412442445
0.0152762616053223
0.0164702795445919
0.0175412483513355
0.0184885933995246
0.0193147286772727
0.0200226418673992
0.0206102579832077
0.0210612788796424
0.0213354900479316
0.0213654115796089
0.0210632719099521
0.0203359387814998
0.0191024858504533
0.0173113290220499
0.0149543890729546
0.0120736882090568
0.0087590608745813
0.0051389066502451
0.0013662306591868
-0.0023967269808053
-0.0059929331764578
-0.0092835510149598
-0.0121580585837364
-0.0145389661192893
-0.0163811743259429
-0.0176694318652153
-0.0184158366173505
-0.018656263127923
-0.0184455066919326
-0.0178525932133197
-0.0169559027999639
-0.0158362053334712
-0.0145679004490375
-0.0132116302847862
-0.0118107255548238
-0.0103910854086279
-0.0089635457843542
-0.007528259884566
-0.0060794069431722
-0.0046089133247733
-0.0031092097051441
-0.001575706526637
-9.26479697227478e-06
0.0015826858580112
0.003186673624441
0.0047839321196079
0.0063513694331049
0.0078630950301885
0.0092929396778345
0.0106190489605069
0.0118279885500669
0.0129145625978708
0.0138789946213364
0.0147251039743423
0.015458951704204
0.0160845387727022
0.0165957901626825
0.0169674735516309
0.017148183658719
0.0170596428215503
0.0166060496121644
0.0156920328736305
0.0142439249902963
0.0122286081314086
0.0096647916361689
0.0066240383312106
0.0032237349078059
-0.0003847759217023
-0.0040326807647943
-0.0075527671724557
-0.0107956621795892
-0.0136399548500776
-0.0159970354288816
-0.0178135707974433
-0.0190718527883291
-0.0197862721979618
-0.0199982523918151
-0.0197712518274784
-0.0191830433905124
-0.018316127359867
-0.0172503218054771
-0.0160578936338424
-0.0147990100085735
-0.0135164652019739
-0.012232313863933
-0.0109498826786875
-0.009659850038588
-0.0083466935902833
-0.006993805989623
-0.00558743160218
-0.0041196821257472
-0.0025896958541125
-0.0010033537400886
0.0006270122248679
0.0022830376401543
0.0039405589923262
0.0055702468380331
0.0071407724171876
0.0086239278316497
0.0099993897601962
0.0112568121403455
0.012393832206726
0.0134116169065237
0.0143083091825246
0.0150690898299217
0.0156560130417346
0.0160039458423852
0.0160262882709503
0.0156300161033868
0.01473637111485
0.0133003881201148
0.0113232247531414
0.0088560990989208
0.0059968251734972
0.0028794072568416
-0.0003410540521144
-0.0035046483390033
-0.0064622489735484
-0.0090886121615767
-0.0112902056425809
-0.013008234091103
-0.0142196528613567
-0.014935771934688
-0.0151969017460942
-0.0150644415989518
-0.0146118896082043
-0.0139156207442283
-0.0130474492907524
-0.0120689794421195
-0.0110268527641892
-0.0099505195394158
-0.0088529866188764
-0.0077338102273643
-0.0065845660865306
-0.005394821986556
-0.0041557801887393
-0.0028620469383895
-0.0015136846341192
-0.0001181368716061
0.0013099894858896
0.002750682644546
0.0041804951615631
0.0055745737627148
0.006908731535077
0.0081616649404168
0.0093161249533295
0.0103585524484515
0.0112787624821066
0.0120687186717987
0.0127167711034417
0.0131978644058108
0.0134654538705945
0.0134504605084657
0.0130696427077054
0.0122418468818068
0.0109066301956772
0.009039849974215
0.006663248874247
0.0038466490805149
0.0007022060453891
-0.002628612332046
-0.0059920996427536
-0.0092389732599258
-0.0122378384694457
-0.014883623458445
-0.01709995418787
-0.0188372079282999
-0.0200703628361225
-0.0207984242588281
-0.0210434235632419
-0.0208473037928342
-0.0202668346464633
-0.0193679984658956
-0.0182206574827432
-0.0168923325836658
-0.0154416989535093
-0.0139150246977806
-0.0123464241623878
-0.010759113356471
-0.0091656893491745
-0.0075689498335123
-0.0059653292410075
-0.0043497225269675
-0.0027190153487026
-0.0010740226134657
0.0005796002224087
0.0022309846244752
0.0038638627156615
0.0054581025615334
0.0069936462678015
0.0084536261856555
0.0098245609551668
0.0110958199948072
0.01225973572582
0.0133110573515295
0.0142443943768739
0.015047987923026
0.0156950633972883
0.0161380656063556
0.0163089353591203
0.0161261167377233
0.0155079187825322
0.0143896387889981
0.0127402357757091
0.0105733089148998
0.0079494202509522
0.0049706492573022
0.0017688116058707
-0.0015102010220289
-0.0047225900925695
-0.0077403150498867
-0.0104591222479939
-0.0128003638237714
-0.0147095480933785
-0.0161542631685733
-0.0171224400401115
-0.0176214817911386
-0.0176782459020614
-0.0173373352736234
-0.0166556742042303
-0.0156964622437953
-0.0145247457548975
-0.0132034206762909
-0.0117892641574144
-0.010328559204936
-0.0088532464578747
-0.0073803509585559
-0.0059142857789993
-0.0044501502998173
-0.0029781758785247
-0.0014881882816553
2.751400097622536e-05
0.0015715894987806
0.0031385398469865
0.0047135115601122
0.0062746717594563
0.0077971420250833
0.0092565789818763
0.0106318537145853
0.0119065456092357
0.0130700292065739
0.0141181992366909
0.0150525802746415
0.0158780254423618
0.0165997073054313
0.0172175075858831
0.017716770991683
0.0180595479905605
0.0181820411235094
0.0180012788623571
0.0174303874373435
0.0163973271846771
0.0148613825440406
0.0128243640065193
0.0103336032480001
0.0074758590199053
0.0043659806251525
0.0011339704506099
-0.0020873914472758
-0.0051722605712711
-0.0080089699476957
-0.0105054844170808
-0.0125926891341805
-0.014225972816348
-0.0153853893280029
-0.0160742737352848
-0.0163167919963598
-0.0161544736474752
-0.0156422406435012
-0.0148449186235666
-0.0138323633000254
-0.012671809643507
-0.0114212725311517
-0.0101272650063037
-0.0088239451870322
-0.0075304172933101
-0.0062489253468811
-0.0049685067497193
-0.0036728787235915
-0.0023476388305425
-0.0009848398622125
0.0004149941378273
0.001843370962888
0.0032849528361111
0.0047177397646009
0.0061146477237343
0.0074489172548055
0.0086999600753188
0.0098546370863914
0.0109050627797842
0.0118468385189771
0.0126788578927516
0.0134028131142258
0.0140210334211587
0.0145349698141217
0.0149457938969135
0.0152539927512407
0.0154542084783315
0.0155264073982834
0.015429800376296
0.0151049913838505
0.0144836101680994
0.0135012650862336
0.0121114701032638
0.0102986358106136
0.0080854296684265
0.0055323508568108
0.0027317097410559
-0.0002027973532676
-0.0031497599557042
-0.005992678925395
-0.0086279232054948
-0.0109693184494972
-0.0129520334303379
-0.0145349483937025
-0.0157000068575143
-0.0164498668164014
-0.0168058071285486
-0.0168051663786172
-0.0164972022175788
-0.0159386377781629
-0.015189055353403
-0.0143051464110612
-0.0133352745324373
-0.0123163796961307
-0.0112736485898494
-0.0102215576916933
-0.0091650746762752
-0.0081012081354856
-0.0070215733721852
-0.0059166923165321
-0.0047807567752897
-0.0036138575524091
-0.0024213567376136
-0.0012125826906412
-7.927883416414262e-08
0.0012010268401354
0.002374445553869
0.0035049899015575
0.0045810854062438
0.0055962852202355
0.0065485793165862
0.0074383215978741
0.0082665290683507
0.0090332105755805
0.0097348242998123
0.0103620188310742
0.0108976969495415
0.011313809081912
0.0115689244121313
0.0116108749061822
0.0113844387233257
0.0108413975685834
0.0099510792642831
0.0087083876132965
0.0071377116255462
0.0052928980439901
0.0032514841295778
0.0011045183055102
-0.0010526664555072
-0.0031272200867533
-0.0050344988703727
-0.0067024221643805
-0.0080748526379466
-0.0091154444962739
-0.0098104290664196
-0.0101675670593976
-0.0102121103554964
-0.0099827107042074
-0.009528249502182
-0.0089040482416749
-0.0081658121198415
-0.0073630744591355
-0.0065353075042366
-0.0057103596627712
-0.0049040345475077
-0.0041201654821634
-0.0033510462380945
-0.002580534433946
-0.0017904924461618
-0.0009669698774814
-0.0001030191779136
0.0008014974882826
0.0017408640123903
0.0027038939297199
0.0036743688397109
0.0046322937123477
0.0055562420748174
0.0064266351982951
0.0072287954390048
0.0079542640596628
0.0086000422015786
0.0091671338304877
0.0096591291949152
0.0100802928209304
0.0104322042316198
0.0107080144807696
0.0108860880136489
0.0109266191720962
0.0107739511877298
0.0103659322485327
0.0096477009356021
0.0085847377777099
0.0071727763861417
0.0054429587908089
0.0034596975892782
0.0013123131357133
-0.0008962363936007
-0.0030619159806519
-0.0050916532054543
-0.0069118393585085
-0.0084711788222193
-0.009738459251821
-0.010698951780796
-0.0113524375483393
-0.0117118302732706
-0.0118016880005598
-0.0116570219397544
-0.0113209979608654
-0.0108404401689767
-0.0102601228281855
-0.0096184965223073
-0.0089455395936965
-0.0082608163356781
-0.0075721489265561
-0.0068772574886679
-0.0061683570966124
-0.0054368549026548
-0.0046754237264394
-0.0038780695758759
-0.0030412885826081
-0.0021667615510523
-0.0012620748020708
-0.0003386491443961
0.0005898717790842
0.0015085770282894
0.0024027212057262
0.0032581479754298
0.0040607163682579
0.0047962944954633
0.0054524838924407
0.0060219820588827
0.0065047033131122
0.006906877271831
0.0072376634925603
0.0075027365237474
0.0076958257704973
0.0077922130003571
0.0077475272119045
0.0075031612068414
0.0069979541003704
0.0061839544214308
0.0050403452478349
0.003579539945349
0.0018454948440194
-9.209779091179372e-05
-0.0021458608098328
-0.0042204242199659
-0.0062218373641371
-0.0080654611811041
-0.0096823871135711
-0.0110233640298247
-0.01205918751657
-0.0127781694754958
-0.013183269649744
-0.0132910422980785
-0.0131302960216999
-0.0127377724274992
-0.012153566814959
-0.0114192264154553
-0.0105762956663966
-0.0096634579822421
-0.0087135899811983
-0.0077515617012977
-0.0067925103940069
-0.0058409408666193
-0.0048926286399364
-0.003939087036997
-0.0029706177301704
-0.0019775964319705
-0.0009530610404908
0.0001043262891471
0.0011896751821041
0.002293121535331
0.003401190508157
0.0044976235367357
0.0055639911442995
0.0065815085545182
0.0075338650494813
0.0084090940654277
0.0092004872858524
0.0099058933556079
