bvp
-0.0099037047475576
-0.0109696164727211
-0.0117803029716014
-0.012329813092947
-0.012626064941287
-0.0126890949904918
-0.0125485528260469
-0.0122411893680691
-0.0118068810552358
-0.0112834377214312
-0.0107026845216751
-0.0100887678563594
-0.0094576850533485
-0.0088173812255263
-0.0081689786165952
-0.0075093563646078
-0.0068338084965944
-0.0061381766572594
-0.0054204910993576
-0.0046814796514809
-0.0039241723716259
-0.003153417725116
-0.0023753747809678
-0.0015975583810359
-0.000829315977171
-8.137989789247513e-05
0.0006351983174681
0.0013098311610519
0.0019335434772074
0.0025008022785186
0.003010869026184
0.0034671118482947
0.0038745193742215
0.0042379326187074
0.0045617138966917
0.0048492979258298
0.0051021440885961
0.0053177867084741
0.005486624315381
0.0055892551317811
0.0055969720706343
0.0054752207361161
0.0051884660497307
0.00470612058416
0.0040086810477077
0.0030923723243176
0.0019711139611899
0.0006757103838026
-0.0007489714771509
-0.002248553559184
-0.0037652056198567
-0.005243138410151
-0.0066322209313511
-0.0078907310962677
-0.0089861406013369
-0.0098935151472687
-0.0105954688042402
-0.0110842324793338
-0.0113617870956659
-0.0114382375031709
-0.0113311326131224
-0.0110643431544303
-0.010665101930499
-0.0101608801633119
-0.0095765814185142
-0.008932058699429
-0.0082414923235774
-0.0075147380121052
-0.0067582009360194
-0.0059745078906416
-0.0051634227856993
-0.0043242941610515
-0.0034576908219605
-0.0025660842657089
-0.0016544824466109
-0.000730357132852
0.0001975097693502
0.0011208141222596
0.0020329167600721
0.0029278735164552
0.0037983409129083
0.0046351952478289
0.0054292287677526
0.0061723468825221
0.0068575656041502
0.0074799861758947
0.0080384956672787
0.0085357213392853
0.0089762713760137
0.009365708567202
0.0097109973430633
0.0100197596475481
0.0102973710745573
0.0105440663173794
0.0107530253008008
0.0109103359282016
0.0109977163374423
0.0109954569488763
0.0108841536566615
0.0106479339301586
0.0102793900296092
0.0097827082499861
0.0091732591390609
0.0084746275097131
0.0077149430289864
0.0069234725087881
0.0061277574859559
0.0053518516942858
0.0046150563284754
0.0039307754486799
0.0033063236624002
0.0027436516247689
0.0022404140327125
0.0017910974565893
0.0013880557380616
0.0010221793781965
0.0006831514183431
0.0003590593114495
3.584707155823708e-05
-0.000300180632621
-0.0006562364287674
-0.0010289913043379
-0.0014060277026146
-0.0017695806454867
-0.0020986446179449
-0.0023686548229306
-0.0025512794964015
-0.0026177521795034
-0.0025440414901822
-0.0023133850190788
-0.0019166474230587
-0.0013532899320125
-0.0006318623200058
0.0002329726703464
0.0012270789593458
0.0023449817672371
0.0035967640578746
0.0050106169655919
0.0066288569942116
0.0084970230236649
0.0106495339423418
0.0130976177752017
0.0158204473555088
0.0187592282891273
0.0218183472752571
0.0248754695057868
0.0277976617217063
0.0304602272808551
0.0327636525034904
0.0346439853310585
0.0360742770135402
0.0370558276772499
0.0375996455550193
0.0377032756805419
0.0373323261737823
0.0364151895046234
0.0348530262708663
0.0325407236814498
0.0293906610459089
0.0253505483269691
0.0204115808010101
0.0146081410348415
0.0080122500658035
0.000727355480194
-0.0071158967912197
-0.0153627134859561
-0.02383828535676
-0.0323536023497581
-0.0407113805413246
-0.0487105548381805
-0.0561499781906604
-0.0628342851996421
-0.0685833096504211
-0.0732436031103134
-0.0767014250159263
-0.078896589577198
-0.0798336416482925
-0.0795865133404731
-0.0782950967550277
-0.0761533379554748
-0.0733888894319534
-0.0702374652028083
-0.0669184923171997
-0.0636152774095535
-0.060459304600954
-0.057521890848875
-0.054815512150526
-0.0523031167685985
-0.0499131754040718
-0.0475562177598476
-0.0451389104127883
-0.042575653642416
-0.0397975295782089
-0.0367586314678192
-0.0334409289062023
-0.0298570375889539
-0.0260497331619262
-0.0220892019569873
-0.0180692821741104
-0.0141003187745809
-0.0102962795644998
-0.0067597590386867
-0.0035696383565664
-0.0007717628031969
0.0016266535967588
0.0036563575267791
0.00537945702672
0.0068793520331382
0.0082491263747215
0.0095798335969448
0.0109500400722026
0.0124184526503086
0.0140206795185804
0.0157687719911336
0.0176526494324207
0.0196439139544963
0.0217009279876947
0.0237735174596309
0.0258080177009105
0.0277533512562513
0.0295674633234739
0.0312233548611402
0.03271309658885
0.0340476185083389
0.0352520495653152
0.0363592281937599
0.037403617054224
0.0384154617786407
0.0394151955842971
0.0404101572930812
0.0413945466279983
0.0423512533307075
0.0432550236582756
0.0440769493579864
0.0447893403470516
0.0453689284622669
0.0457976981997489
0.0460638366639614
0.0461635626852512
0.0461011379957199
0.0458860918879509
0.0455290675163269
0.0450384430587291
0.0444194003939628
0.0436754710972309
0.0428108274936676
0.0418317653238773
0.040746059268713
0.0395595170557498
0.038271602243185
0.036872424185276
0.0353417098522186
0.0336512401700019
0.0317721664905548
0.029684692621231
0.0273848101496696
0.0248863287270069
0.0222206208854913
0.0194347687065601
0.0165869574993848
0.0137396128848195
0.0109521867707371
0.0082761263474822
0.0057528996840119
0.0034135458990931
0.0012789838947355
-0.0006389748305082
-0.0023372671566903
-0.0038224887102842
-0.0051109418272972
-0.0062267766334116
-0.0071994671598076
-0.0080603845417499
-0.0088379438966512
-0.0095528149977326
-0.0102155422791838
-0.010827949270606
-0.0113866804167628
-0.0118862614035606
-0.0123210866004228
-0.0126865739002823
-0.0129796331748366
-0.013198840431869
-0.0133449714630842
-0.013421531766653
-0.0134333651512861
-0.0133845321834087
-0.0132794547826051
-0.0131256030872464
-0.0129332430660724
-0.0127138784155249
-0.0124801527708768
-0.0122454296797513
-0.0120215881615877
-0.0118164848536252
-0.0116327423602342
-0.0114682670682668
-0.011317666620016
-0.0111733600497245
-0.0110266497358679
-0.0108698811382055
-0.0106999557465314
-0.0105233406648039
-0.0103610102087259
-0.0102493148297071
-0.0102353952825069
-0.010369773954153
-0.0106987301260232
-0.0112567543983459
-0.0120584648102521
-0.0130921732634305
-0.0143189691007137
-0.0156780425459146
-0.0170954670757055
-0.0184927955269813
-0.0197942145168781
-0.0209332332015037
-0.0218580830842256
-0.0225338917225599
-0.022942766547203
-0.0230834260582923
-0.0229697152972221
-0.0226283781230449
-0.0220964029431343
-0.0214166417717933
-0.0206319596618413
-0.0197798404842615
-0.0188885945826768
-0.0179754793643951
-0.017046932131052
-0.0161010809242725
-0.0151317156851291
-0.0141316978260874
-0.0130937844514846
-0.0120100639760494
-0.0108727691695094
-0.0096763409674167
-0.0084196021780371
-0.0071072704158723
-0.0057496954686939
-0.0043609268032014
-0.002956656506285
-0.001553138019517
-0.0001664462033659
0.0011887233704328
0.00250054593198
0.0037613315507769
0.0049672373570501
0.0061162309721112
0.0072067310102283
0.0082376645877957
0.0092083988711237
0.0101180206984281
0.0109645444899797
0.0117451883852481
0.0124565437436103
0.0130908209830522
0.013629169203341
0.0140378065407276
0.0142698194831609
0.0142722558230161
0.013996310532093
0.0134068522602319
0.0124890469014644
0.0112522020936012
0.009731532074511
0.0079874163493514
0.0061002052389085
0.0041606351733207
0.0022590977605432
0.000476858112961
-0.0011196411214768
-0.0024817986413836
-0.0035792966373264
-0.0043982868082821
-0.0049390504136681
-0.0052144145593047
-0.0052488283254206
-0.0050766016356647
-0.0047382647171616
-0.0042764013633131
-0.003731885459274
-0.0031400006264448
-0.0025275233201682
-0.0019121393561363
-0.0013027172535657
-0.0006994772702455
-9.51141119003296e-05
0.000523162074387
0.0011708745732903
0.0018626870587468
0.0026087341830134
0.0034121880307793
0.0042697032913565
0.0051742955110967
0.0061166384257376
0.0070834374055266
0.0080570671707391
0.0090176295489072
0.0099446084350347
0.0108186565339565
0.011624302715063
0.0123510798439383
0.012992663308978
0.0135462842881679
0.0140133798122406
0.0144008342176675
0.0147205749526619
0.0149851534515619
0.0152012147009372
0.015363996848464
0.0154523327946662
0.0154253980144858
0.0152254197746515
0.0147859957069158
0.0140426587313413
0.0129449237138032
0.0114681897684931
0.0096217282116413
0.007450798060745
0.0050321142189204
0.0024636308662593
-0.0001470522256568
-0.0026929937303066
-0.0050765136256814
-0.0072146458551287
-0.0090426839888095
-0.0105186477303504
-0.011626124382019
-0.0123721333220601
-0.0127819068729877
-0.0128932492807507
-0.0127509450539946
-0.0124019961804151
-0.0118927881121635
-0.0112678529694676
-0.0105681046843528
-0.0098276669159531
-0.0090708658099174
-0.0083109056577086
-0.0075505496934056
-0.0067837759852409
-0.0059979665093123
-0.005177370738238
-0.0043069515377283
-0.0033754757605493
-0.0023785675875842
-0.0013216213556006
-0.0002202732430305
0.0009017965057864
0.0020156009122729
0.0030897837132215
0.0040938411839306
0.0050008641555905
0.0057898960076272
0.0064482279121875
0.0069728787057101
0.0073704407550394
0.0076559041626751
0.0078509841114282
0.0079815397039055
0.0080738859251141
0.008149929344654
0.0082214530557394
0.0082848612219095
0.0083178272470831
0.0082786055281758
0.008108889684081
0.0077418512664735
0.0071146837435662
0.0061817858368158
0.0049255862832069
0.0033632167614996
0.0015471763908863
-0.0004402324557304
-0.0024971775710582
-0.0045150937512516
-0.0063911229372024
-0.0080372374504804
-0.0093859732151031
-0.0103949718177318
-0.0110497940331697
-0.0113628637045621
-0.0113691259175539
-0.0111200176179409
-0.0106773665174841
-0.0101081738248467
-0.0094780744984745
-0.0088427811861038
-0.0082414364442229
-0.0076945438049733
-0.0072058183141052
-0.0067658466286957
-0.0063551762141287
-0.0059474171139299
-0.0055144508369266
-0.0050323428586125
-0.0044855852611362
-0.0038693426176905
-0.0031891732942312
-0.0024579188320785
-0.0016918578185141
-0.0009081559255719
-0.0001231362111866
0.0006489446386694
0.0013959109783172
0.0021071974188089
0.0027742809616029
0.0033913603983819
0.0039557116106152
0.0044687646441161
0.0049371668137609
0.005371740553528
0.0057829185388982
0.0061731855385005
0.0065302262082695
0.006824011914432
0.007007994223386
0.0070239622145891
0.0068105366080999
0.0063140373677015
0.0054994248785078
0.0043595824390649
0.002920689061284
0.0012409165501594
-0.0005966373719274
-0.0024934313260018
-0.0043457257561385
-0.006054756231606
-0.0075356983579695
-0.0087249083444476
-0.0095852157101035
-0.0101086515933275
-0.0103153456002473
-0.0102478135377168
-0.0099631119519472
-0.0095258839428424
-0.0090012596920132
-0.0084467157721519
-0.0079060224816203
-0.0074072172865271
-0.0069628343917429
-0.0065708816982805
-0.0062171686440706
-0.0058793723583221
-0.0055310921743512
-0.0051453686319291
-0.0046993670985102
-0.0041788630187511
-0.0035795969888567
-0.0029067993164062
-0.0021745902486145
-0.0014035427011549
-0.0006159519543871
0.0001682732254266
0.0009323086123913
0.0016607024008408
0.0023392937146127
0.0029581454582512
0.0035143038257956
0.0040117930620908
0.0044597233645617
0.0048687462694942
0.0052447635680437
0.0055818757973611
0.0058583552017807
0.0060371491126716
0.0060697291046381
0.0059020617045462
0.0054829884320497
0.0047745122574269
0.0037612910382449
0.002456443849951
0.000902964384295
-0.000828756543342
-0.0026478487998247
-0.0044538006186485
-0.0061479834839701
-0.0076432283967733
-0.0088701071217656
-0.0097795631736516
-0.0103446040302515
-0.0105617335066199
-0.0104489484801888
-0.0100410804152488
-0.0093853948637843
-0.008537121117115
-0.0075542232953011
-0.0064915791153907
-0.0053950808942317
-0.0042980490252375
-0.0032220766879618
-0.0021800752729177
-0.0011777183972299
-0.0002137031406164
0.0007186974398791
0.001629106234759
0.0025272767525166
0.0034205827396363
0.0043135336600244
0.0052086655050516
0.0061065480113029
0.0070054125972092
0.0079021137207746
0.0087942536920309
0.0096812779083848
0.0105630354955792
0.0114366356283426
0.0122933182865381
0.0131165711209177
0.013882391154766
0.0145620740950107
0.0151263214647769
0.015548825263977
0.015807494521141
0.0158820953220129
0.0157502051442861
0.0153850046917796
0.0147564280778169
0.0138355568051338
0.0126012712717056
0.0110476119443774
0.0091898357495665
0.0070675713941454
0.0047446619719266
0.0023045826237648
-0.000159069779329
-0.0025538969784975
-0.0047973170876502
-0.0068208910524845
-0.0085713397711515
-0.0100102517753839
-0.0111147267743945
-0.0118783479556441
-0.0123101556673645
-0.0124323219060897
-0.0122778099030256
-0.011886422522366
-0.0112996622920036
-0.0105578275397419
-0.0096996463835239
-0.0087615018710494
-0.0077750161290168
-0.0067644794471561
-0.0057454239577054
-0.0047241579741239
-0.0036987685598433
-0.0026625751052051
-0.0016086213290691
-0.0005330292042344
0.0005632325774058
0.0016738895792514
0.0027878445107489
0.0038903853856027
0.0049645295366644
0.0059917103499174
0.0069531193003058
0.0078329732641577
0.0086210137233138
0.0093117430806159
0.009902998805046
0.0103964721783995
0.0107986303046345
0.0111203268170356
0.0113739753141999
0.0115672871470451
0.0116957919672131
0.0117376828566193
0.0116525748744606
0.0113857388496398
0.0108781093731522
0.0100782420486211
0.008952273055911
0.0074909483082592
0.0057132057845592
0.0036654733121395
0.0014175749383866
-0.0009437380358576
-0.0033234427683055
-0.0056272079236805
-0.007768377661705
-0.0096730198711156
-0.0112837459892034
-0.0125622795894742
-0.0134908929467201
-0.014072036370635
-0.0143253877758979
-0.0142832957208156
-0.0139862513169646
-0.013479696586728
-0.0128115192055702
-0.0120285246521234
-0.0111721102148294
-0.0102745220065116
-0.0093573005869984
-0.0084328353404998
-0.0075075300410389
-0.0065838480368256
-0.005660552997142
-0.0047334572300314
-0.0037983157671988
-0.0028534517623484
-0.0018995073623955
-0.0009381945710629
2.7462607249617577e-05
0.0009919040603563
0.0019463682547211
0.0028795648831874
0.0037791603244841
0.0046331482008099
0.0054307808168232
0.0061626555398106
0.0068203997798264
0.0073977853171527
0.0078929392620921
0.0083083948120474
0.0086471568793058
0.0089063262566924
0.0090712672099471
0.0091128889471292
0.0089896330609917
0.0086538745090365
0.0080606220290064
0.0071763060986995
0.0059863715432584
0.0045009749010205
0.0027573704719543
0.0008178958669304
-0.0012356434017419
-0.0033105965703725
-0.0053149466402828
-0.0071684904396533
-0.0088082291185855
-0.0101871350780129
-0.011271771043539
-0.0120426192879676
-0.0124956183135509
-0.0126429162919521
-0.0125120636075735
-0.0121424160897731
-0.0115794027224183
-0.0108691845089197
-0.0100549273192882
-0.0091743851080536
-0.008258176036179
-0.007328325882554
-0.0063976943492889
-0.005471022799611
-0.0045469370670616
-0.0036196885630488
-0.0026807689573615
-0.0017216301057487
-0.0007367830839939
0.0002745708334259
0.0013082933146506
0.0023558009415864
0.0034048904199153
0.0044409483671188
0.0054489774629473
0.0064157177694141
0.0073306467384099
0.0081854052841663
0.0089725889265537
0.0096854008734226
0.0103189190849661
0.0108724171295762
0.0113490996882319
0.0117504158988595
0.0120685258880257
0.0122818583622574
0.0123554021120071
0.0122462986037135
0.0119131105020642
0.011324469000101
0.0104646096006035
0.0093367993831634
0.0079656448215246
0.0063966973684728
0.0046922108158469
0.0029241694137454
0.0011662619654089
-0.0005121228750795
-0.0020488274749368
-0.0033916463144123
-0.0045015881769359
-0.0053553800098598
-0.0059468573890626
-0.0062868669629096
-0.0064019514247775
-0.0063320659101009
-0.0061259744688868
-0.0058343783020973
-0.0055037015117704
-0.0051722563803195
-0.0048679439350962
-0.0046073761768639
-0.0043966062366962
-0.004231484606862
-0.0040975883603096
-0.0039721853099763
-0.0038275639526546
-0.0036347426939755
-0.0033685064408928
-0.0030120629817247
-0.0025590301956981
-0.002013704041019
-0.0013905832311138
-0.0007118280045688
-2.250541001558304e-06
0.0007149304728955
0.0014190059155225
0.0020916920620948
0.0027192521374672
0.0032959254458546
0.0038237154949456
0.004305301234126
0.0047347489744424
0.0050930734723806
0.0053493645973503
0.0054651489481329
0.0054007666185498
0.0051215877756476
0.0046028806827962
0.003835177514702
0.0028300187550485
0.0016222209669649
0.0002661147154867
-0.0011722408235073
-0.0026220621075481
-0.0040117492899298
-0.0052722636610269
-0.0063416170887649
-0.0071678599342703
-0.0077093327417969
-0.0079342480748891
-0.0078207403421401
-0.0073584169149398
-0.0065536778420209
-0.0054388996213674
-0.0040826713666319
-0.0025962702929973
-0.0011305124498903
0.0001391202677041
0.0010356218554079
0.0014075885992497
0.0011563131120055
0.000256605213508
-0.0012342785485088
-0.0031821993179619
-0.0053961216472089
-0.0076577221043407
-0.0097530670464038
-0.011500846594572
-0.0127731543034315
-0.0135054904967546
-0.0136957196518778
-0.0133940773084759
-0.012685514986515
-0.0116678867489099
-0.0104340817779302
-0.0090620443224906
-0.0076092309318482
-0.0061100292950868
-0.004578873515129
-0.003018626011908
-0.0014305827207863
0.0001766020432114
0.0017807071562856
0.0033434296492487
0.0048125460743904
0.006128738168627
0.0072341514751315
0.0080801080912351
0.0086332149803638
0.0088784396648406
0.0088188834488391
0.008474139496684
0.0078783622011542
0.0070777088403701
0.0061269234865903
0.0050855902954936
0.0040143765509128
0.0029715243726968
0.0020101235713809
0.0011760096531361
0.0005060583353042
2.777250483632088e-05
-0.00023919576779
-0.0002805083058774
-8.471868932247162e-05
0.0003579636104404
0.0010534776374697
0.0019978494383394
0.0031715976074337
0.0045384056866168
0.0060464474372565
0.0076298154890537
0.0092117451131343
0.0107121635228395
0.0120580811053514
0.0131936054676771
0.0140869906172156
0.014733025804162
0.0151510704308748
0.0153796048834919
0.0154688712209463
0.0154734253883361
0.015444342046976
0.0154227688908576
0.0154383014887571
0.0155107146129012
0.0156506076455116
0.0158577747642993
0.0161180682480335
0.0163987595587968
0.0166443586349487
0.0167770572006702
0.0167036447674036
0.01632746681571
0.0155624905601143
0.0143462903797626
0.012649823911488
0.0104820374399423
0.007887503132224
0.0049388743937015
0.0017291214317083
-0.0016348324716091
-0.0050397249870002
-0.0083753196522593
-0.0115423072129488
-0.0144565226510167
-0.0170506052672863
-0.0192752256989479
-0.0211002212017774
-0.0225151553750038
-0.0235291216522455
-0.0241687521338462
-0.0244732685387134
-0.0244873985648155
-0.0242552775889635
-0.0238177850842475
-0.0232122279703617
-0.0224719438701868
-0.0216250903904438
-0.0206937249749898
-0.0196941271424293
-0.0186379924416542
-0.0175337791442871
-0.0163867399096488
-0.0151973515748977
-0.0139616653323173
-0.0126753114163875
-0.0113376341760158
-0.009953474625945
-0.008532915264368
-0.0070896334946155
-0.0056393267586827
-0.0041987104341387
-0.0027841343544423
-0.0014105143491178
-9.234936442226171e-05
0.0011529845651239
0.0023014014586806
0.0033196920994669
0.0041657099500298
0.0047916937619447
0.0051504783332347
0.005203936714679
0.0049314969219267
0.0043350714258849
0.003439299063757
0.002289196010679
0.0009464637259952
-0.0005157447885721
-0.0020188190974295
-0.0034842635504901
-0.0048392484895884
-0.0060221087187528
-0.0069856788031756
-0.007697535213083
-0.0081394175067543
-0.008308071643114
-0.0082165151834487
-0.0078936265781521
-0.0073812077753245
-0.0067281983792781
-0.0059835030697286
-0.0051901671104133
-0.0043814019300043
-0.0035780747421085
-0.0027885232120752
-0.0020108046010136
-0.0012362645938992
-0.0004532588645815
0.0003500590100884
0.0011845733970403
0.0020597293041646
0.0029815020971
0.0039492491632699
0.0049554910510778
0.0059899780899286
0.0070431549102067
0.0081052687019109
0.0091645615175366
0.010207837447524
0.0112225599586963
0.0121984016150236
0.013124905526638
0.0139851849526166
0.0147509900853037
0.01538279466331
0.0158340856432914
0.0160575453191995
0.0160115528851747
0.0156666077673435
0.0150116393342614
0.0140587575733661
0.012844443321228
0.0114271054044365
0.0098810279741883
0.0082867015153169
0.0067213834263384
0.0052540502510964
0.003943767864257
0.0028383326716721
0.0019720294512808
0.0013627945445477
0.0010097874328494
0.0008930414915084
0.0009757946245372
0.0012090001255273
0.0015378398820757
0.0019084720406681
0.0022730194032192
0.0025935734156519
0.0028453222475945
0.0030178294982761
0.0031147936824709
0.0031519648618996
0.0031532691791653
0.003146595088765
0.0031591516453772
0.0032126740552484
0.0033205212093889
0.003486602101475
0.0037054186686873
0.0039646010845899
0.0042494870722293
0.0045460555702447
0.00484060915187
0.0051188603974878
0.0053661633282899
0.0055663860403001
0.0056978063657879
0.0057287216186523
0.0056160143576562
0.0053086723200976
0.0047562466934323
0.0039188642986118
0.0027753892354667
0.0013291239738464
-0.0003887268248945
-0.0023191450163722
-0.0043809683993458
-0.0064814197830855
-0.0085269464179873
-0.010431183502078
-0.0121214780956506
-0.0135442037135362
-0.0146658914163708
-0.0154702924191951
-0.0159553568810224
-0.0161321982741355
-0.0160243920981884
-0.0156661123037338
-0.0150992916896939
-0.014369647949934
-0.0135217243805527
-0.0125944064930081
-0.0116187119856476
-0.010617989115417
-0.0096080461516976
-0.0085966791957616
-0.0075857369229197
-0.0065748528577387
-0.005562303122133
-0.0045442339032888
-0.0035158628597855
-0.0024733012542128
-0.0014146247413009
-0.0003410573117434
0.0007418890018016
0.0018243738450109
0.0028932599816471
0.0039333277381956
0.004929332062602
0.0058688065037131
0.0067431945353746
0.0075464909896254
0.0082715088501572
0.008903850801289
0.009416664019227
0.0097698178142309
0.0099136047065258
0.0097950976341962
0.0093660913407802
0.0085923913866281
0.0074630277231335
0.0059964945539832
0.0042415643110871
0.0022723297588527
0.0001798460725694
-0.0019369079964235
-0.0039794435724616
-0.0058567896485328
-0.0074909403920173
-0.0088202869519591
-0.0098005291074514
-0.0104049332439899
-0.0106265600770711
-0.0104811936616897
-0.010006777010858
-0.0092575922608375
-0.0082958955317735
-0.0071848668158054
-0.0059835161082446
-0.004742182791233
-0.0034988988190889
-0.0022776406258344
-0.0010884460061788
7.037678733468056e-05
0.0012072846293449
0.002331512980163
0.003449666313827
0.0045655593276023
0.0056805093772709
0.0067920926958322
0.0078921522945165
0.0089660296216607
0.0099944453686475
0.0109574552625417
0.0118379695340991
0.0126235373318195
0.0133065478876233
0.0138831390067934
0.014352073892951
0.014713691547513
0.014966451562941
0.0151005107909441
0.0150920003652572
0.0149024194106459
0.0144844939932227
0.0137915108352899
0.0127861900255084
0.0114482603967189
0.0097804320976138
0.0078110978938639
0.005593208130449
0.0032003787346184
0.0007209137547761
-0.0017504226416349
-0.0041213962249457
-0.0063098948448896
-0.0082490621134638
-0.0098887914791703
-0.0111948112025856
-0.0121483169496059
-0.0127463061362504
-0.0130016421899199
-0.0129423113539814
-0.0126089677214622
-0.0120504507794976
-0.011317703872919
-0.0104578584432601
-0.0095105469226837
-0.0085065895691514
-0.0074682347476482
-0.0064103142358362
-0.0053420304320752
-0.0042690965346992
-0.0031952005811035
-0.0021222562063485
-0.0010509345447644
1.691351644694805e-05
0.0010751970112323
0.0021124419290572
0.0031134211458265
0.004062873777002
0.0049487594515085
0.0057627474889159
0.0064996527507901
0.0071570957079529
0.0077347001060843
0.0082339653745293
0.0086584910750389
0.0090114306658506
0.0092889424413442
0.0094734653830528
0.0095318667590618
0.0094193033874034
0.0090868398547172
0.0084909703582525
0.0076033966615796
0.0064182891510427
0.0049545406363904
0.003254345152527
0.0013801739551126
-0.0005906228907406
-0.0025740074925124
-0.0044882046058773
-0.0062612285837531
-0.0078358696773648
-0.0091711776331067
-0.0102402530610561
-0.011027512140572
-0.0115292631089687
-0.0117559870705008
-0.0117321806028485
-0.0114928651601076
-0.0110784135758876
-0.0105299986898899
-0.0098862675949931
-0.0091807516291737
-0.0084404023364186
-0.0076851127669215
-0.00692735100165
-0.0061721713282167
-0.0054188733920454
-0.0046638324856758
-0.0039024618454277
-0.0031302040442824
-0.0023436616174876
-0.0015419616829603
-0.0007275801617652
9.442772716283798e-05
0.000918086618185
0.0017369829583913
0.0025433304253965
0.0033274383749812
0.0040792436338961
0.004790551494807
0.0054552843794226
0.0060676927678287
0.006618489511311
0.0070891575887799
0.0074495305307209
0.0076620592735707
0.007689066696912
0.0074994321912527
0.0070744832046329
0.0064122541807591
0.0055289925076067
0.0044578360393643
0.0032452628947794
0.0019459500908851
0.0006170305423438
-0.0006859828718006
-0.001910651102662
-0.0030094990506768
-0.0039447648450732
-0.0046933628618717
-0.0052479179576039
-0.0056138876825571
-0.005806578323245
-0.005849543493241
-0.0057722628116607
-0.0056063821539282
-0.0053821145556867
-0.0051261438056826
-0.0048605934716761
-0.0046022129245102
-0.0043624471873044
-0.0041477368213236
-0.0039583230391144
-0.0037871487438678
-0.0036208538804203
-0.0034422520548105
-0.0032335347495973
-0.0029790611006319
-0.0026666624471545
-0.0022882283665239
-0.0018406892195343
-0.0013269907794892
-0.0007556227501481
-0.0001385554205626
0.0005109028425067
0.0011795293539762
0.001855171052739
0.0025262203998863
0.0031787629704922
0.0037932246923446
0.004342146217823
0.0047906152904033
0.0051011769101023
0.0052411761134862
0.0051881410181522
0.0049317860975861
0.0044747055508196
0.0038333069533109
0.0030380701646208
0.0021315454505383
0.0011638333089649
0.0001874635927379
-0.0007465658709406
-0.0015922293532639
-0.0023124306462705
-0.002883230568841
-0.0032964092679321
-0.003558492520824
-0.0036874702200293
-0.0037093088030815
-0.0036539682187139
-0.0035509653389453
-0.0034260470420122
-0.0032994707580655
-0.0031853241380304
-0.003091481514275
-0.0030201051849871
-0.0029679769650101
-0.0029264092445373
-0.0028824477922171
-0.0028222138062119
-0.0027345644775778
-0.0026126976590603
-0.0024535723496228
-0.0022561454679816
-0.0020185876637697
-0.0017369216075167
-0.001407538075
-0.0010308232158422
-0.0006126636872068
-0.0001635309890843
0.000304483808577
0.0007806697394698
0.0012558193411678
0.0017184880562126
0.0021495062392205
0.002519454807043
0.0027910796925425
0.0029241938609629
0.0028816470876336
0.0026363153010606
0.0021768154110759
0.0015096587594598
0.0006589380209334
-0.00033527603955
-0.0014208231586962
-0.0025395818520337
-0.0036342346575111
-0.0046538677997887
-0.0055571529082953
-0.0063138143159449
-0.0069052674807608
-0.0073237582109868
-0.0075707864016294
-0.0076562673784792
-0.0075968676246702
-0.0074125351384282
-0.0071237459778785
-0.0067505561746656
-0.0063112368807196
-0.0058199842460453
-0.0052863759920001
-0.0047177667729556
-0.0041219913400709
-0.0035075116902589
-0.002881078980863
-0.0022453134879469
-0.0015984894707798
-0.0009359796531498
-0.0002518342807888
0.0004593152552843
0.0012000142596662
0.0019682259298861
0.0027567623183131
0.0035546207800507
0.0043498747982084
0.0051318015903234
0.0058907871134579
0.0066177295520901
0.0073046078905463
0.0079454919323325
0.0085354438051581
0.0090656811371445
0.0095185162499547
0.0098661426454782
0.0100728906691074
0.0101000070571899
0.0099123883992433
0.0094857700169086
0.0088124666363
0.0079038450494408
0.0067896926775574
0.0055153081193566
0.004136383999139
0.0027128867805004
0.0013035908341407
-3.7937890738248825e-05
-0.0012656138278543
-0.0023418283089995
-0.0032379105687141
-0.0039345035329461
-0.0044224760495126
-0.0047043743543326
-0.0047940807417035
-0.0047129532322287
-0.0044856625609099
-0.0041387900710105
-0.0036998512223362
-0.0031950962729752
-0.0026480788365006
-0.0020789168775081
-0.0015022754669189
-0.0009254310280084
-0.0003494415432214
0.0002278974279761
0.0008111065253615
0.0014071757905185
0.0020233592949807
0.0026640631258487
0.0033296747133135
0.0040161656215786
0.0047143949195742
0.0054107997566461
0.0060903066769242
0.006739430129528
0.007347859442234
0.0079091461375355
0.0084210969507694
0.0088855335488915
0.0093065379187464
0.0096863284707069
0.0100199021399021
0.0102907735854387
0.0104690063744783
0.0105126835405826
0.0103733539581298
0.0100038321688771
0.0093670999631285
0.008445294573903
0.0072454074397683
0.0057990411296486
0.0041584181599318
0.0023917236831039
0.0005771531723439
-0.0012052378151565
-0.0028819455765187
-0.0043918164446949
-0.0056883613578975
-0.0067404201254248
-0.0075327083468437
-0.0080658355727791
-0.0083549581468105
-0.008425885811448
-0.0083096828311681
-0.0080392211675643
-0.0076473504304885
-0.0071644443087279
-0.0066160024143755
-0.0060210241936147
-0.0053918957710266
-0.0047367950901389
-0.0040619922801852
-0.0033717204350978
-0.0026686615310609
-0.001957107335329
-0.0012462309096008
-0.0005511459894478
0.0001094851177185
0.0007190478499978
0.0012679013889282
0.0017542750574648
0.0021826759912073
0.0025630497839301
0.00291044334881
0.0032430319115519
0.0035794337745755
0.0039370106533169
0.0043301074765622
0.0047671450302004
0.0052472087554633
0.0057573956437408
0.0062721404246985
0.0067545645870268
0.0071578761562705
0.0074266260489821
0.0075013535097241
0.0073270807042717
0.0068626184947788
0.0060889688320457
0.0050136200152337
0.0036688856780529
0.0021076248958706
0.00039754784666
-0.0013875069562345
-0.0031771434005349
-0.0049107554368674
-0.0065398733131587
-0.0080278851091861
-0.0093482676893472
-0.010482563637197
-0.0114184617996215
-0.0121482219547033
-0.0126687008887529
-0.0129823368042707
-0.0130976699292659
-0.0130298025906085
-0.012800277210772
-0.0124346241354942
-0.0119582591578364
-0.0113930068910121
-0.0107548367232084
-0.0100525384768843
-0.0092883668839931
-0.0084605570882558
-0.0075653442181646
-0.0065974369645118
-0.0055499882437288
-0.0044162366539239
-0.0031939032487571
-0.0018890590872615
-0.0005162076558917
0.0009042848832905
0.0023486474528908
0.0037913983687758
0.0052076838910579
0.0065764505416154
0.0078824711963534
0.0091155394911766
0.0102673973888158
0.0113277761265635
0.0122799659147858
0.0130971418693661
0.0137428566813468
0.0141768455505371
0.0143622625619173
0.0142710031941533
0.0138874808326363
0.0132118659093976
0.0122621543705463
0.0110742002725601
0.009699372574687
0.0082000670954585
0.0066452147439122
0.005106056574732
0.0036501493304967
0.0023352813441306
0.0012055435217916
0.0002886473666876
-0.0004061302170157
-0.0008883791742846
-0.0011837986530736
-0.0013285902095958
-0.0013639446115121
-0.0013317144475877
-0.0012704913970082
-0.0012129002716392
-0.0011840036604553
-0.0011995793320238
-0.0012647120747715
-0.0013734532985836
-0.0015101854223757
-0.0016530791763216
-0.0017795588355511
-0.0018719299696385
-0.0019184434786438
-0.0019103437662124
-0.0018413823563605
-0.0017099007964134
-0.001519035315141
-0.0012752071488648
-0.0009871919173747
-0.0006661978550255
-0.000325618777424
2.038991078734398e-05
0.0003573056310415
0.0006669294089078
0.000921668484807
0.001081817317754
0.0010992409661412
0.0009241043590009
0.0005114362575113
-0.0001712390221655
-0.0011360137723386
-0.0023705163039267
-0.0038385905791074
-0.0054827407002449
-0.0072276438586413
-0.008987140841782
-0.0106743406504392
-0.0122108850628137
-0.0135326385498046
-0.0145924314856529
-0.0153613360598683
-0.0158290937542915
-0.0160043593496084
-0.0159140806645154
-0.0155997276306152
-0.0151104889810085
-0.0144963711500167
-0.0138030610978603
-0.0130679029971361
-0.0123166171833872
-0.0115615921095013
-0.0108025856316089
-0.0100304679945111
-0.0092321848496794
-0.0083940979093313
-0.0075034433975815
-0.0065492177382111
-0.0055240713991224
-0.0044269682839512
-0.0032640220597386
-0.0020467923022806
-0.0007904795929789
0.000486250501126
0.001761061605066
0.0030094578396528
0.0042082397267222
0.0053394688293337
0.006391913164407
0.0073563181795179
0.0082158213481307
0.0089384661987423
0.0094770109280943
0.0097752604633569
0.0097769955173134
0.0094345919787883
0.0087171392515301
0.007618592120707
0.0061635789461433
0.0044075823388993
0.0024315621703863
0.0003329776227474
-0.0017847009003162
-0.0038213073275983
-0.0056859827600419
-0.0073006264865398
-0.008603255264461
-0.0095513369888067
-0.0101237846538424
-0.0103214122354984
-0.0101651065051555
-0.0096915392205119
-0.0089482441544532
-0.0079889800399541
-0.0068688718602061
-0.0056397952139377
-0.0043469341471791
-0.0030266027897596
-0.0017050886526703
-0.0003983182832598
0.0008879089727997
0.002157007344067
0.0034184325486421
0.0046823872253298
0.0059558376669883
0.0072408076375722
0.008533613756299
0.0098251961171627
0.011102195829153
0.0123488958925008
0.0135501436889171
0.0146927246823906
0.0157649144530296
0.0167562775313854
0.0176566243171691
0.018453462049365
0.0191293340176343
0.0196582414209842
0.0200014431029558
0.0201074630022048
0.0199192278087139
0.0193842817097902
0.0184634290635585
0.0171374399214983
0.0154119189828634
0.0133206183090806
0.0109270494431257
0.0083214109763503
0.0056115267798304
0.0029113795608282
0.0003308830782771
-0.0020328443497419
-0.0041016484610736
-0.0058179120533168
-0.0071445233188569
-0.0080664381384849
-0.0085912514477968
-0.0087465140968561
-0.0085749141871929
-0.0081290295347571
-0.0074664996936917
-0.0066443043760955
-0.0057123228907585
-0.0047100177034735
-0.0036668013781309
-0.002602788619697
-0.0015293518081307
-0.0004506735131144
0.000633449293673
0.0017247325740754
0.0028247190639376
0.0039339167997241
0.005051240324974
0.0061736097559332
0.0072956611402332
0.0084095299243927
0.0095044625923037
0.0105669945478439
0.0115822544321417
0.0125354845076799
0.0134134832769632
0.0142059624195098
0.0149049879983067
0.0155008621513843
0.015974810346961
0.0162916220724582
0.016397600993514
0.016225803643465
0.0157067608088254
0.0147823495790362
0.0134188923984766
0.0116154365241527
0.0094062024727463
0.0068589868023991
0.0040706065483391
0.0011580693535506
-0.0017533455975353
-0.0045415204949676
-0.0070972787216305
-0.0093317087739706
-0.0111799053847789
-0.012602443806827
-0.0135856177657842
-0.0141403535380959
-0.0143008846789598
-0.0141222728416323
-0.013673797249794
-0.0130297383293509
-0.0122611876577138
-0.0114292120561003
-0.0105802826583385
-0.0097450464963912
-0.0089390948414802
-0.0081652225926518
-0.0074177328497171
-0.0066879857331514
-0.0059678484685719
-0.0052493889816105
-0.0045241573825478
-0.0037841540761291
-0.0030236206948757
-0.0022412622347474
-0.0014416817575693
-0.0006344551220536
0.0001682732254266
0.0009538801386952
0.0017105424776673
0.0024274922907352
0.0030939318239688
0.0036968644708395
0.0042179180309176
0.0046294154599308
0.0048920474946498
0.0049572037532925
0.0047745453193783
0.0043021906167268
0.0035153739154338
0.0024112630635499
0.0010108351707458
-0.0006413031369447
-0.0024797674268484
-0.0044236266985535
-0.0063832756131887
-0.0082690259441733
-0.0099998414516448
-0.0115091493353247
-0.0127466823905706
-0.0136784669011831
-0.0142876273021101
-0.0145758800208568
-0.014563400298357
-0.014285797253251
-0.0137887150049209
-0.0131216738373041
-0.0123330801725387
-0.0114669082686305
-0.0105602731928229
-0.0096414377912878
-0.0087280059233307
-0.0078262500464916
-0.0069330753758549
-0.0060392031446099
-0.0051319478079676
-0.0041982321999967
-0.00322778057307
-0.0022154576145112
-0.0011615874245762
-7.095560431480408e-05
0.0010468307882547
0.0021766927093267
0.003300292417407
0.0043997187167406
0.0054598981514573
0.0064699063077569
0.0074220141395926
0.0083064641803503
0.0091042323037981
0.0097818644717335
0.0102910157293081
0.0105739384889602
0.010573242790997
0.0102417869493365
0.0095505965873599
0.0084951827302575
0.0070996144786477
0.0054165674373507
0.0035229008644819
0.0015111602842807
-0.0005215462297201
-0.0024826461449265
-0.0042887777090072
-0.0058693820610642
-0.0071710878983139
-0.0081616844981908
-0.0088327107951045
-0.0091992663219571
-0.0092962803319096
-0.0091724907979369
-0.0088837258517742
-0.0084862979128956
-0.0080312993377447
-0.0075602428987622
-0.0071019176393747
-0.0066715651191771
-0.0062725711613893
-0.0058982819318771
-0.0055336956866085
-0.0051588732749223
-0.0047537004575133
-0.0043019289150834
-0.0037927867379039
-0.0032201900612562
-0.0025814147666096
-0.0018769297748804
-0.0011119288392364
-0.0002982439473271
0.0005460018292069
0.0013996358029544
0.0022417213767766
0.0030515003018081
0.0038050352595746
0.0044715614058077
0.0050114230252802
0.0053766872733831
0.0055161314085125
0.0053829974494874
0.00494169536978
0.0041733188554644
0.0030811908654868
0.0016942280344665
6.588315591216087e-05
-0.0017299344763159
-0.0036046949680894
-0.0054641030728816
-0.0072187753394246
-0.0087919309735298
-0.0101225757971405
-0.0111668817698955
-0.0118991015478968
-0.0123119307681918
-0.0124164726585149
-0.0122405840083956
-0.0118239186704158
-0.0112113272771239
-0.0104475831612944
-0.0095732081681489
-0.0086205936968326
-0.0076118703000247
-0.0065600275993347
-0.0054722391068935
-0.0043528983369469
-0.0032055894844233
-0.0020343824289739
-0.0008442141115665
0.0003596674650907
0.0015725316479802
0.0027901632711291
0.0040073972195386
0.0052169896662235
0.0064101358875632
0.0075772143900394
0.0087079843506217
0.0097916796803474
0.0108174234628677
0.0117747243493795
0.0126528199762105
0.0134380590170621
0.0141091365367174
0.0146323181688785
0.0149620324373245
0.0150484517216682
0.0148469777777791
0.014325812458992
0.0134720588102936
0.0122960284352302
0.0108319045975804
0.0091345282271504
0.0072741089388728
0.0053298496641218
0.0033822301775217
0.0015055851545184
-0.0002355305477976
-0.0017863688990473
-0.0031022080220282
-0.0041496353223919
-0.0049078813754022
-0.0053703975863754
-0.0055455709807574
