bvp
0.0012174881994724
0.0017073461785912
0.0023719444870948
0.0031572133302688
0.0040148827247321
0.0049061076715588
0.0058040115982294
0.0066947797313332
0.0075758905149996
0.0084510613232851
0.0093251187354326
0.0102016795426607
0.0110822385177016
0.0119647644460201
0.0128424298018217
0.0137039888650178
0.0145353963598608
0.0153209809213876
0.0160448029637336
0.0166926924139261
0.0172533728182315
0.0177191961556673
0.0180870816111564
0.0183576624840497
0.0185317881405353
0.018605500459671
0.0185649767518043
0.0183833632618188
0.0180217586457729
0.0174342654645442
0.0165754202753305
0.0154086723923683
0.0139135643839836
0.0120901688933372
0.0099619524553418
0.0075767091475427
0.0050030509009957
0.0023228651843965
-0.0003767302259802
-0.0030098161660134
-0.0054968278855085
-0.0077691581100225
-0.0097724366933107
-0.0114672612398862
-0.0128292683511972
-0.0138507019728422
-0.014541370794177
-0.0149267297238111
-0.0150438612326979
-0.0149368159472942
-0.0146517921239137
-0.0142325777560472
-0.013717507943511
-0.0131380148231983
-0.0125175947323441
-0.0118712522089481
-0.0112064108252525
-0.0105252331122756
-0.0098266191780567
-0.0091068744659423
-0.008360244333744
-0.0075807427056133
-0.0067646922543644
-0.005911917425692
-0.0050259609706699
-0.0041147065348923
-0.0031900145113468
-0.0022664214484393
-0.0013605183921754
-0.0004902016371488
0.000326607376337
0.0010734694078564
0.0017375238239765
0.0023116776719689
0.0027957949787378
0.0031948676332831
0.0035123350098729
0.0037413267418742
0.0038596941158175
0.0038312096148729
0.0036117685958743
0.003158763051033
0.0024414574727416
0.0014495803043246
0.0001971237361431
-0.0012787142768502
-0.0029207598417997
-0.0046572010032832
-0.0064101424068212
-0.0081049650907516
-0.0096780685707926
-0.0110824555158615
-0.0122893545776605
-0.0132856769487261
-0.0140704866498708
-0.0146521860733628
-0.0150454891845583
-0.0152677707374095
-0.0153359286487102
-0.0152650224044919
-0.0150687918066978
-0.0147612281143665
-0.014357566833496
-0.01387236174196
-0.0133154671639204
-0.0126904286444187
-0.0119966976344585
-0.0112326648086309
-0.0103977285325527
-0.0094939107075333
-0.0085266027599573
-0.0075040264055132
-0.0064363153651356
-0.005333874374628
-0.0042044413276016
-0.0030513305682688
-0.0018748899456113
-0.0006745382561348
0.000551484292373
0.0018069609068334
0.0030966256745159
0.0044239433482289
0.0057889139279723
0.0071849315427243
0.008594449609518
0.0099851582199335
0.0113091431558132
0.0125066628679633
0.0135129308328032
0.0142663782462477
0.0147189898416399
0.0148456636816263
0.0146480491384863
0.0141527401283383
0.0134054375812411
0.0124633600935339
0.0113893095403909
0.0102475918829441
0.0090995905920863
0.007999463006854
0.0069915121421217
0.0061085242778062
0.005370186176151
0.0047823595814406
0.0043378453701734
0.0040183975361287
0.0037989148404449
0.0036530927754938
0.0035566336009651
0.0034876416902989
0.003426999785006
0.0033592926338315
0.0032732596155256
0.0031615521293133
0.0030205880757421
0.0028505185618996
0.0026555047370493
0.0024446891620755
0.0022317278198897
0.0020316601730883
0.0018574930727481
0.0017176200635731
0.001613890286535
0.0015418753027915
0.0014934968203306
0.0014599193818867
0.0014329534024
0.0014053317718207
0.0013715792447328
0.0013289330527186
0.0012759799137711
0.0012079370208084
0.0011102324351668
0.0009544985368847
0.0007006921805441
0.0003052670508623
-0.0002691997215151
-0.0010469448752701
-0.0020339996553957
-0.0032155718654394
-0.0045584654435515
-0.0060167522169649
-0.007536678109318
-0.009060158394277
-0.010527953505516
-0.0118831302970647
-0.0130746122449636
-0.0140608511865139
-0.0148135228082537
-0.0153189878910779
-0.0155768459662795
-0.0155978733673691
-0.0154024753719568
-0.0150195937603712
-0.0144844213500618
-0.0138335712254047
-0.0131006110459566
-0.0123150143772363
-0.0115029904991388
-0.0106861963868141
-0.0098780943080782
-0.0090831043198704
-0.0083003723993897
-0.0075269090011715
-0.0067574381828308
-0.0059843654744327
-0.0051993113011121
-0.0043940786272287
-0.0035619360860437
-0.0027000168338418
-0.0018088268116116
-0.0008896091021597
5.5223237723112106e-05
0.0010199774987995
0.0019954179879277
0.0029688170179724
0.0039235455915331
0.0048410864546895
0.0057049398310482
0.0065023615024983
0.0072223884053528
0.0078504830598831
0.0083625568076968
0.0087236585095524
0.0088922269642353
0.0088269338011741
0.0084944991394877
0.0078766690567135
0.0069746091030538
0.0058110412210226
0.0044300723820924
0.0028937594033777
0.0012762588448822
-0.0003426019102334
-0.0018839170224964
-0.003276249859482
-0.004460709169507
-0.0053932415321469
-0.0060445833951234
-0.0064000869169831
-0.0064608277752995
-0.0062440950423479
-0.0057811122387647
-0.0051133083179593
-0.0042890198528766
-0.003359330818057
-0.0023713847622275
-0.0013617817312479
-0.0003537647426128
0.0006421599537134
0.0016259318217635
0.0026039713993668
0.0035841558128595
0.0045714220032095
0.0055654412135481
0.0065605342388153
0.0075466320849955
0.008510585874319
0.0094378385692834
0.0103151556104421
0.0111333699896931
0.0118870250880718
0.0125721227377653
0.0131856799125671
0.0137258293107151
0.014190325513482
0.0145759843289852
0.0148804765194654
0.0151036065071821
0.0152464248239994
0.015308721922338
0.0152850011363625
0.0151597615331411
0.0149049330502748
0.0144825931638479
0.0138527806848287
0.0129821561276912
0.0118501987308263
0.010453151538968
0.0088066970929503
0.0069468147121369
0.0049278424121439
0.0028179436922073
0.0006929237861186
-0.0013706558384001
-0.0033018833491951
-0.0050399466417729
-0.006536740809679
-0.0077594127506017
-0.0086925430223345
-0.0093377716839313
-0.0097111612558364
-0.0098403058946132
-0.0097611928358674
-0.0095143429934978
-0.0091406088322401
-0.0086771212518215
-0.0081551326438784
-0.007599766831845
-0.0070294179022312
-0.0064551508985459
-0.0058810645714402
-0.0053052878938615
-0.0047224476002156
-0.0041267722845077
-0.0035132761113345
-0.0028774994425475
-0.0022162916138768
-0.0015294882468879
-0.0008206260390579
-9.711692109704018e-05
0.0006296499632298
0.0013452528510242
0.0020342962816357
0.0026832809671759
0.0032828736584633
0.003827627049759
0.004314606077969
0.0047431546263396
0.0051141683943569
0.0054258559830486
0.0056667020544409
0.0058112074621021
0.0058221635408699
0.0056578079238533
0.0052814623340964
0.0046704923734068
0.0038212947547435
0.0027507171034812
0.001494983327575
0.0001062611117959
-0.0013520957436412
-0.0028109918348491
-0.0042020105756819
-0.0054640192538499
-0.0065473075956106
-0.0074147176928818
-0.0080428011715412
-0.0084231477230787
-0.0085616447031497
-0.0084765776991844
-0.0081964852288365
-0.0077571705915033
-0.0071979267522692
-0.0065571395680308
-0.0058673843741416
-0.005151504650712
-0.0044219684787094
-0.0036836571525782
-0.0029370633419603
-0.0021794589702039
-0.001405214658007
-0.0006073261611163
0.0002201641909778
0.0010812790133059
0.0019788704812526
0.0029132848139852
0.0038794474676251
0.00486630667001
0.0058581563644111
0.0068361507728695
0.0077802771702408
0.00867176707834
0.0094952844083309
0.0102406907826662
0.010903300717473
0.0114806424826383
0.0119656752794981
0.0123393526300787
0.0125677771866321
0.012607330456376
0.0124144125729799
0.0119541538879275
0.0112071810290217
0.010173856280744
0.008874206803739
0.0073456410318613
0.0056406743824481
0.0038234903477132
0.0019641211256384
0.0001319008879363
-0.0016092571895569
-0.0032039463985711
-0.0046079400926828
-0.0057913428172469
-0.0067424150183796
-0.0074690333567559
-0.0079950932413339
-0.0083536989986896
-0.0085806120187044
-0.0087095703929662
-0.0087684514001011
-0.0087758861482143
-0.008741158992052
-0.0086678657680749
-0.0085572255775332
-0.0084088314324617
-0.0082200206816196
-0.0079857418313622
-0.0077002681791782
-0.0073596313595771
-0.0069622807204723
-0.0065081981010735
-0.0059991092421114
-0.0054401257075369
-0.0048405728302896
-0.0042135138064622
-0.00357431685552
-0.0029381932690739
-0.0023181345313787
-0.0017245896160602
-0.0011671255342662
-0.0006568448152393
-0.0002084248699247
0.000156941358
0.0004083807580173
0.0005054213106632
0.0004027723334729
5.858670920133591e-05
-0.0005568852648139
-0.0014549908228218
-0.0026248737704008
-0.0040322439745068
-0.0056217447854578
-0.0073230783455073
-0.0090590417385101
-0.0107519850134849
-0.0123278638347983
-0.01372005417943
-0.0148730678483843
-0.0157453287392854
-0.0163114555180072
-0.0165635049343109
-0.0165100246667861
-0.016173381358385
-0.0155866062268614
-0.0147898094728589
-0.0138255460187792
-0.0127344839274883
-0.0115527808666229
-0.0103098917752504
-0.0090265423059463
-0.0077145406976342
-0.0063787060789763
-0.0050194789655506
-0.0036353701725602
-0.0022257100790739
-0.000793226994574
0.0006540669128298
0.0021018488332629
0.0035315477289259
0.0049247248098254
0.0062653399072587
0.007541237398982
0.0087473094463348
0.0098856464028358
0.0109602604061365
0.0119721107184886
0.0129183111712336
0.0137927299365401
0.0145846977829933
0.0152756106108427
0.015834704041481
0.0162163823843002
0.0163619890809059
0.0162073858082294
0.0156957805156707
0.0147919617593288
0.0134914349764585
0.011822497472167
0.0098431147634983
0.0076333312317729
0.0052862288430333
0.0029006251133978
0.0005741966888308
-0.0016032606363296
-0.0035543702542781
-0.0052164010703563
-0.0065428717061877
-0.0075056822970509
-0.0080963335931301
-0.0083246864378452
-0.0082169659435749
-0.0078134601935744
-0.0071643479168415
-0.0063243983313441
-0.0053480258211493
-0.0042850608006119
-0.0031772721558809
-0.0020563146099448
-0.0009432341903448
0.0001517869532108
0.0012283688411116
0.0022916533052921
0.0033475933596491
0.0044013755396008
0.0054568722844123
0.0065143047831952
0.0075690331868827
0.0086135687306523
0.0096397837623953
0.0106399450451135
0.0116067472845315
0.0125314341858029
0.0134024526923894
0.0142073258757591
0.0149349765852093
0.0155764259397983
0.0161254201084375
0.0165776014328002
0.0169253181666135
0.0171500351279974
0.0172167774289846
0.0170736815780401
0.0166587941348552
0.0159120466560125
0.0147869614884257
0.0132604613900184
0.011340657249093
0.0090696103870868
0.0065197767689824
0.0037858963478356
0.0009741791291162
-0.001809004927054
-0.004465801641345
-0.0069111455231904
-0.0090742707252502
-0.0109005998820066
-0.0123539566993713
-0.013416638597846
-0.0140878045931458
-0.0143829453736543
-0.0143346367403864
-0.0139911090955138
-0.0134107992053031
-0.0126554127782583
-0.0117833232507109
-0.0108435060828924
-0.0098717147484421
-0.0088897086679935
-0.0079065477475523
-0.0069214543327689
-0.0059276642277836
-0.0049168625846505
-0.0038842873182147
-0.0028317347168922
-0.0017661999445408
-0.0006970150861889
0.0003655410837382
0.0014104535803198
0.0024258689954876
0.003399189794436
0.0043178196065127
0.0051709986291825
0.0059521268121898
0.0066595468670129
0.0072953402996063
0.0078630661591887
0.0083645898848772
0.0087965009734034
0.0091464528813958
0.0093894517049193
0.0094858221709728
0.0093832882121205
0.0090239206328988
0.0083542093634605
0.0073358369991183
0.0059552183374762
0.00422915071249
0.002205696189776
-3.869505599141121e-05
-0.0024061694275587
-0.004788015037775
-0.0070755165070295
-0.0091691799461841
-0.0109859919175505
-0.0124638974666595
-0.0135639794170856
-0.0142712863162159
-0.0145937735214829
-0.0145590249449014
-0.0142099419608712
-0.013600431382656
-0.0127899991348385
-0.0118370158597826
-0.0107930228114128
-0.0096993828192353
-0.0085855461657047
-0.0074682361446321
-0.0063511189073324
-0.0052256174385547
-0.0040743360295891
-0.0028773453086614
-0.0016193890478461
-0.0002938855905085
0.0010977303609251
0.0025484615471214
0.004047593101859
0.0055812392383813
0.0071324645541608
0.0086821010336279
0.0102100931107997
0.0116971246898174
0.0131260557100176
0.0144823361188173
0.0157529339194297
0.0169231034815311
0.0179712027311325
0.0188644416630268
0.0195585917681455
0.0200011413544416
0.0201359298080205
0.0199097543954849
0.0192816741764545
0.018232773989439
0.0167726371437311
0.014939940534532
0.0127981966361403
0.0104296281933784
0.0079280249774456
0.0053912531584501
0.0029151523485779
0.000588059425354
-0.0015154909342527
-0.0033412128686904
-0.0048593287356197
-0.0060642338357865
-0.0069711171090602
-0.0076122446916997
-0.0080316439270973
-0.0082777626812458
-0.008397264406085
-0.0084318732842803
-0.0084166964516043
-0.0083776814863085
-0.0083289556205272
-0.0082725919783115
-0.0082003138959407
-0.0080958846956491
-0.0079392390325665
-0.0077116768807172
-0.0073996232822537
-0.0069963415153324
-0.0065022390335798
-0.0059245685115456
-0.0052768476307392
-0.004577474668622
-0.0038473177701234
-0.0031073577702045
-0.0023776097223162
-0.0016769059002399
-0.001021834090352
-0.0004248740151524
0.0001052860170602
0.0005595767870545
0.0009225085377693
0.0011667609214782
0.0012510530650615
0.0011247191578149
0.000738525763154
5.590543150901794e-05
-0.0009398944675922
-0.0022420873865485
-0.0038188667967915
-0.0056150825694203
-0.0075574293732643
-0.0095623144879937
-0.0115449279546737
-0.0134268086403608
-0.0151394251734018
-0.0166247803717851
-0.0178364161401987
-0.0187415722757577
-0.0193225741386413
-0.0195764545351266
-0.0195139031857252
-0.0191584303975105
-0.0185448247939348
-0.0177164226770401
-0.0167214944958686
-0.015608724206686
-0.0144222695380449
-0.0131975002586841
-0.0119587015360593
-0.0107194893062114
-0.009484308771789
-0.0082495948299765
-0.0070061045698821
-0.0057434323243796
-0.0044545447453856
-0.0031373905949294
-0.001793724251911
-0.0004283585585653
0.0009498272556811
0.0023273034021258
0.0036867938470095
0.0050080837681889
0.006269029341638
0.00744862947613
0.0085308775305747
0.0095065850764513
0.010372512973845
0.0111282933503389
0.0117710242047905
0.0122887706384062
0.0126566877588629
0.0128385983407497
0.0127932457253336
0.0124821458011865
0.011876686476171
0.0109644485637545
0.0097542610019445
0.0082777487114071
0.0065872631967067
0.0047513926401734
0.002848329488188
0.0009583595674484
-0.0008429903537034
-0.0024907337501645
-0.0039337780326604
-0.0051350658759474
-0.0060705859214067
-0.0067287804558873
-0.0071100019849836
-0.0072259344160556
-0.0070990375243127
-0.0067611820995807
-0.0062503698281943
-0.0056066205725073
-0.004868765361607
-0.0040712733753025
-0.0032407667022198
-0.0023945698048919
-0.0015422299038618
-0.0006879039574414
0.0001683635637164
0.0010297389235347
0.0019003112101927
0.0027823476120829
0.003674823557958
0.0045727784745395
0.0054678912274539
0.0063504483550786
0.0072100167162716
0.0080349799245595
0.0088138002902269
0.0095368977636098
0.0101971356198191
0.010790005326271
0.0113138705492019
0.0117693021893501
0.0121577261015772
0.0124787483364343
0.0127253178507089
0.0128790605813264
0.012908705510199
0.0127725508064031
0.0124247139319777
0.0118235694244503
0.0109401429072022
0.0097648361697793
0.0083113592118024
0.0066164922900497
0.0047359871678054
0.0027388618327677
0.0007012748392298
-0.0012997407466173
-0.0031923062633723
-0.0049153319559991
-0.0064223911613225
-0.0076814917847514
-0.0086723202839493
-0.009386065416038
-0.009827759116888
-0.0100164581090211
-0.0099822208285331
-0.0097615737468004
-0.0093928053975105
-0.0089127123355865
-0.0083545390516519
-0.0077458810992538
-0.007107007317245
-0.0064499853178858
-0.005778775550425
-0.0050915367901325
-0.0043847812339663
-0.0036561039742082
-0.0029051327146589
-0.0021349382586777
-0.0013521168148145
-0.0005646091885864
0.0002194319386035
0.0009907827479764
0.0017387723783031
0.002452356275171
0.0031214710325002
0.0037387234624475
0.0043014893308281
0.0048124897293746
0.0052778935059905
0.0057041062973439
0.0060951216146349
0.0064514698460698
0.0067690555006265
0.0070359352976083
0.007228935137391
0.0073131844401359
0.0072451075538992
0.0069783516228199
0.0064719952642917
0.0056997975334525
0.0046578869223594
0.0033673678990453
0.0018713930621743
0.0002293054712936
-0.0014902963303029
-0.0032170368358492
-0.0048858253285288
-0.0064408811740577
-0.0078362040221691
-0.0090355966240167
-0.0100132878869771
-0.0107541475445032
-0.0112536987289786
-0.011518133804202
-0.0115634072571992
-0.011412663385272
-0.0110929310321807
-0.0106324926018714
-0.0100587736815214
-0.009396456182003
-0.0086668068543076
-0.0078882798552513
-0.0070757907815277
-0.0062376968562603
-0.0053747650235891
-0.0044839871115982
-0.0035631996579468
-0.0026120878756046
-0.0016312026418745
-0.0006226510740816
0.0004076529294252
0.0014493013732135
0.0024897519033402
0.0035176533274352
0.0045244246721267
0.0055042277090251
0.0064539266750216
0.0073731304146349
0.0082643618807196
0.0091331023722887
0.0099842138588428
0.0108135994523763
0.0116010988131165
0.0123094227164983
0.0128880329430103
0.0132804382592439
0.013434293679893
0.0133120361715555
0.012898750603199
0.0122053679078817
0.0112669644877314
0.0101364394649863
0.0088756112381815
0.0075465608388185
0.0062048723921179
0.0048959753476083
0.0036543835885822
0.0025044670328497
0.0014628343051299
0.0005415843334048
-0.0002504508593119
-0.000908782123588
-0.0014339362969622
-0.0018309904262423
-0.0021095154806971
-0.0022838865406811
-0.0023717451840639
-0.0023906608112156
-0.0023560859262943
-0.0022811987437307
-0.0021768030710518
-0.0020506232976913
-0.0019064192892983
-0.0017440781230106
-0.0015609689289703
-0.001353173982352
-0.0011162135051563
-0.000846087699756
-0.0005402696551755
-0.0001978438813239
0.0001805271022021
0.0005919560790061
0.0010307636111974
0.0014884914271533
0.0019540206994861
0.0024147077929228
0.0028593821916729
0.003281328594312
0.0036778389476239
0.0040438901633024
0.0043621608056128
0.0045967949554324
0.0046961130574345
0.0046025021001696
0.0042649093084037
0.0036500007845461
0.0027486546896398
0.0015768017619848
0.0001725810579955
-0.0014082198031246
-0.0030978240538388
-0.0048232907429337
-0.0065137548372149
-0.0081054661422967
-0.0095441034063696
-0.0107868751510977
-0.0118046719580888
-0.0125825898721814
-0.0131184756755828
-0.0134212858974933
-0.0135107720270752
-0.0134165063500404
-0.0131739452481269
-0.0128187667578458
-0.0123821776360273
-0.0118887312710285
-0.0113564422354102
-0.0107971616089344
-0.0102158933877944
-0.009609717875719
-0.0089680012315511
-0.0082756988704204
-0.0075188772752881
-0.0066891349852085
-0.0057859243825078
-0.0048173172399401
-0.0037982249632477
-0.0027473936788737
-0.0016862001502886
-0.0006378216203302
0.0003762944834306
0.0013407255755737
0.0022468580864369
0.0030902177095413
0.0038687963970005
0.004584576934576
0.0052439263090491
0.0058521418832242
0.0064041507430374
0.0068768165074288
0.0072268228977918
0.007395920343697
0.0073224697262048
0.0069552576169371
0.0062651885673403
0.0052522988989949
0.0039466726593673
0.0024039084091782
0.0006979790050536
-0.0010873163118958
-0.0028674930799752
-0.0045640841126441
-0.0061079515144228
-0.007441327907145
-0.0085196234285831
-0.0093131093308329
-0.009808549657464
-0.0100092468783259
-0.0099323652684688
-0.0096052233129739
-0.0090620089322328
-0.0083405636250972
-0.0074792108498513
-0.0065140202641487
-0.00547656416893
-0.0043925829231739
-0.0032817041501402
-0.0021572578698396
-0.0010259570553898
0.0001110369339585
0.0012552207335829
0.0024078721180558
0.0035678544081747
0.0047298367135226
0.0058842157013714
0.007019002456218
0.0081220138818025
0.0091825379058718
0.0101925292983651
0.0111461784690618
0.0120376031845808
0.0128594059497118
0.0136041333898901
0.0142676131799817
0.0148512125015258
0.0153601458296179
0.0157983805984258
0.0161634497344493
0.0164422802627086
0.0166074782609939
0.0166162922978401
0.016414351761341
0.015943132340908
0.0151504408568143
0.0140017662197351
0.0124877234920859
0.010626514442265
0.0084630940109491
0.0060658785514533
0.0035220426507294
0.0009305281564593
-0.0016074434388428
-0.0039965263567864
-0.0061522303149104
-0.0080041838809847
-0.0094995340332388
-0.0106073701754212
-0.0113213285803794
-0.0116573255509138
-0.011648092418909
-0.0113375419750809
-0.0107761546969413
-0.0100175123661756
-0.0091152731329202
-0.0081191416829824
-0.0070701586082577
-0.0059982184320688
-0.004922694992274
-0.003853837493807
-0.0027945432811975
-0.0017440491355955
-0.0007018307223916
0.00033077923581
0.0013500717468559
0.0023490316234529
0.0033174781128764
0.004244266077876
0.0051189698278903
0.0059311287477612
0.0066694226115942
0.0073233833536505
0.0078861499205231
0.0083554610610008
0.0087335985153913
0.0090279951691627
0.009251307696104
0.0094194784760475
0.0095478929579257
0.0096456678584218
0.0097084371373057
0.0097128851339221
0.0096166795119643
0.0093636251986026
0.0088929655030369
0.0081517342478036
0.0071060354821383
0.0057480093091726
0.0040980326011776
0.0022018530871719
0.0001239425037056
-0.002059958409518
-0.0042688297107815
-0.0064203310757875
-0.008434584364295
-0.0102395080029964
-0.0117767332121729
-0.0130062568932771
-0.0139085846021771
-0.0144839501008391
-0.0147490967065095
-0.014732920564711
-0.0144724305719137
-0.0140094626694917
-0.0133867990225553
-0.0126430708914995
-0.0118095315992832
-0.0109100937843322
-0.0099617857486009
-0.008974989876151
-0.0079546384513378
-0.0069018923677504
-0.0058156610466539
-0.0046943677589297
-0.003537866519764
-0.0023479033261537
-0.0011270268587395
0.0001217658864334
0.0013940997887402
0.00268324627541
0.0039801262319087
0.0052744010463356
0.006554951891303
0.0078091267496347
0.0090229660272598
0.0101835960522294
0.0112809492275118
0.0123051265254616
0.0132409911602735
0.014064272865653
0.0147393457591533
0.0152184991165995
0.0154458004981279
0.0153665710240602
0.0149387689307332
0.0141418473795056
0.0129818506538867
0.0114922448992729
0.0097299693152308
0.0077697220258414
0.0056979265064001
0.00360446004197
0.001573703251779
-0.0003222776576876
-0.0020278324373066
-0.0035055396147072
-0.0047366940416395
-0.0057203941978514
-0.006470956839621
-0.0070139309391379
-0.0073810261674225
-0.0076050395146012
-0.0077157760970294
-0.0077374051325023
-0.0076876711100339
-0.0075785843655467
-0.0074172224849462
-0.0072058490477502
-0.0069422861561179
-0.0066215228289365
-0.0062379818409681
-0.0057873805053532
-0.0052678259089589
-0.0046801008284091
-0.0040279068052768
-0.0033194632269442
-0.0025692475028336
-0.0017968052998185
-0.0010225824080407
-0.0002637295983731
0.0004676226526498
0.0011637397110462
0.0018200445920228
0.0024337796494364
0.003001457080245
0.0035144304856657
0.0039537260308861
0.0042861243709921
0.0044634956866502
0.0044278427958488
0.0041225096210837
0.0035047056153416
0.00255380384624
0.0012750793248414
-0.0002989182248711
-0.0021103331819176
-0.0040832217782735
-0.0061328564770519
-0.0081733930855989
-0.010123792104423
-0.0119118057191371
-0.013476388528943
-0.0147699918597936
-0.0157613605260849
-0.01643792912364
-0.0168059635907411
-0.0168875455856323
-0.0167154520750045
-0.0163275692611932
-0.0157616380602121
-0.0150509234517812
-0.0142221599817276
-0.0132965184748172
-0.0122916512191295
-0.0112224267795681
-0.0101003078743815
-0.0089325243607163
-0.0077222362160682
-0.0064711216837167
-0.0051832259632647
-0.0038664371240884
-0.0025312218349426
-0.0011894474737346
0.0001460310304537
0.0014619568828493
0.0027453815564513
0.003984123468399
0.0051667904481291
0.0062822299078106
0.0073191290721297
0.008266907185316
0.0091176517307758
0.0098668215796351
0.0105105023831129
0.0110395364463329
0.011433633044362
0.0116585344076156
0.0116668613627552
0.0114041082561016
0.0108212288469076
0.0098884152248501
0.0086029786616563
0.0069912690669298
0.0051072221249341
0.0030275890603661
0.0008439356461167
-0.0013466895325109
-0.0034503857605159
-0.0053834901191294
-0.0070775281637907
-0.0084817958995699
-0.0095645459368824
-0.0103124966844916
-0.0107281105592846
-0.0108268931508064
-0.010635963641107
-0.0101921111345291
-0.0095379306003451
-0.008716532960534
-0.0077674686908721
-0.0067252023145556
-0.0056178229860961
-0.0044657704420387
-0.0032823085784912
-0.0020750630646944
-0.0008478770032525
0.0003966419026255
0.0016544046811759
0.0029184939339756
0.0041797803714871
0.0054280939511954
0.0066524427384138
0.0078408326953649
0.0089810909703373
0.0100621813908219
0.0110742738470435
0.0120082069188356
0.0128564639016985
0.013615651987493
0.014287956058979
0.0148787228390574
0.0153901278972625
0.0158141665160655
0.0161283686757087
0.0162950959056615
0.016263660043478
0.0159758497029542
0.0153758637607097
0.0144221726804971
0.0130969583988189
0.0114120757207274
0.0094107519835233
0.0071626110002398
0.0047543752007186
0.0022806036286056
-0.0001644110307097
-0.0024927363265305
-0.0046262242831289
-0.0064986781217157
-0.0080583421513438
-0.0092705134302377
-0.0101192584261298
-0.0106070674955844
-0.010752148926258
-0.010585943236947
-0.0101514365524053
-0.0094990748912096
-0.0086809024214744
-0.0077464468777179
-0.0067398967221379
-0.0056966319680213
-0.0046412614174187
-0.0035894317552447
-0.0025504198856651
-0.0015282742679119
-0.0005233399569988
0.0004660510458052
0.0014429143629968
0.0024100586306303
0.0033671976998448
0.0043093916028738
0.0052272221073508
0.0061077228747308
0.006936159916222
0.0076979394070804
0.0083803813904523
0.0089746341109275
0.0094765350222587
0.0098860766738653
0.0102067003026604
0.010443921200931
0.0106020020321011
0.0106790624558925
0.0106618646532297
0.0105228330940008
0.0102219115942716
0.0097126830369234
0.008950974792242
0.0079046664759516
0.0065624909475445
0.0049385991878807
0.0030713314190506
0.0010185173014178
-0.0011477549560368
-0.003346758428961
-0.0054961685091257
-0.0075195683166384
-0.0093512292951345
-0.0109371040016412
-0.0122350119054317
-0.0132161118090152
-0.0138665772974491
-0.0141886947676539
-0.0142013989388942
-0.0139383068308234
-0.0134422909468412
-0.0127595355734229
-0.0119343278929591
-0.0110039394348859
-0.0099960304796695
-0.0089299157261848
-0.0078188804909586
-0.0066715395078063
-0.0054931123740971
-0.0042875702492892
-0.0030601969920098
-0.0018185928929597
-0.0005713599966838
0.0006729084998369
0.0019053721334785
0.0031169564463198
0.0042983372695744
0.0054401978850364
0.0065346844494342
0.0075763161294162
0.0085616884753108
0.0094899134710431
0.0103627890348434
0.0111819878220558
0.0119446841999888
0.0126402880996465
0.0132476696744561
0.0137324091047048
0.0140472054481506
0.0141381416469812
0.0139549644663929
0.0134625127539038
0.0126500278711318
0.011533809825778
0.0101535711437463
0.008567065000534
0.0068447994999587
0.0050638956017792
0.0033002360723912
0.0016211713664233
8.195638656616211e-05
-0.0012755952775478
-0.0024244091473519
-0.0033526974730193
-0.0040632649324834
-0.0045716180466115
-0.0049032382667064
-0.0050898543559014
-0.005164329893887
-0.0051562711596488
-0.0050900671631097
-0.0049835406243801
-0.0048464154824614
-0.004680769983679
-0.0044835740700364
-0.004249173682183
-0.0039712977595627
-0.0036451299674808
-0.0032689259387552
-0.0028443126939237
-0.0023758863098919
-0.0018709171563386
-0.0013387501239776
-0.0007903352379798
-0.0002388413995504
0.0003002537414431
0.00081124342978
0.0012804241850972
0.001697071827948
0.0020548151805996
0.0023525450378656
0.0025915335863828
0.0027690846472978
0.0028726467862725
0.0028773332014679
0.0027475440874695
0.0024423766881227
0.0019228905439376
0.0011595217511057
0.000139738433063
-0.0011263182386755
-0.0026056664064526
-0.0042463969439268
-0.0059827556833624
-0.0077422130852937
-0.0094545353204011
-0.0110587663948535
-0.0125049529597163
-0.0137525098398327
-0.0147697236388921
-0.0155353490263223
-0.0160391870886087
-0.0162817649543285
-0.0162753649055957
-0.0160438697785139
-0.0156190078705549
-0.0150352604687213
-0.0143261151388287
-0.0135223045945167
-0.0126509265974164
-0.0117341941222548
-0.01078812032938
-0.0098220650106668
-0.0088401436805725
-0.0078441658988595
-0.0068356236442923
-0.0058160196058452
-0.0047870720736682
-0.0037517016753554
-0.002715774346143
-0.0016890810802578
-0.0006839889101684
0.0002865302376449
0.0012099023442715
0.0020751163829118
0.0028740325942635
0.0036021866835653
0.0042591616511344
0.0048474408686161
0.0053699612617492
0.0058282706886529
0.0062198424711823
0.0065327351912856
0.0067418375983834
0.006810825318098
0.0066976458765566
0.0063613066449761
0.0057699875906109
0.0049083409830927
0.0037819277495145
0.0024190244730561
0.000869586598128
-0.0007991514867171
-0.0025100694037973
-0.0041848616674542
-0.0057516251690685
-0.0071505471132695
-0.0083373095840215
-0.0092830043286085
-0.0099722724407911
-0.0104023413732647
-0.0105824777856469
-0.0105325961485505
-0.0102798631414771
-0.009854232892394
-0.0092853745445609
-0.0086007770150899
-0.0078247375786304
-0.0069783674553036
-0.0060792490839958
-0.0051402836106717
-0.0041687688790261
-0.0031674169003963
-0.0021371152251958
-0.0010792622342705
2.614222466945648e-06
0.0011019273661077
0.0022094920277595
0.0033143130131065
0.004404277075082
0.0054680313915014
0.0064971167594194
0.0074865235947072
0.008434428833425
0.0093412287533283
0.0102069582790136
0.0110299605876207
0.0118090724572539
0.0125465644523501
0.0132485870271921
0.0139208370819687
0.0145604694262146
0.0151494843885302
0.0156524218618869
0.0160185117274522
0.0161883756518363
0.0161030851304531
0.0157129745930433
0.0149862021207809
0.0139162205159664
0.0125249158591032
0.0108594205230474
0.0089852074161171
0.0069799819029867
0.0049292552284896
0.0029220771975815
0.0010468098334968
-0.0006131520494818
-0.0019855638965964
-0.0030173077248036
-0.0036806464195251
-0.0039759948849678
-0.0039320434443652
-0.0036032940261065
-0.0030639749020338
-0.0023982832208275
-0.0016887295059859
-0.0010053124278783
-0.0003983057104051
0.000103882048279
0.0004921024665236
0.0007712533697485
0.0009559988975524
0.0010687178000807
0.001137439161539
0.0011919557582587
0.0012592785060405
0.0013607596047222
0.0015106706414371
0.0017150528728961
0.0019719514530152
0.0022734580561518
0.0026088897138834
0.002968760440126
0.0033471803180873
0.0037409781944006
0.0041480050422251
0.0045667402446269
0.0049954266287386
0.0054278699681162
0.0058470116928219
0.006221042945981
0.0065050097182393
0.0066485945135355
0.0066082058474421
0.0063577657565474
0.0058936835266649
0.0052337101660668
0.0044120666570961
0.0034731240011751
0.002464628778398
0.0014320404734462
0.0004158701049163
-0.0005481853149831
-0.0014284161152318
-0.0021966397762298
-0.0028277442324906
-0.0033005475997924
-0.0036014716606587
-0.0037288141902536
-0.003694490995258
-0.0035226317122578
-0.0032457138877362
-0.0029000607319176
-0.0025221880059689
-0.0021456095855683
-0.0017989040352404
-0.0015061774756759
-0.0012870233040302
-0.0011525717563927
-0.0011001140810549
-0.0011119884438812
-0.0011596444528549
-0.0012093519326299
-0.0012281034141778
-0.0011895704083144
-0.0010779246222227
-0.0008883234113454
-0.0006256443448364
-0.0003018365241587
6.885314360260963e-05
0.0004748343490064
0.0009097279980778
0.0013710572384297
0.0018544006161391
0.0023452048189938
0.0028126607649028
0.0032093096524477
0.0034775822423398
0.003560357261449
0.0034106490202248
0.0029990384355187
0.002318815793842
0.0013868384994566
0.0002407375723123
-0.0010645105503499
-0.0024608992971479
-0.0038740634918212
-0.0052306521683931
-0.0064648650586605
-0.0075245266780257
-0.0083753988146781
-0.0090023977681994
-0.0094086723402142
-0.0096128908917307
-0.0096445987001061
-0.0095388581976294
-0.0093311313539743
-0.0090534854680299
-0.0087328981608152
-0.0083897029981017
-0.0080357491970062
-0.0076745529659092
-0.0073034763336181
-0.0069169397465884
-0.0065089026466012
-0.0060725035145878
-0.0055990270338952
-0.0050799674354493
-0.0045113847590982
-0.0038964506238698
-0.0032445613760501
-0.0025688095483928
-0.001882825512439
-0.0011977017857134
-0.0005211795214563
0.0001398436725139
0.0007740808650851
0.0013605293352156
0.0018664307426661
0.0022479556500911
0.0024521090090274
0.002421956975013
0.0021066565532237
0.0014728168025612
0.0005120406858623
-0.0007570004090666
-0.0022907622624188
-0.0040258634835481
-0.005885602440685
-0.0077870837412774
-0.0096484087407588
-0.0113950176164507
-0.0129645811393857
-0.0143099874258041
-0.0154000464826822
-0.0162186678498983
-0.0167632084339857
-0.0170412380248308
-0.017066229134798
-0.0168550722301006
-0.0164282321929931
-0.0158094651997089
-0.0150229651480913
-0.014089522883296
-0.0130243171006441
-0.0118371658027172
-0.0105341747403144
-0.0091201113536953
-0.007602110505104
-0.005993622355163
-0.0043156137689948
-0.002594394609332
-0.0008574156090617
0.0008708955720067
0.0025712484493851
0.0042296657338738
0.0058364206925034
0.0073836632072925
0.0088634565472602
0.0102678686380386
0.0115897376090288
0.012822643853724
0.0139585267752408
0.0149819198995828
0.0158638097345829
0.0165590327233076
0.0170083921402692
0.0171460732817649
0.0169125963002443
0.0162690486758947
0.0152060249820351
0.0137462737038731
0.0119435219094157
0.0098779341205954
0.0076480628922581
0.005360348150134
0.0031190626323223
0.0010191034525632
-0.0008584195747971
-0.002448258921504
-0.0037022568285465
-0.0045910105109214
-0.0051047038286924
-0.0052519682794809
-0.0050574634224176
-0.004559563472867
-0.0038081426173448
-0.0028607733547687
-0.0017767790704965
-0.0006105136126279
0.000593738630414
0.0018043685704469
0.0030034808441996
0.0041854688897728
0.0053521776571869
0.0065070334821939
0.0076510431244969
0.0087822619825601
0.0098974760621786
0.0109932729974389
0.0120661128312349
0.0131121482700109
0.0141270728781819
0.0151059245690703
0.0160422325134277
0.0169267188757658
0.0177467204630374
0.0184876304119825
0.0191362276673316
0.0196818448603153
0.020112007856369
0.0204053781926631
0.0205268152058124
0.0204269867390394
0.0200469102710485
0.0193262621760368
0.0182138942182064
0.0166788175702095
0.0147190513089299
0.012366009876132
0.0096833063289523
0.0067607229575514
0.0037052689585834
0.0006305703427642
-0.0023529487662017
-0.0051447325386106
-0.007659145630896
-0.0098299719393253
-0.0116129834204912
-0.0129864951595664
-0.0139506440609693
-0.0145253334194421
-0.0147465579211711
-0.0146615747362375
-0.0143236303701996
-0.0137860961258411
-0.0130966519936919
-0.0122936405241489
-0.0114055555313825
-0.010452358983457
-0.0094469124451279
-0.008396515622735
-0.007305500563234
-0.0061784167774021
-0.0050219278782606
-0.0038447172846645
-0.0026568833272904
-0.0014695953577756
-0.0002937926910817
0.0008611315861344
0.0019866286311298
0.0030735542532056
0.0041119260713458
0.0050920834764838
0.0060065928846597
0.0068514100275933
0.0076253246515989
0.0083285244181752
0.0089612994343042
0.0095229065045714
0.0100095765665173
0.0104105006903409
0.0107029397040605
0.0108486115932464
0.0107931969687342
0.0104716327041387
0.0098193921148777
0.0087860524654388
0.0073469243943691
0.005509624723345
0.0033150566741824
0.0008344990201294
-0.0018359031528234
-0.0045836344361305
-0.0072908187285065
-0.0098445694893598
-0.0121455546468496
-0.0141157479956746
-0.0157035235315561
-0.0168839432299137
-0.0176555756479501
-0.0180368460714817
-0.0180632229894399
-0.0177834872156381
-0.017254039645195
-0.0165329333394765
-0.0156744997948408
-0.014724395237863
-0.0137153072282671
-0.0126645695418119
-0.0115756578743457
-0.0104426620528101
-0.0092552956193685
-0.0080037293955683
-0.0066827917471528
-0.0052935006096959
-0.0038412492722272
-0.0023338221944868
-0.0007814501295797
0.0008022921392694
0.0024001188576221
0.0039917100220918
0.0055548450909554
0.007066526915878
0.0085055762901902
0.0098563572391867
0.0111100599169731
0.0122629357501864
0.0133136613294482
0.0142604308202862
0.015097040683031
0.0158070065081119
0.0163576174527406
0.0166991110891103
0.0167706776410341
0.0165108889341354
0.0158707331866025
0.014825165271759
0.013378582894802
0.0115656815469264
0.0094501199200749
0.0071190884336829
0.0046733357012271
0.0022166641429066
-0.0001520374789834
-0.0023447219282388
-0.0042889458127319
-0.0059308474883437
-0.0072360606864094
-0.0081896018236875
-0.0087959291413426
-0.0090784132480621
-0.009076103568077
-0.0088384067639708
-0.0084203043952584
-0.0078786509111523
-0.0072676967829465
-0.00663298740983
-0.0060064089484512
-0.0054050595499575
-0.0048333830200135
-0.0042871804907917
-0.0037576779723167
-0.0032338593155145
-0.0027040103450417
-0.0021582711488008
-0.0015912782400846
-0.0010029608383774
-0.0003975545987486
0.0002174507826566
0.000831089913845
0.0014284718781709
0.0019925469532608
0.0025082137435674
0.0029665865004062
0.0033674305304884
0.0037178052589297
0.004026067443192
0.0042932657524943
0.0045048939064145
0.0046262526884675
0.0046050874516367
0.004380946047604
0.0038966424763202
0.0031090136617422
0.0019978191703557
0.0005708094686269
-0.0011360337957739
-0.0030616549775004
-0.0051257694140076
-0.0072374464944005
-0.0093042906373739
-0.0112406760454177
-0.0129746608436107
-0.0144526176154613
-0.015641326084733
-0.016527485102415
-0.017115194350481
-0.0174219347536563
-0.0174729414284229
-0.01729635335505
-0.0169217269867658
-0.0163805969059467
-0.0157054141163826
-0.0149257220327854
-0.0140649434179067
-0.013139764778316
-0.0121605992317199
-0.0111325122416019
-0.0100564416497945
-0.0089311450719833
-0.0077566038817167
-0.0065366220660507
-0.0052782166749238
-0.0039895307272672
-0.0026801310013979
-0.0013633191119879
-5.615781992673874e-05
0.0012228251434862
0.0024551104288548
0.0036237551830708
0.0047160144895315
0.0057239430025219
0.0066428268328309
0.0074708620086312
0.0082094445824623
0.0088601931929588
0.0094187073409557
0.0098692886531353
0.0101829534396529
0.010318387299776
0.0102265952154994
0.0098599027842283
0.0091832745820283
