bvp
-0.0181277506053447
-0.0144784534350037
-0.0108582656830549
-0.0073559843003749
-0.0040231961756944
-0.000877721235156
0.0020909802988171
0.004915377125144
0.0076417373493313
0.0103190103545784
0.0129871945828199
0.0156693886965513
0.0183689128607511
0.0210702065378427
0.023742027580738
0.0263423919677734
0.0288244169205427
0.0311414636671543
0.0332512818276882
0.0351201593875885
0.0367252305150032
0.0380513221025466
0.039081797003746
0.039783738553524
0.0400899499654769
0.0398873761296272
0.0390233695507049
0.0373322516679763
0.0346737913787364
0.0309715308248996
0.0262409932911396
0.0206010155379772
0.0142669631168246
0.0075290501117706
0.0007201675325632
-0.005822361446917
-0.0117944497615098
-0.0169519707560539
-0.0211220905184745
-0.0242053307592868
-0.026173572987318
-0.0270632859319448
-0.0269649364054203
-0.0260125212371349
-0.0243729799985885
-0.0222309827804565
-0.0197695922106504
-0.0171526931226253
-0.0145124159753322
-0.0119415372610092
-0.0094908894971013
-0.0071712546050548
-0.0049597481265664
-0.0028111988212913
-0.0006731362082064
0.0014991573989391
0.0037309625186026
0.0060214032419025
0.0083420649170875
0.0106400838121771
0.0128450226038694
0.0148800127208232
0.0166748203337192
0.018176220357418
0.0193545278161764
0.0202066116034984
0.0207534842193126
0.0210320111364126
0.0210835877805948
0.0209407564252614
0.0206110104918479
0.0200619585812091
0.0192154347896575
0.0179545655846595
0.016144135966897
0.0136615186929702
0.0104298274964094
0.0064440555870532
0.0017844624817371
-0.0033867321908473
-0.0088449697941541
-0.014332084916532
-0.0195865482091903
-0.0243705287575721
-0.0284887813031673
-0.0317967273294925
-0.0342006906867027
-0.0356552563607692
-0.0361612364649772
-0.0357643961906433
-0.0345526300370693
-0.0326501950621604
-0.0302080623805522
-0.0273900665342807
-0.0243574026972055
-0.0212539918720722
-0.0181935243308544
-0.0152502572163939
-0.0124567914754152
-0.0098099941387772
-0.0072824452072381
-0.0048362743109464
-0.0024377219378948
-6.912834942340851e-05
0.0022652260959148
0.0045398455113172
0.0067140366882085
0.0087406355887651
0.010573610663414
0.0121726281940937
0.0135054215788841
0.0145496521145105
0.0152953993529081
0.0157464332878589
0.0159180723130702
0.0158307962119579
0.0154989026486873
0.0149164628237485
0.0140465199947357
0.0128205008804798
0.011151410639286
0.0089560970664024
0.0061797630041837
0.0028180945664644
-0.0010695587843656
-0.0053609255701303
-0.0098828207701444
-0.0144299510866403
-0.0187874380499124
-0.0227522607892751
-0.0261492282152175
-0.0288408882915973
-0.0307324957102537
-0.0317737460136413
-0.0319594033062458
-0.0313288606703281
-0.0299635659903287
-0.0279821306467056
-0.0255310535430908
-0.0227696988731622
-0.0198531970381736
-0.0169177167117595
-0.0140704121440649
-0.0113852992653846
-0.0089033599942922
-0.0066347876563668
-0.0045649148523807
-0.0026644486933946
-0.0009003188461065
0.0007568560540676
0.0023284386843442
0.0038246102631092
0.0052433870732784
0.0065720938146114
0.0077895559370517
0.0088703483343124
0.0097923744469881
0.010543605312705
0.0111236497759819
0.0115401297807693
0.0118008777499198
0.0119030307978391
0.0118221044540405
0.0115057304501533
0.0108765512704849
0.0098456721752882
0.0083328858017921
0.0062877442687749
0.0037073884159326
0.0006476156413555
-0.0027770409360527
-0.0064051318913698
-0.0100481677800416
-0.0135126058012247
-0.0166192445904016
-0.0192178785800933
-0.0211964193731546
-0.0224854219704866
-0.0230605602264404
-0.0229432955384254
-0.0221970193088054
-0.0209186393767595
-0.0192290991544723
-0.0172627512365579
-0.0151534639298915
-0.0130218025296926
-0.0109673589468002
-0.0090627186000347
-0.0073480289429426
-0.0058304104022681
-0.0044892714358866
-0.0032854084856808
-0.0021712477318942
-0.0010991662275046
-2.7241301722824574e-05
0.0010762705933302
0.0022300973068922
0.0034393817186355
0.0046962271444499
0.0059805009514093
0.0072616972029209
0.0085034146904945
0.0096704242751002
0.0107347145676612
0.0116771245375275
0.0124855479225516
0.0131507208570837
0.0136584369465708
0.0139797553420066
0.0140648949891328
0.0138456914573907
0.0132464943453669
0.0122003853321075
0.0106662902981042
0.0086421994492411
0.0061727128922939
0.0033499980345368
0.0003058509901165
-0.0028039570897817
-0.005816837772727
-0.0085782222449779
-0.0109540596604347
-0.0128390211611986
-0.0141599075868725
-0.0148776248097419
-0.0149877304211258
-0.0145174581557512
-0.0135214636102318
-0.01207812782377
-0.010284325107932
-0.0082469703629612
-0.0060717165470123
-0.0038521168753504
-0.0016632480546832
0.0004401812329888
0.0024229139089584
0.0042673898860812
0.0059725539758801
0.0075512323528528
0.0090241841971874
0.0104132276028394
0.0117366071790456
0.0130069460719823
0.0142304114997386
0.0154056828469038
0.0165236257016658
0.0175692532211542
0.0185242053121328
0.0193693023175001
0.0200882591307163
0.020670274272561
0.0211099050939083
0.0214062482118606
0.021563122048974
0.021588621661067
0.0214907228946685
0.0212690439075231
0.0209057740867137
0.0203592739999294
0.01956457644701
0.0184424147009849
0.0169145986437797
0.0149229234084486
0.0124475266784429
0.0095191607251763
0.0062215230427682
0.002683350816369
-0.0009371377527713
-0.0044715236872434
-0.0077598011121153
-0.0106651848182082
-0.0130828265100717
-0.0149415424093604
-0.0162021368741989
-0.0168558321893215
-0.0169230662286281
-0.0164524503052234
-0.0155178532004356
-0.0142109869047999
-0.0126310372725129
-0.0108758546411991
-0.0090365819633007
-0.0071925250813364
-0.0054050767794251
-0.0037146275863051
-0.0021416116505861
-0.0006893528625369
0.0006521567702293
0.0019013341516256
0.0030795531347393
0.0042065288871526
0.0052970759570598
0.0063595352694392
0.0073960935696959
0.0084034353494644
0.0093727903440594
0.0102901561185717
0.0111368903890252
0.0118913408368825
0.0125321205705404
0.0130414050072431
0.0134075470268726
0.0136279901489615
0.0137108778581023
0.0136730410158634
0.0135350413620471
0.0133146736770868
0.0130195636302232
0.0126387998461723
0.0121348928660154
0.0114410445094108
0.0104679558426141
0.0091197919100523
0.0073142917826771
0.0050006611272692
0.0021727876737713
-0.0011220038868486
-0.0047804974019527
-0.0086510628461837
-0.0125512760132551
-0.0162908993661403
-0.0196943767368793
-0.0226174257695674
-0.0249552279710769
-0.0266445912420749
-0.0276621058583259
-0.0280194263905286
-0.0277586970478296
-0.026949131861329
-0.0256828498095273
-0.0240676589310169
-0.0222167149186134
-0.0202385243028402
-0.0182278044521808
-0.0162560604512691
-0.0143660483881831
-0.0125732608139514
-0.0108708022162318
-0.0092347236350178
-0.0076311379671096
-0.0060246475040912
-0.0043842354789376
-0.002686615101993
-0.0009199241176247
0.0009132446721196
0.0027960147708654
0.0047000171616673
0.0065892543643713
0.0084240837022662
0.0101645868271589
0.0117736663669347
0.0132207265123724
0.0144857037812471
0.0155618796125054
0.0164561904966831
0.0171871837228536
0.0177808105945587
0.0182643551379442
0.0186594575643539
0.018973795697093
0.0191912837326526
0.0192629881203174
0.019102931022644
0.0185940712690353
0.0176062379032373
0.0160218626260757
0.0137626249343156
0.0108096543699502
0.0072130989283323
0.0030918437987565
-0.0013758204877376
-0.0059710647910833
-0.0104603860527277
-0.0146215055137872
-0.0182622987776994
-0.021231509745121
-0.0234250146895647
-0.0247903335839509
-0.0253286194056272
-0.0250922460108995
-0.0241775512695312
-0.022713428363204
-0.0208466965705156
-0.0187256727367639
-0.0164841320365667
-0.01422930508852
-0.0120364837348461
-0.0099488552659749
-0.007979717105627
-0.0061161424964666
-0.0043250266462564
-0.0025613047182559
-0.0007765144109725
0.001072647050023
0.0030165761709213
0.0050687137991189
0.0072251241654157
0.0094648161903023
0.0117513444274663
0.0140378894284367
0.01627435721457
0.0184134151786565
0.0204144734889268
0.0222465489059686
0.023890508338809
0.02534013800323
0.0266012661159038
0.0276884697377681
0.0286180712282657
0.0293942466378211
0.0299890507012605
0.0303257517516613
0.0302762947976589
0.0296767987310886
0.0283565185964107
0.0261717103421688
0.0230380911380052
0.0189564414322376
0.0140248322859406
0.0084338318556547
0.0024463343434035
-0.0036326902918517
-0.0094895176589488
-0.0148323997855186
-0.0194166861474514
-0.0230627469718456
-0.0256655327975749
-0.0271961111575365
-0.0276973377913236
-0.027275176718831
-0.0260858535766601
-0.0243182834237813
-0.0221717804670333
-0.0198327749967575
-0.0174570828676223
-0.0151605419814586
-0.0130154937505722
-0.0110505893826484
-0.0092542571946978
-0.0075822314247488
-0.0059680491685867
-0.0043360376730561
-0.0026156390085816
-0.0007531698793172
0.0012810602784156
0.003489407710731
0.0058479188010096
0.0083113592118024
0.0108193755149841
0.0133032221347093
0.0156942717730999
0.0179327651858329
0.0199739895761013
0.0217911191284656
0.0233753249049186
0.0247327219694852
0.0258773975074291
0.0268204137682914
0.0275542549788951
0.028033297508955
0.0281573012471199
0.027770297601819
0.0266801938414573
0.0246930830180645
0.0216539185494184
0.0174855999648571
0.0122175328433513
0.0059975222684443
-0.0009152782149612
-0.0081763714551925
-0.0153963528573513
-0.0221869945526123
-0.0282037649303674
-0.0331770256161689
-0.0369279645383358
-0.039371158927679
-0.0405086427927017
-0.0404193624854087
-0.0392447039484977
-0.037170622497797
-0.0344088375568389
-0.0311787649989128
-0.0276893489062786
-0.0241209343075752
-0.0206112321466207
-0.0172487646341323
-0.0140733513981103
-0.0110819395631551
-0.0082382336258888
-0.0054850270971655
-0.0027586054056882
-3.003980964422226e-06
0.002819555113092
0.0057234726846218
0.0086984606459736
0.0117113329470157
0.0147113241255283
0.0176381841301918
0.0204304326325655
0.0230310838669538
0.0253913104534149
0.0274741146713495
0.0292572099715471
0.0307337902486324
0.0319119319319725
0.0328124053776264
0.033463466912508
0.0338916629552841
0.034107755869627
0.0340880751609802
0.0337565094232559
0.032976858317852
0.0315630137920379
0.0293086841702461
0.0260319598019123
0.0216222032904624
0.0160755775868892
0.0095120258629322
0.0021716151386499
-0.0056092254817485
-0.0134369228035211
-0.0209068208932876
-0.0276475436985492
-0.0333567596971988
-0.0378230549395084
-0.0409320257604122
-0.0426604524254798
-0.0430656634271144
-0.042273212224245
-0.0404622480273246
-0.0378472581505775
-0.0346565134823322
-0.0311117023229599
-0.027411937713623
-0.0237208399921655
-0.0201573390513658
-0.0167924016714096
-0.0136516327038407
-0.0107223745435476
-0.0079642636701464
-0.0053221080452203
-0.0027384608983993
-0.0001635272055864
0.0024372031912207
0.0050778212025761
0.0077506313100457
0.0104281157255172
0.013067465275526
0.0156168509274721
0.01802209764719
0.0202327892184257
0.0222065933048725
0.0239112079143524
0.0253252238035202
0.0264386907219886
0.0272535681724548
0.027784414589405
0.0280565544962883
0.028098214417696
0.0279264822602272
0.0275287237018346
0.0268450565636158
0.0257621947675943
0.0241255164146423
0.0217675995081663
0.0185456629842519
0.0143786054104566
0.0092754140496253
0.0033491123467683
-0.0031862873584032
-0.0100362319499254
-0.0168600864708423
-0.0233114361763
-0.029076162725687
-0.0339024439454078
-0.0376176089048385
-0.0401320867240428
-0.0414360947906971
-0.0415916442871093
-0.040719024837017
-0.0389794372022151
-0.0365582183003425
-0.0336506962776184
-0.0304481908679008
-0.0271228775382041
-0.0238152500241994
-0.0206269398331642
-0.0176184084266424
-0.0148115279152989
-0.0121959298849105
-0.009737467393279
-0.007389348000288
-0.0051041999831795
-0.0028425259515643
-0.0005769142881035
0.0017050756141543
0.0039995983242988
0.0062883514910936
0.0085413735359907
0.0107189174741506
0.0127741042524576
0.0146580766886472
0.0163268353790044
0.0177473127841949
0.0189007669687271
0.0197835676372051
0.0204062573611736
0.0207912921905517
0.0209692455828189
0.0209728647023439
0.0208284351974725
0.02054363489151
0.0200930628925561
0.0194077361375093
0.0183762852102518
0.0168604161590337
0.0147217214107513
0.0118535254150629
0.0082094836980104
0.0038230307400226
-0.0011849999427795
-0.0066138990223407
-0.012205671519041
-0.0176758375018835
-0.0227454416453838
-0.0271701272577047
-0.0307611413300037
-0.0333955883979797
-0.0350188612937927
-0.0356418974697589
-0.0353335849940776
-0.0342092998325824
-0.0324170589447021
-0.030122336000204
-0.0274930149316787
-0.0246863365173339
-0.0218379516154527
-0.0190525874495506
-0.0163981337100267
-0.01390525046736
-0.0115719251334667
-0.0093718189746141
-0.0072649642825126
-0.0052078729495406
-0.0031609288416802
-0.001093550119549
0.0010120568331331
0.0031590270809829
0.0053357295691967
0.0075168265029788
0.0096661215648055
0.0117413029074668
0.0136999934911727
0.0155060840770602
0.0171330422163009
0.0185635741800069
0.0197898782789707
0.0208147447556257
0.021650331094861
0.022315414622426
0.0228319447487592
0.0232190284878015
0.0234838034957647
0.0236104242503643
0.0235503502190113
0.0232200920581817
0.0225115418434143
0.0213137865066528
0.0195399150252342
0.017150979489088
0.0141710443422198
0.0106910513713955
0.0068617034703493
0.0028769485652446
-0.0010484177619218
-0.0047023398801684
-0.0078960433602333
-0.0104804942384362
-0.0123587734997272
-0.0134922945871949
-0.0139005538076162
-0.0136559680104255
-0.0128738712519407
-0.0116977905854582
-0.0102815926074981
-0.0087716719135642
-0.0072924150153994
-0.0059354887343943
-0.0047545060515403
-0.00376717466861
-0.0029614139348268
-0.0023013683967292
-0.0017339852638542
-0.0011978817638009
-0.0006344902794808
1.975568011403084e-06
0.0007399604655802
0.0015904987230896
0.0025482310447841
0.0035929444711655
0.0046925600618124
0.005808119662106
0.0068997088819742
0.007930738851428
0.0088706174865365
0.0096974149346351
0.010400004684925
0.0109785590320825
0.0114423632621765
0.0118044950067996
0.0120735485106706
0.0122423432767391
0.0122763700783252
0.0121079571545124
0.0116415955126285
0.0107710370793938
0.0094029260799288
0.0074802013114094
0.0049997959285974
0.0020211180672049
-0.0013366853818297
-0.0049080573953688
-0.0085006318986415
-0.0119165573269128
-0.0149726532399654
-0.0175168998539447
-0.0194398425519466
-0.02068199403584
-0.0212385412305593
-0.0211589820683002
-0.0205383785068988
-0.019501943141222
-0.0181883983314037
-0.0167345814406871
-0.015260606072843
-0.0138580743223428
-0.0125847086310386
-0.0114641226828098
-0.0104885343462228
-0.0096248146146535
-0.0088240727782249
-0.0080323331058025
-0.0071998154744505
-0.0062879752367734
-0.0052727526053786
-0.0041444348171353
-0.0029069469310343
-0.0015768727753311
-0.000181041075848
0.0012472192756831
0.0026720496825873
0.0040579894557595
0.0053724283352494
0.0065887812525033
0.0076893670484423
0.0086666392162442
0.0095225907862186
0.0102653726935386
0.0109013589099049
0.0114223789423704
0.0117918057367205
0.0119374170899391
0.0117572778835892
0.0111378617584705
0.0099786575883626
0.0082167899236083
0.0058461520820856
0.0029262159951031
-0.0004208345199003
-0.0040217153728008
-0.0076709408313035
-0.0111551228910684
-0.0142768528312444
-0.0168739408254623
-0.0188318379223346
-0.0200880076736211
-0.0206300634890794
-0.0204908307641744
-0.0197424702346324
-0.0184890702366828
-0.0168555732816457
-0.0149734932929277
-0.0129664745181798
-0.0109392376616597
-0.0089711444452404
-0.0071136150509119
-0.0053905826061964
-0.003801398910582
-0.0023257238790392
-0.0009298743680119
0.0004257829859852
0.0017797844484448
0.0031649256125092
0.0046055344864726
0.0061142276972532
0.0076885819435119
0.0093112410977482
0.010954332537949
0.0125841805711388
0.0141644347459077
0.0156600102782249
0.0170416012406349
0.0182881839573383
0.0193874705582857
0.0203360524028539
0.0211390983313322
0.021805927157402
0.0223392620682716
0.0227217338979244
0.0229047425091266
0.0228043608367443
0.0223084539175033
0.0212947465479373
0.0196555275470018
0.0173238031566143
0.0142940925434231
0.0106319598853588
0.0064716986380517
0.002004113048315
-0.0025442726910114
-0.0069379471242427
-0.0109594771638512
-0.0144304269924759
-0.0172222573310136
-0.0192579925060272
-0.0205094199627637
-0.0209938697516918
-0.0207701735198497
-0.019931323826313
-0.0185934975743293
-0.0168840084224939
-0.0149299604818224
-0.0128472512587904
-0.0107314474880695
-0.0086526218801736
-0.0066528730094432
-0.0047464109957218
-0.0029245447367429
-0.0011641159653663
0.0005650781095027
0.0022943932563066
0.0040497193112969
0.0058457208797335
0.0076843276619911
0.009556733071804
0.0114453043788671
0.0133244916796684
0.0151625489816069
0.0169240739196538
0.0185722578316926
0.0200724340975284
0.0213969331234693
0.0225282069295644
0.023460479453206
0.0242003984749317
0.0247642584145069
0.0251717362552881
0.0254367589950561
0.0255544818937778
0.0254864282906055
0.0251505635678768
0.024423524737358
0.0231573842465877
0.021206809207797
0.0184595603495836
0.0148645639419555
0.0104525489732623
0.0053433780558407
-0.0002631694078445
-0.0061098565347492
-0.0119115663692355
-0.0173874162137508
-0.0222901068627834
-0.0264267064630985
-0.0296679995954036
-0.0319477878510952
-0.0332566350698471
-0.0336342006921768
-0.0331616401672363
-0.0319533608853817
-0.0301470663398504
-0.0278923325240612
-0.0253388416022062
-0.0226249098777771
-0.0198676735162735
-0.0171565823256969
-0.0145499296486377
-0.0120743466541171
-0.009728011675179
-0.0074870800599455
-0.0053141396492719
-0.0031674373894929
-0.0010094558820128
0.0011867498978972
0.0034342985600233
0.0057312198914587
0.0080600585788488
0.0103893969208002
0.0126778380945324
0.014879192225635
0.0169479399919509
0.0188439898192882
0.0205361247062683
0.0220046322792768
0.0232424475252628
0.0242538042366504
0.0250519905239343
0.0256571602076292
0.0260923318564891
0.0263760183006525
0.0265109594911336
0.0264701973646879
0.0261855442076921
0.025544635951519
0.0244009811431169
0.0225979443639516
0.0200011357665061
0.0165306478738784
0.0121864713728427
0.0070615066215395
0.0013388590887188
-0.0047262581065297
-0.0108373090624809
-0.0166933089494705
-0.0220221169292926
-0.0266029648482799
-0.0302774757146835
-0.0329525582492351
-0.0345974788069725
-0.0352374650537967
-0.0349467732012271
-0.033840637654066
-0.0320641174912452
-0.0297789387404918
-0.027149811387062
-0.0243304297327995
-0.0214505977928638
-0.0186075493693351
-0.0158639177680015
-0.0132512664422392
-0.0107750762253999
-0.0084198536351323
-0.0061562415212392
-0.0039495360106229
-0.0017675491981208
0.0004132695030421
0.002604498527944
0.0048049609176814
0.0070019708946347
0.0091741569340229
0.011294019408524
0.0133297843858599
0.0152479913085699
0.0170160178095102
0.0186032578349113
0.019983235746622
0.021137798205018
0.0220605377107858
0.0227577220648527
0.0232470761984586
0.0235541407018899
0.0237059611827135
0.023721870034933
0.0236004255712032
0.023304708302021
0.0227532889693975
0.0218240730464458
0.020372238010168
0.018257986754179
0.0153781734406948
0.0116951065137982
0.0072553576901555
0.0021936735138297
-0.0032783267088234
-0.0088957212865352
-0.0143718495965003
-0.0194318778812885
-0.0238407347351312
-0.0274203121662139
-0.0300569552928209
-0.0317026525735855
-0.0323705449700355
-0.0321262180805206
-0.0310784988105297
-0.029369568452239
-0.0271619148552417
-0.0246228352189064
-0.0219089929014444
-0.0191532596945762
-0.0164558328688144
-0.013879906386137
-0.0114520657807588
-0.0091681070625782
-0.0070018386468291
-0.0049133077263832
-0.0028567425906658
-0.0007894829614087
0.0013187376316636
0.0034783568698912
0.0056781284511089
0.0078899273648858
0.0100754555314779
0.0121905636042356
0.0141887236386537
0.0160257183015346
0.0176646746695041
0.019081087782979
0.0202667005360126
0.0212288741022348
0.0219857338815927
0.0225613284856081
0.022982059046626
0.0232722982764244
0.0234475694596767
0.0235044173896312
0.0234090127050876
0.0230909250676631
0.0224468484520912
0.0213550683110952
0.0196988508105278
0.0173930283635854
0.0144071634858846
0.0107809407636523
0.0066279768943786
0.0021263360977172
-0.0025012642145156
-0.007013289257884
-0.011176973581314
-0.0147918257862329
-0.0177054274827241
-0.0198220051825046
-0.021104734390974
-0.0215736124664545
-0.021300982683897
-0.0204028729349374
-0.0190246067941188
-0.0173243843019008
-0.0154583323746919
-0.0135666569694876
-0.011761694215238
-0.0101206917315721
-0.0086837094277143
-0.0074551254510879
-0.0064090862870216
-0.0054991599172353
-0.0046697724610567
-0.003866858780384
-0.0030456939712166
-0.0021749297156929
-0.0012385658919811
-0.0002371603623032
0.0008129617199301
0.0018837582319974
0.0029417108744382
0.0039528254419565
0.0048848465085029
0.0057093249633908
0.0064050322398543
0.0069612069055438
0.0073794238269329
0.0076726377010345
0.0078611113131046
0.0079662520438432
0.0080006625503301
0.0079544335603713
0.0077837537974119
0.0074076168239116
0.0067148972302675
0.0055824164301157
0.0039020106196403
0.0016085319221019
-0.0013007465749979
-0.004758664406836
-0.0086326207965612
-0.0127402227371931
-0.0168712325394153
-0.0208105519413948
-0.0243603475391864
-0.027358740568161
-0.0296914465725421
-0.0312953442335128
-0.0321570709347724
-0.0323096774518489
-0.0318262204527854
-0.0308090839534997
-0.0293771419674158
-0.0276532042771577
-0.0257521122694015
-0.0237699076533317
-0.0217768922448158
-0.0198168866336345
-0.0179098509252071
-0.0160546358674764
-0.0142338927835226
-0.0124222971498966
-0.0105939200147986
-0.0087258424609899
-0.0068003665655851
-0.0048079057596623
-0.0027487280312925
-0.0006327049341052
0.0015218276530504
0.0036898013204336
0.0058412770740687
0.0079431217163801
0.0099607091397047
0.0118601527065038
0.0136113222688436
0.0151913119480013
0.0165875758975744
0.0177990179508924
0.0188342295587062
0.019706804305315
0.0204267334192991
0.0209878683090209
0.0213550310581922
0.0214581042528152
0.021198097616434
0.0204630382359027
0.0191494636237621
0.0171860177069902
0.014554027467966
0.0112999510020017
0.0075366939418017
0.0034341854043304
-0.000798932975158
-0.0049400934949517
-0.0087783830240368
-0.0121352393180131
-0.0148776024580001
-0.0169218629598617
-0.0182307437062263
-0.0188088696449995
-0.018698813393712
-0.017974853515625
-0.0167341530323028
-0.0150878503918647
-0.013152802363038
-0.0110429860651493
-0.0088609233498573
-0.0066910525783896
-0.0045952890068292
-0.0026098908856511
-0.000745247118175
0.0010105520486831
0.002684966661036
0.0043114330619573
0.0059200106188654
0.0075317528098821
0.0091568222269415
0.0107946507632732
0.0124352741986513
0.0140610905364155
0.0156476777046918
0.0171646606177091
0.0185785815119743
0.0198572594672441
0.0209742691367864
0.0219121258705854
0.022663315758109
0.0232302043586969
0.0236244872212409
0.0238650422543287
0.0239734090864658
0.0239676777273416
0.023855660110712
0.0236269868910312
0.0232448540627956
0.0226408895105123
0.0217169094830751
0.020357271656394
0.0184524301439523
0.0159269198775291
0.0127620240673422
0.0090069863945245
0.0047777853906154
0.0002459038514643
-0.0043804668821394
-0.0088810101151466
-0.0130488229915499
-0.0167098399251699
-0.0197331421077251
-0.0220346301794052
-0.0235774274915456
-0.0243694223463535
-0.0244574546813964
-0.0239194892346858
-0.0228562112897634
-0.0213817730545997
-0.0196137204766273
-0.0176639389246702
-0.0156311802566051
-0.0135954730212688
-0.0116159152239561
-0.0097298631444573
-0.0079518463462591
-0.0062756361439824
-0.0046808402985334
-0.0031401487067341
-0.0016249902546405
-0.0001105871051549
0.0014199097640812
0.0029730326496064
0.0045435666106641
0.0061148218810558
0.0076613575220108
0.0091521050781011
0.0105538330972194
0.0118357688188552
0.0129723940044641
0.0139435715973377
0.0147356856614351
0.0153444427996873
0.0157767105847597
0.0160495713353157
0.0161854289472103
0.0162036679685115
0.0161106847226619
0.0158897582441568
0.0154924858361482
0.0148352645337581
0.0138061270117759
0.0122833577916026
0.0101622035726904
0.0073832427151501
0.0039534005336463
-4.592465120367706e-05
-0.0044637690298259
-0.0090960972011089
-0.0137100853025913
-0.0180707015097141
-0.0219651814550161
-0.0252221971750259
-0.0277223996818065
-0.0293996203690767
-0.0302377734333276
-0.0302673485130071
-0.029559900984168
-0.0282195676118135
-0.0263729002326726
-0.0241575799882411
-0.0217108409851789
-0.0191582236438989
-0.0166028700768947
-0.0141171952709555
-0.0117401359602808
-0.0094810249283909
-0.0073268786072731
-0.0052496008574962
-0.003212965093553
-0.0011805864050984
0.0008762823417782
0.0029733143746852
0.0051102358847856
0.0072714961133897
0.0094313938170671
0.0115601131692528
0.013626841828227
0.0156014468520879
0.0174571182578802
0.0191727504134178
0.0207340437918901
0.0221341885626316
0.0233743526041507
0.0244626998901367
0.0254099573940038
0.0262203477323055
0.0268781036138534
0.027332667261362
0.0274907201528549
0.0272232368588447
0.0263878405094146
0.0248592048883438
0.0225596390664577
0.0194835383445024
0.0157106574624776
0.011404188349843
0.0067927269265055
0.0021415937226265
-0.0022787787020206
-0.006222135387361
-0.0094890464097261
-0.0119397966191172
-0.0134993614628911
-0.0141589399427175
-0.0139742270112037
-0.0130577990785241
-0.0115653714165091
-0.0096778618171811
-0.0075821732170879
-0.0054528396576642
-0.0034354710951447
-0.0016343613388016
-0.0001069334393832
0.0011347030522301
0.0021164170466363
0.0028914432041347
0.0035291486419737
0.0041040461510419
0.0046856231056153
0.0053298864513635
0.0060731191188097
0.0069286189973354
0.007886454463005
0.0089155817404389
0.0099684027954936
0.0109882913529872
0.0119189117103815
0.0127119645476341
0.0133318668231368
0.0137582775205373
0.0139863481745123
0.0140232918784022
0.0138794146478176
0.0135525511577725
0.0130098918452858
0.0121767809614539
0.0109392888844013
0.0091609982773661
0.0067116739228367
0.0035016555339097
-0.0004887878894805
-0.0051931263878941
-0.0104570314288139
-0.0160515755414962
-0.0217000190168619
-0.0271123796701431
-0.0320185758173465
-0.0361930839717388
-0.0394698195159435
-0.0417491421103477
-0.0429979674518108
-0.0432443991303443
-0.0425688698887825
-0.0410929098725318
-0.0389667637646198
-0.036356471478939
-0.0334299728274345
-0.0303431693464517
-0.0272283367812633
-0.0241863168776035
-0.0212824717164039
-0.0185468215495347
-0.015978168696165
-0.0135499350726604
-0.0112171899527311
-0.0089267566800117
-0.0066291727125644
-0.0042885160073637
-0.0018879068084061
0.000569503288716
0.0030630622059106
0.0055593410506844
0.0080175269395113
0.0103935915976762
0.0126434359699487
0.0147270895540714
0.0166135691106319
0.0182836689054965
0.0197298787534236
0.0209535919129848
0.0219576563686132
0.0227329023182392
0.0232415795326232
0.0234049540013074
0.0231032650917768
0.0221915934234857
0.0205286554992198
0.01801105029881
0.0146031910553574
0.0103556336835026
0.0054092900827527
-1.3881945051252842e-05
-0.0056317341513931
-0.0111334202811121
-0.01621750369668
-0.0206251069903373
-0.024159237742424
-0.026692209765315
-0.0281663574278354
-0.0285904593765735
-0.0280331652611494
-0.0266130585223436
-0.0244842879474163
-0.0218195412307977
-0.0187943242490291
-0.0155744152143597
-0.0123043712228536
-0.0090967044234275
-0.0060252733528614
-0.003125281073153
-0.0003992589190602
0.0021736258640885
0.0046282531693577
0.0070052566006779
0.0093428771942853
0.011669578962028
0.0139992823824286
0.0163300912827253
0.0186461545526981
0.0209215022623538
0.0231237933039665
0.0252171773463487
0.0271654017269611
0.0289348140358924
0.0304970722645521
0.0318324007093906
0.0329315066337585
0.0337946563959121
0.034428346902132
0.0348376892507076
0.0350123234093189
0.0349097698926925
0.034445833414793
0.0334983766078949
0.0319246649742126
0.029590617865324
0.026405069977045
0.0223472714424133
0.0174809340387582
0.0119551941752433
0.0059934463351964
-0.0001289823558181
-0.0061140712350606
-0.0116727165877819
-0.0165543220937252
-0.0205679722130298
-0.0235917288810014
-0.0255729425698518
-0.0265243612229824
-0.0265178885310888
-0.0256753023713827
-0.0241551678627729
-0.0221360623836517
-0.0197982173413038
-0.0173069182783365
-0.0147997802123427
-0.0123786339536309
-0.0101065253838896
-0.0080097690224647
-0.0060838446952402
-0.0043013850226998
-0.0026211524382233
-0.0009980804752558
0.0006063436740078
0.0022171144373714
0.0038436716422438
0.0054802424274384
0.0071082026697695
0.0087002040818333
0.0102237556129693
0.0116441436111927
0.0129282623529434
0.0140497777611017
0.0149932242929935
0.0157547295093536
0.0163404308259487
0.0167640149593353
0.017043238505721
0.0171934179961681
0.0172156393527984
0.01708210632205
0.0167261194437742
0.0160437878221273
0.0149090848863124
0.0131980944424867
0.0108164399862289
0.0077241081744432
0.0039531830698251
-0.0003849053755402
-0.0051066493615508
-0.0099782310426235
-0.0147446729242801
-0.0191589929163455
-0.0230068191885948
-0.0261227078735828
-0.0283973030745983
-0.0297787114977836
-0.0302716959267854
-0.0299343150109052
-0.0288695134222507
-0.0272131953388452
-0.025121409446001
-0.0227552205324172
-0.0202635936439037
-0.0177693031728267
-0.0153619721531867
-0.0130978673696517
-0.0110029075294733
-0.0090762926265597
-0.0072954907082021
-0.0056236675009131
-0.0040181400254368
-0.002437672112137
-0.0008481000550091
0.0007731318473815
0.0024336725473403
0.0041253571398556
0.0058261873200535
0.0075044007971882
0.0091238478198647
0.0106498301029205
0.012053539045155
0.0133143085986375
0.0144209116697311
0.015372198075056
0.0161759182810783
0.0168443825095891
0.0173855498433113
0.0177900958806276
0.0180193111300468
0.0180012136697769
0.0176394991576671
0.0168325938284397
0.0154959158971905
0.0135828433558344
0.011101359501481
0.0081217186525464
0.0047731706872582
0.0012318678200244
-0.0022985795512795
-0.0056107947602868
-0.0085153430700302
-0.0108576770871877
-0.012530468404293
-0.0134805813431739
-0.0137111507356166
-0.013279577717185
-0.0122906081378459
-0.0108843483030796
-0.0092202890664339
-0.0074585424736142
-0.005741954781115
-0.0041834637522697
-0.0028588054701685
-0.0018033143132925
-0.0010141311213374
-0.0004578754305839
-8.095428347587585e-05
0.0001793056726455
0.0003838017582893
0.0005839988589286
0.0008187387138605
0.0011129602789878
0.0014769472181797
0.0019069854170084
0.0023868381977081
0.0028899405151605
0.0033833160996437
0.0038319900631904
0.0042038094252347
0.0044758357107639
0.0046386141330003
0.0046939365565776
0.0046480614691972
0.0045038796961307
0.0042522940784692
0.003863351419568
0.003281245008111
0.0024275481700897
0.0012136753648519
-0.0004394594579935
-0.0025796610862016
-0.0052060391753911
-0.0082602361217141
-0.0116272810846567
-0.0151462610810995
-0.0186304245144128
-0.0218912791460752
-0.0247592702507972
-0.0270985774695873
-0.0288157500326633
-0.0298625156283378
-0.0302344728261232
-0.0299667064100503
-0.0291272457689046
-0.0278088152408599
-0.0261193886399269
-0.0241734758019447
-0.0220835953950881
-0.0199503898620605
-0.0178542621433734
-0.015851467847824
-0.0139731746166944
-0.0122267678380012
-0.0105999931693077
-0.0090657053515315
-0.0075869304127991
-0.0061246324330568
-0.0046462183818221
-0.0031309071928262
-0.0015715659828856
2.580336877144873e-05
0.0016437007579952
0.0032552888151258
0.004828147124499
0.006329764612019
0.0077323848381638
0.0090153682976961
0.0101667400449514
0.0111852148547768
0.012079395353794
0.0128623247146606
0.0135446218773722
0.0141275953501462
0.0145949078723788
0.0149049004539847
0.014988231472671
0.0147540559992194
0.0141057912260293
0.0129628423601388
0.0112812286242842
0.0090684108436107
0.0063898162916302
0.003364619333297
0.0001521301455795
-0.0030662743374705
-0.0061074239201843
-0.0088073909282684
-0.0110372230410575
-0.0127089396119117
-0.0137748904526233
-0.014224698767066
-0.0140806790441274
-0.0133930053561925
-0.0122366715222597
-0.0107079651206731
-0.008916069753468
-0.0069706635549664
-0.0049699433147907
-0.0029925163835287
-0.0010942593216896
0.0006910003721714
0.0023485636338591
0.0038795052096247
0.0052976654842495
0.0066258981823921
0.0078910933807492
0.0091193011030554
0.0103327892720699
0.0115480329841375
0.012772524729371
0.0140017718076705
0.0152195608243346
0.0164019297808408
0.0175220649689435
0.0185540243983268
0.0194759014993906
0.0202720575034618
0.0209331158548593
0.02145566791296
0.0218438692390918
0.0221095625311136
0.0222671516239643
0.0223262757062912
0.0222854651510715
0.0221247524023056
0.021797452121973
0.0212276726961135
0.0203185528516769
0.0189687367528677
0.017092116177082
0.0146376136690378
0.0116061829030513
0.0080609591677784
0.0041261771693825
-2.60770320892334e-05
-0.0041967877186834
-0.0081832557916641
-0.0118013015016913
-0.0149025879800319
-0.0173837970942258
-0.0191885530948638
-0.020306047052145
-0.0207677260041236
-0.0206407979130744
-0.0200190618634223
-0.0190125741064548
-0.0177370402961969
-0.0163041241466999
-0.0148130189627408
-0.0133431442081928
-0.0119489403441548
-0.010657925158739
-0.0094719994813203
-0.0083723757416009
-0.0073272762820124
-0.0062987422570586
-0.0052482476457953
-0.0041435295715928
-0.0029647285118699
-0.0017067585140466
-0.0003784047439694
0.0010008290410041
0.002405404113233
0.0038074748590588
0.0051793027669191
0.0064961425960063
0.007738132495433
0.0088900327682495
0.0099408477544784
0.0108840614557266
0.0117176454514265
0.0124437492340803
0.0130677968263626
0.0135945305228233
0.0140190990641713
0.0143156591802835
0.0144277419894933
0.0142647940665483
0.0137093244120478
0.0126354359090328
0.0109345912933349
0.0085419388487935
0.0054564578458666
0.0017506163567304
-0.0024316674098372
-0.006889040581882
-0.0113879898563027
-0.0156932733952999
-0.0195937696844339
-0.0229190289974212
-0.025548055768013
-0.0274120457470417
-0.0284924935549497
-0.028817081823945
-0.0284531954675912
-0.027497686445713
-0.0260650534182786
-0.0242771599441766
-0.0222538653761148
-0.0201026685535907
-0.017909413203597
-0.0157326832413673
-0.0136027298867702
-0.0115247219800949
-0.0094839874655008
-0.0074525829404592
-0.0053981952369213
-0.0032923612743616
-0.0011144075542688
0.0011473298072814
0.0034948252141475
0.0059199482202529
0.0084041003137826
0.0109186200425028
0.0134267397224903
0.0158869624137878
0.0182574801146984
0.0204997770488262
0.0225811451673507
0.0244773011654615
0.026173647493124
0.0276637934148311
0.0289440751075744
0.0300007164478302
0.0307914949953556
0.031231552362442
0.0311929713934659
0.0305214002728462
0.0290653202682733
0.0267095323652029
0.0234060231596231
0.0191964618861675
0.0142196593806147
0.0087018851190805
0.0029334919527173
-0.0027634846046566
-0.008070521056652
-0.0127036124467849
-0.0164362099021673
-0.0191135071218013
-0.0206600576639175
-0.0210829470306634
-0.0204689353704452
-0.0189725346863269
-0.0167957637459039
-0.0141634121537208
-0.0112973786890506
-0.0083928667008876
-0.005600931122899
-0.0030215196311473
-0.0007054470479488
0.0013401433825492
0.0031456155702471
0.0047705145552754
0.006291776895523
0.0077905943617224
0.0093401139602065
0.0109943393617868
0.0127800274640321
0.0146942948922514
0.0167079474776983
0.0187716521322727
0.0208225529640913
0.0227915998548269
0.0246120858937501
0.0262279063463211
0.0275991596281528
0.0287034809589386
0.0295331068336963
0.0300854444503784
0.0303440056741237
0.03025515191257
0.0297126844525337
0.0285588279366493
0.0266042836010456
0.0236644521355628
0.0196039676666259
0.0143791632726788
0.0080674234777688
0.0008743675425648
-0.0068841953761875
-0.0148203112185001
-0.0225207731127738
-0.0295928753912448
-0.0357021540403366
-0.0405969023704528
-0.0441190414130687
-0.0462051182985305
-0.0468811467289924
-0.046253602951765
-0.044496901333332
-0.0418349169194698
-0.038515955209732
-0.0347864367067813
-0.030869610607624
-0.0269496534019708
-0.0231602229177951
-0.0195795856416225
-0.0162329841405153
-0.0131004657596349
-0.0101289916783571
-0.0072476738132536
-0.0043835458345711
-0.0014742598868906
0.0015228646807372
0.0046235360205173
0.0078137181699275
0.0110541302710771
0.0142875965684652
0.0174457803368568
0.0204569287598133
0.023254245519638
0.0257826335728168
0.0280042421072721
0.0299013387411832
0.0314729027450084
0.0327260270714759
0.03366269916296
0.034258633852005
0.0344384871423244
0.0340621098875999
0.0329344607889652
0.0308399312198162
0.0275908447802066
0.0230768509209156
0.0173041764646768
0.010415974073112
0.0026879934594035
-0.0054997322149574
-0.0137072242796421
-0.0214854329824447
-0.0284257754683494
-0.0342000089585781
-0.0385838784277439
-0.0414635464549064
-0.0428284928202629
-0.0427570044994354
-0.0413999632000923
-0.0389639139175415
-0.0356897972524166
-0.031828548759222
-0.0276201665401458
-0.0232775323092937
-0.0189737472683191
-0.0148342112079262
-0.0109344832599163
-0.0073035145178437
-0.0039306199178099
-0.0007752887904644
0.0022200220264494
0.0051155914552509
0.0079619670286774
0.0107921585440635
0.0136184189468622
0.0164315849542617
0.0192027781158685
0.021888630464673
0.0244382843375206
0.0267992336302995
0.0289221815764904
0.0307660289108753
0.032302051782608
0.0335162207484245
0.0344097167253494
0.0349965430796146
0.0352943167090415
0.0353060364723205
0.0349979773163795
0.034282449632883
0.0330138839781284
0.0310054533183574
0.0280657652765512
0.024045405909419
0.0188810061663389
0.0126260742545127
0.0054601840674877
-0.0023251865059137
-0.0103593133389949
-0.0182366929948329
-0.0255649127066135
-0.0320060178637504
-0.0373039357364177
-0.0412965640425682
-0.0439163111150264
-0.0451820865273475
-0.045184202492237
-0.0440667867660522
-0.0420126989483833
