bvp
0.0354197844862937
0.0394971817731857
0.0432083085179328
0.0464657023549079
0.0491474419832229
0.0510792173445224
0.052035316824913
0.0517671555280685
0.0500532016158103
0.0467559210956096
0.0418702401220798
0.0355489663779735
0.0280976146459579
0.0199415516108274
0.0115740559995174
0.0034965937957167
-0.0038360829930752
-0.0100554935634136
-0.014899049885571
-0.0182136036455631
-0.0199514925479888
-0.0201635379344224
-0.0189883019775152
-0.0166373830288648
-0.0133765945211052
-0.0095019731670618
-0.0053125941194593
-0.0010851611150428
0.0029476808849722
0.0066152676008641
0.0098183965310454
0.0125269070267677
0.014770315028727
0.0166258178651332
0.0182019546627998
0.0196182914078235
0.0209859497845172
0.0223923064768314
0.0238905027508735
0.0254943277686834
0.0271794348955154
0.0288908071815967
0.0305536426603794
0.0320843495428562
0.0334011539816856
0.0344341769814491
0.0351320020854473
0.035462886095047
0.0354137271642684
0.0349847748875618
0.0341708585619926
0.032930664718151
0.0311607476323843
0.0286908224225044
0.0253077279776334
0.0208038054406642
0.0150348991155624
0.0079711321741342
-0.0002726763486862
-0.0094344392418861
-0.0191300064325332
-0.0288985893130302
-0.0382569730281829
-0.0467526614665985
-0.0540069565176963
-0.0597409345209598
-0.0637859106063842
-0.0660839229822158
-0.0666805803775787
-0.0657123625278472
-0.0633913651108741
-0.0599869340658187
-0.0558012202382087
-0.0511400625109672
-0.0462855026125907
-0.0414736419916152
-0.0368781834840774
-0.032601810991764
-0.0286777038127183
-0.0250799506902694
-0.0217389743775129
-0.0185587331652641
-0.0154341645538806
-0.0122670270502567
-0.0089790830388665
-0.0055230017751455
-0.00189028121531
0.0018853731453418
0.0057308264076709
0.0095433024689555
0.013205817900598
0.0166051872074604
0.0196495782583951
0.0222828239202499
0.0244918782263994
0.0263048149645328
0.0277785677462816
0.0289742797613143
0.0299198348075151
0.0305694360285997
0.0307798646390438
0.0303186737000942
0.0289050731807947
0.026272676885128
0.0222368724644184
0.0167494975030422
0.0099293310195207
0.002063388004899
-0.0064209559932351
-0.0150073701515793
-0.0231546573340892
-0.0303605608642101
-0.0362129285931587
-0.0404210351407527
-0.0428279563784599
-0.043408129364252
-0.0422539561986923
-0.0395550914108753
-0.0355732068419456
-0.0306152906268835
-0.0250077489763498
-0.0190714038908481
-0.0130983749404549
-0.0073338467627763
-0.0019645802676677
0.0028860149905085
0.0071569420397281
0.010843371041119
0.0139865549281239
0.0166614800691604
0.0189617983996868
0.0209822226315736
0.0228024404495954
0.0244769137352705
0.0260311402380466
0.0274630058556795
0.0287477318197488
0.0298445839434862
0.03070530295372
0.0312844403088092
0.0315487310290336
0.0314829312264919
0.0310925003141164
0.0304033011198043
0.0294587407261133
0.0283140484243631
0.0270233955234289
0.0256174784153699
0.0240764189511537
0.0223102420568466
0.0201610084623098
0.0174308735877275
0.0139278313145041
0.0095164263620972
0.0041601695120334
-0.0020548729225993
-0.0089185312390327
-0.0161149650812149
-0.0232577286660671
-0.0299362745136022
-0.0357642956078052
-0.0404206663370132
-0.0436789356172084
-0.0454216673970222
-0.0456383451819419
-0.04441349953413
-0.0419123917818069
-0.0383640863001346
-0.0340387597680091
-0.0292217060923576
-0.024189718067646
-0.019191613420844
-0.0144314942881464
-0.0100555522367358
-0.0061448067426681
-0.002715308452025
0.0002731217537075
0.0029006889089941
0.0052687348797917
0.0074826218187808
0.0096376147121191
0.0118077686056494
0.0140376696363091
0.0163377132266759
0.0186841078102588
0.0210240688174963
0.0232854653149843
0.0253871884196996
0.0272470768541097
0.0287882629781961
0.0299461092799901
0.0306759923696517
0.0309594590216875
0.0308059323579072
0.0302500575780868
0.0293464586138725
0.0281619932502508
0.0267646573483943
0.0252077057957649
0.0235080309212207
0.0216241367161273
0.0194459445774555
0.0168060064315795
0.0135123124346137
0.0093943690881133
0.0043501127511262
-0.0016190558671951
-0.0083935605362057
-0.0157423038035631
-0.0233466140925884
-0.0308356303721666
-0.0378263965249061
-0.0439623296260833
-0.0489449948072433
-0.0525545813143253
-0.0546579547226429
-0.0552082769572734
-0.0542401410639286
-0.0518613830208778
-0.0482424199581146
-0.0436035953462123
-0.0381990894675254
-0.032297059893608
-0.0261580664664506
-0.0200139489024877
-0.0140511030331254
-0.0084030330181121
-0.0031525045633316
0.0016604303382337
0.0060280133038759
0.0099649867042899
0.0135016497224569
0.0166789628565311
0.0195440612733364
0.0221464596688747
0.024534672498703
0.026752270758152
0.028832945972681
0.0307953432202339
0.0326404571533203
0.0343531817197799
0.0359062142670154
0.0372644215822219
0.0383894219994545
0.0392444320023059
0.0397989004850387
0.0400326214730739
0.0399393215775489
0.0395285263657569
0.038823302835226
0.0378523133695125
0.0366360694169998
0.0351684689521789
0.0333996377885341
0.0312308073043823
0.028529305011034
0.0251608900725841
0.0210266597568988
0.016093473881483
0.010413397103548
0.0041288174688816
-0.0025392929092049
-0.0093174986541271
-0.0159132182598114
-0.0220480300486087
-0.0274856276810169
-0.0320499874651432
-0.0356318578124046
-0.038185890763998
-0.0397232994437217
-0.0403044372797012
-0.04003232344985
-0.0390450097620487
-0.037504956126213
-0.0355857871472835
-0.0334569849073886
-0.0312682874500751
-0.02913773432374
-0.0271452814340591
-0.0253306161612272
-0.0236946586519479
-0.0222054757177829
-0.0208077058196067
-0.0194334536790847
-0.0180129520595073
-0.0164842717349529
-0.0148017350584268
-0.0129408566281199
-0.010898576118052
-0.0086917718872427
-0.0063561117276549
-0.0039434842765331
-0.0015165806980803
0.000858568935655
0.0031209343578666
0.0052229054272174
0.0071358764544129
0.0088498229160904
0.0103691862896084
0.0117090409621596
0.0128914425149559
0.0139398146420717
0.0148686552420258
0.0156674645841121
0.0162835083901882
0.0166109725832939
0.016492873430252
0.0157408099621534
0.0141719784587621
0.0116530926898121
0.0081380903720855
0.0036914588417857
-0.0015072501264512
-0.0071789845824241
-0.0129769286140799
-0.018528115004301
-0.0234783999621868
-0.027531798928976
-0.0304754246026277
-0.032188631594181
-0.0326424799859523
-0.0318944305181503
-0.0300772413611412
-0.0273815430700778
-0.0240353811532259
-0.0202826485037803
-0.0163610093295574
-0.0124806147068738
-0.0088059119880199
-0.0054443264380097
-0.0024453550577163
0.0001916736364364
0.0025074342265725
0.0045718923211097
0.0064701028168201
0.008285547606647
0.010087207891047
0.0119232451543211
0.0138181811198592
0.015772184357047
0.0177637338638305
0.0197545699775218
0.0216958783566951
0.0235349778085947
0.0252210311591625
0.0267097447067499
0.0279669947922229
0.0289717987179756
0.0297190006822347
0.0302195902913808
0.0304985828697681
0.0305921677500009
0.0305432695895433
0.0303939059376716
0.0301734432578086
0.0298818349838256
0.0294701196253299
0.0288277007639408
0.027787510305643
0.0261510908603668
0.0237266458570957
0.0203709006309509
0.0160263068974018
0.010745782405138
0.0046988800168037
-0.0018434571102261
-0.0085423849523067
-0.0150335086509585
-0.0209687873721122
-0.0260517559945583
-0.0300623811781406
-0.0328705012798309
-0.034437995404005
-0.0348114818334579
-0.0341093502938747
-0.032505564391613
-0.0302107669413089
-0.027451355010271
-0.024447351694107
-0.0213911980390548
-0.0184316709637641
-0.0156655237078666
-0.0131361503154039
-0.0108389388769865
-0.0087323542684316
-0.0067521156743168
-0.0048264246433973
-0.0028894366696476
-0.0008910940960049
0.0011958219110965
0.0033724075183272
0.0056157782673835
0.0078842593356966
0.0101235248148441
0.0122741824015975
0.0142789212986826
0.0160867776721715
0.0176563076674938
0.0189599450677633
0.0199877526611089
0.0207482129335403
0.0212660729885101
0.0215774178504943
0.0217228271067142
0.0217409133911132
0.0216624550521373
0.0215012449771165
0.0212378595024347
0.0208005141466856
0.0200551226735115
0.0188149902969598
0.0168710928410291
0.0140348076820373
0.0101826637983322
0.005293805617839
-0.0005288054235279
-0.007059674244374
-0.0139748435467481
-0.0208926610648632
-0.0274211894720792
-0.0332027859985828
-0.0379485189914703
-0.0414582565426826
-0.0436279848217964
-0.0444487556815147
-0.0439995415508747
-0.0424340218305587
-0.0399615652859211
-0.0368241816759109
-0.0332723185420036
-0.0295409653335809
-0.0258267968893051
-0.0222712215036153
-0.0189548432826995
-0.015901856124401
-0.013090081512928
-0.0104640778154134
-0.0079490169882774
-0.0054642148315906
-0.0029362086206674
-0.000309458002448
0.0024469923228025
0.005336944013834
0.008338076993823
0.0114059429615736
0.0144803347066044
0.0174921713769435
0.0203699767589569
0.0230488516390323
0.0254807006567716
0.0276387147605419
0.0295152571052312
0.031118132174015
0.032467670738697
0.0335939526557922
0.0345320589840412
0.035312682390213
0.0359470248222351
0.0364069379866123
0.0366044864058494
0.03638157248497
0.0355218835175037
0.0337869524955749
0.0309675727039575
0.0269372574985027
0.0216934047639369
0.0153757473453879
0.008259592577815
0.0007274141535162
-0.0067754806950688
-0.0137933231890201
-0.0199110768735408
-0.0247961431741714
-0.0282250083982944
-0.030094925314188
-0.0304239615797996
-0.0293414033949375
-0.0270695053040981
-0.0238968096673488
-0.0201444458216428
-0.0161301027983427
-0.0121353529393672
-0.008380951359868
-0.005012672394514
-0.0020976942032575
0.0003695059567689
0.0024535404518246
0.004259412176907
0.0059117088094353
0.0075336871668696
0.0092277768999338
0.0110607668757438
0.0130581138655543
0.0152080152183771
0.0174693372100591
0.019778611138463
0.0220576673746109
0.0242235548794269
0.0261991396546363
0.0279223099350929
0.0293519515544176
0.0304693058133125
0.0312752686440944
0.0317848473787307
0.0320169255137443
0.0319745130836963
0.0316169410943985
0.0308373216539621
0.0294613689184188
0.0272728726267814
0.024058923125267
0.0196634344756603
0.0140366628766059
0.0072678211145102
-0.0004085870459675
-0.0086335455998778
-0.0169649235904216
-0.0249301567673683
-0.0320806913077831
-0.0380383431911468
-0.0425262153148651
-0.0453837886452674
-0.0465707443654537
-0.0461629629135131
-0.044339869171381
-0.0413619317114353
-0.0375409089028835
-0.0332064740359783
-0.0286725480109453
-0.024208715185523
-0.0200205091387033
-0.0162386242300272
-0.0129175558686256
-0.0100445346906781
-0.0075552444905042
-0.005351064261049
-0.0033173928968608
-0.001343184383586
0.0006628311239182
0.0027630175463855
0.0049883937463164
0.0073392912745475
0.0097862649708986
0.0122734028846025
0.0147264944389462
0.0170648470520973
0.0192139167338609
0.0211144462227821
0.0227261483669281
0.0240281149744987
0.0250160414725542
0.0256926119327545
0.026047570630908
0.0260306689888238
0.0255309492349624
0.0243764724582433
0.0223582349717617
0.0192729942500591
0.0149748967960476
0.0094229271635413
0.0027125012129545
-0.004916088655591
-0.0130957122892141
-0.0213744305074214
-0.0292714498937129
-0.0363332629203796
-0.0421799235045909
-0.046536810696125
-0.0492506921291351
-0.0502916797995567
-0.049744214862585
-0.0477899834513664
-0.0446843765676021
-0.0407272055745124
-0.0362300872802734
-0.0314849503338336
-0.0267385672777891
-0.0221766419708728
-0.0179177056998014
-0.0140146603807806
-0.0104627152904868
-0.007212942931801
-0.0041890437714755
-0.0013045242521911
0.0015223221853375
0.0043571600690484
0.0072419419884681
0.0101906508207321
0.013188824057579
0.0161975435912609
0.0191607680171728
0.0220136251300573
0.0246913135051727
0.0271366946399211
0.0293034575879573
0.0311576910316944
0.0326804816722869
0.0338660329580307
0.0347099713981151
0.0351887494325637
0.0352358818054199
0.0347267873585224
0.0334842950105667
0.031307753175497
0.028018731623888
0.0235104728490114
0.0177878253161907
0.0109882783144712
0.0033808285370469
-0.0046572280116379
-0.0126832276582717
-0.0202435348182916
-0.0269264131784439
-0.0324021279811859
-0.036445677280426
-0.0389436185359954
-0.0398887507617473
-0.0393667630851268
-0.0375391468405723
-0.0346250757575035
-0.0308824274688959
-0.0265858322381973
-0.0220023822039365
-0.0173695981502532
-0.0128785716369748
-0.0086638573557138
-0.0048011657781898
-0.001311823958531
0.0018277631606906
0.0046737971715629
0.0073011904023587
0.0097882701084017
0.0122024472802877
0.0145903890952467
0.0169735662639141
0.0193479117006063
0.0216869600117206
0.0239478666335344
0.0260777100920677
0.0280197858810424
0.0297229140996933
0.0311507992446422
0.0322847217321395
0.0331206768751144
0.0336643606424331
0.0339210741221904
0.0338765978813171
0.0334729291498661
0.0325911343097686
0.0310537219047546
0.0286517199128866
0.025191094726324
0.0205450486391782
0.0146965701133012
0.0077614430338144
-1.043081283569336e-05
-0.0082549322396516
-0.0165335834026336
-0.0243872236460447
-0.0313921310007572
-0.0372060388326644
-0.0415958315134048
-0.0444462448358535
-0.0457534119486808
-0.0456081554293632
-0.0441750660538673
-0.0416715443134307
-0.0383467562496662
-0.0344601944088935
-0.030261792242527
-0.025975052267313
-0.0217829663306474
-0.0178173799067735
-0.0141540365293622
-0.0108148315921425
-0.0077766547910869
-0.004984495230019
-0.0023658629506826
0.0001557739451527
0.0026487754657864
0.0051624588668346
0.0077199786901474
0.0103168068453669
0.0129237938672304
0.0154923787340521
0.0179610177874565
0.0202631242573261
0.0223354585468769
0.024126298725605
0.0256023742258548
0.0267518274486064
0.027582898736
0.0281183421611785
0.0283828899264335
0.028382834047079
0.0280823782086372
0.0273874662816524
0.0261481646448373
0.0241822805255651
0.0213138218969106
0.0174168813973665
0.0124563425779342
0.0065149702131748
-0.0002032499760389
-0.0073944302275776
-0.0146916154772043
-0.021707896143198
-0.0280802026391029
-0.0335062183439731
-0.0377669036388397
-0.0407347455620765
-0.0423730686306953
-0.0427281856536865
-0.0419141054153442
-0.0400937646627426
-0.0374608635902404
-0.0342230200767517
-0.0305868405848741
-0.0267447419464588
-0.0228626988828182
-0.0190702825784683
-0.0154550597071647
-0.0120626734569668
-0.0089030088856816
-0.0059599746018648
-0.0032011400908231
-0.0005862456746399
0.0019246074371039
0.0043632718734443
0.0067477403208613
0.0090799806639552
0.011347334831953
0.0135250436142086
0.0155787356197834
0.017467888072133
0.0191511083394289
0.0205924455076456
0.0217660516500473
0.0226583667099475
0.0232697166502475
0.0236147325485944
0.0237196236848831
0.0236153099685907
0.0233241096138954
0.0228399708867073
0.0221089478582143
0.0210207197815179
0.0194193385541439
0.0171329192817211
0.0140142645686864
0.0099813546985387
0.00504738278687
-0.0006655445322394
-0.0069306781515479
-0.0134390760213136
-0.019836887717247
-0.0257691703736782
-0.0309207402169704
-0.0350465700030326
-0.0379880107939243
-0.0396753028035163
-0.0401197969913482
-0.0394012629985809
-0.0376544371247291
-0.035055011510849
-0.03180393576622
-0.0281108859926462
-0.0241780057549476
-0.0201845001429319
-0.0162749700248241
-0.0125538352876901
-0.0090841576457023
-0.0058891461230814
-0.0029578597750514
-0.000255832215771
0.0022624332923442
0.0046435203403234
0.006928876042366
0.0091503476724028
0.0113264052197337
0.0134595390409231
0.0155358277261257
0.0175270903855562
0.0193952824920415
0.0210988614708185
0.0226001013070344
0.0238712038844823
0.0248977877199649
0.0256795678287744
0.0262283626943826
0.0265655647963285
0.0267209634184837
0.0267291627824306
0.0266190133988857
0.0263968780636787
0.0260273423045873
0.0254184752702713
0.0244225077331066
0.0228576865047216
0.0205465760082006
0.0173600371927022
0.0132541907951235
0.0082906745374202
0.0026381034404039
-0.0034437212161719
-0.0096347387880086
-0.0155948512256145
-0.0210046544671058
-0.0255986098200082
-0.029185427352786
-0.0316556505858898
-0.0329800583422184
-0.0332011878490448
-0.0324203073978424
-0.0307840928435325
-0.0284717679023742
-0.0256797950714826
-0.0226038508117198
-0.0194213055074214
-0.0162781197577714
-0.013282049447298
-0.0105008222162723
-0.0079633705317974
-0.0056635262444615
-0.0035663302987813
-0.0016180663369596
0.0002405401319265
0.002063091378659
0.0038920836523175
0.0057560438290238
0.0076662069186568
0.0096155852079391
0.0115818800404667
0.013530446216464
0.0154160717502236
0.017187301069498
0.0187938082963228
0.0201926678419113
0.0213518813252449
0.0222529359161853
0.0228925459086895
0.023281892761588
0.0234431270509958
0.0234041400253772
0.0231912359595298
0.0228175316005945
0.0222659036517143
0.0214721020311117
0.0203197970986366
0.0186543725430965
0.0163122490048408
0.0131587712094187
0.0091266762465238
0.004244559444487
-0.0013519688509404
-0.0074276942759752
-0.0136734563857316
-0.0197457633912563
-0.0253104027360677
-0.0300805699080228
-0.0338431075215339
-0.0364701189100742
-0.0379186607897281
-0.0382225252687931
-0.0374781638383865
-0.035828098654747
-0.0334450602531433
-0.0305167343467474
-0.0272310227155685
-0.0237622708082199
-0.0202593971043825
-0.0168375000357627
-0.0135726081207394
-0.0105000669136643
-0.0076195914298295
-0.0049060592427849
-0.002320691011846
0.0001793252304196
0.0026318207383155
0.0050629405304789
0.0074848541989922
0.0098965531215071
0.0122850760817527
0.0146260047331452
0.0168845001608133
0.0190191082656383
0.0209876298904418
0.0227524861693382
0.0242851376533508
0.0255698449909687
0.0266052559018135
0.027402177453041
0.0279794707894325
0.0283612236380577
0.028572803363204
0.0286300387233495
0.0285203121602535
0.0281824581325054
0.0274978727102279
0.0263029020279645
0.0244214758276939
0.021706361323595
0.0180771462619304
0.0135478908196091
0.0082397041842341
0.0023752134293317
-0.0037443824112415
-0.0097749298438429
-0.0153707023710012
-0.020223731175065
-0.0240936372429132
-0.0268242768943309
-0.0283485241234302
-0.028684813529253
-0.0279281195253133
-0.0262362491339445
-0.023811861872673
-0.020881101489067
-0.0176707655191421
-0.0143867954611778
-0.0111979003995656
-0.0082264868542552
-0.0055456077679991
-0.0031806230545043
-0.0011156313121318
0.0006971517577767
0.0023270798847079
0.0038535939529538
0.0053543872199952
0.0068947826512157
0.008519391529262
0.0102476812899112
0.0120736490935087
0.0139690423384308
0.015889473259449
0.0177808348089456
0.0195852220058441
0.0212477892637252
0.0227235220372676
0.0239818394184112
0.0250080004334449
0.0258006770163774
0.0263644810765981
0.0266943834722042
0.0267527401447296
0.0264500714838504
0.0256435181945562
0.0241576489061117
0.0218223109841346
0.0185171645134687
0.014210321009159
0.0089805051684379
0.0030186595395207
-0.0033895401284098
-0.0098960734903812
-0.0161326844245195
-0.0217552836984395
-0.0264799147844314
-0.0301034208387136
-0.0325111262500286
-0.0336766578257083
-0.0336565151810646
-0.0325799472630023
-0.0306337960064411
-0.0280424375087022
-0.02504463493824
-0.0218706205487251
-0.0187219455838203
-0.0157554615288972
-0.01307363063097
-0.0107226427644491
-0.0086976727470755
-0.0069534839130938
-0.0054177767597138
-0.0040053334087133
-0.0026321653276681
-0.0012276505585759
0.00025779241696
0.001849144580774
0.003546078223735
0.0053254105150699
0.0071472208946943
0.0089632142335176
0.0107241561636328
0.012385107576847
0.0139096844941377
0.0152731854468584
0.0164633113890886
0.0174783933907747
0.0183213613927364
0.0189862623810768
0.0194387827068567
0.0195982325822114
0.0193303637206554
0.0184584520757198
0.0167932696640491
0.014174398034811
0.0105122309178113
0.0058204471133649
0.0002311640419065
-0.0060106990858912
-0.0125734731554985
-0.0190794952213764
-0.0251512415707111
-0.030454084277153
-0.0347282849252224
-0.0378057435154914
-0.039611592888832
-0.0401553958654403
-0.0395182333886623
-0.0378386043012142
-0.0352976508438587
-0.0321040377020835
-0.0284774135798215
-0.0246301423758268
-0.0207499153912067
-0.0169861745089292
-0.0134423933923244
-0.0101742465049028
-0.0071926284581422
-0.0044712675735354
-0.0019578365609049
0.000413941219449
0.0027130926027894
0.0050019090995192
0.0073279161006212
0.0097178667783737
0.012175353243947
0.0146821308881044
0.0172019302845001
0.0196856558322906
0.0220771729946136
0.024319265037775
0.0263598673045635
0.0281585194170475
0.0296913795173168
0.0309518594294786
0.0319440215826034
0.0326662510633468
0.0330880470573902
0.0331301651895046
0.0326582081615924
0.0314946621656417
0.0294496938586235
0.026364604011178
0.0221558474004268
0.0168475117534399
0.0105851534754037
0.0036284702364355
-0.0036762964446097
-0.0109382141381502
-0.0177678503096103
-0.0238183997571468
-0.0288154110312461
-0.0325732640922069
-0.0349993258714675
-0.036088440567255
-0.0359127148985862
-0.0346095561981201
-0.0323665924370288
-0.0294035952538251
-0.0259529575705528
-0.0222392715513706
-0.0184603817760944
-0.0147736994549632
-0.0112891374155879
-0.0080675072968006
-0.005124082788825
-0.0024374946951866
3.8351863622665405e-05
0.0023611718788743
0.00458688987419
0.0067592090927064
0.0089047253131866
0.0110331298783421
0.0131408553570508
0.0152153093367815
0.0172371193766593
0.0191807970404624
0.021016102284193
0.0227114800363779
0.0242389608174562
0.0255786068737506
0.026720605790615
0.0276641380041837
0.0284128561615943
0.0289660021662712
0.029303666204214
0.0293673537671566
0.0290445573627948
0.0281704775989055
0.0265521146357059
0.0240076724439859
0.0204099528491497
0.0157235600054264
0.0100277177989482
0.0035194954834878
-0.0035032534506171
-0.0106755215674638
-0.0176085755228996
-0.0239347368478775
-0.0293451845645904
-0.0336145125329494
-0.0366099327802658
-0.0382881835103035
-0.0386855527758598
-0.0379057936370372
-0.0361077822744846
-0.03349120169878
-0.0302779469639062
-0.0266913697123527
-0.0229374412447214
-0.0191897600889205
-0.0155797069892287
-0.0121926385909318
-0.0090692210942506
-0.0062107355333864
-0.0035878103226423
-0.0011518627870827
0.0011530322954058
0.0033804501872509
0.0055739087983965
0.0077601764351129
0.0099452640861272
0.0121148433536291
0.0142386127263307
0.016277439892292
0.0181908700615167
0.0199422668665647
0.0215018074959516
0.0228481255471706
0.0239687226712703
0.0248606018722057
0.025530407205224
0.0259909145534038
0.0262526385486125
0.0263102818280458
0.0261248014867305
0.0256085395812988
0.0246246121823787
0.0230056792497634
0.0205881483852863
0.0172527246177196
0.0129609890282154
0.0077785225585103
0.0018777642399072
-0.0044788559898734
-0.0109685743227601
-0.0172448307275772
-0.0229759775102138
-0.0278792846947908
-0.0317441299557685
-0.034442976117134
-0.0359323993325233
-0.0362468957901001
-0.0354874357581138
-0.0338075831532478
-0.0313985235989093
-0.028471689671278
-0.0252390056848526
-0.0218937061727046
-0.0185947231948375
-0.0154569670557975
-0.0125484466552734
-0.0098931854590773
-0.0074778897687792
-0.0052618309855461
-0.0031891311518847
-0.0012001120485365
0.0007598856464028
0.0027332622557878
0.0047449432313442
0.0068008629605174
0.0088898921385407
0.0109869185835123
0.0130559941753745
0.0150545611977577
0.0169392004609107
0.0186714567244052
0.0202223323285579
0.0215748734772205
0.0227241888642311
0.0236737411469221
0.024426182731986
0.0249686762690544
0.025256123393774
0.0251994617283344
0.0246685296297073
0.0235139243304729
0.0216020457446575
0.0188521742820739
0.0152655914425849
0.0109397079795598
0.0060641495510935
0.0008999109268188
-0.0042532491497695
-0.0090930638834834
-0.013347958214581
-0.0168027058243751
-0.0193133428692817
-0.0208114497363567
-0.0213019624352455
-0.0208586305379867
-0.0196155533194541
-0.0177507922053337
-0.0154646057635545
-0.0129577852785587
-0.0104119349271059
-0.0079736467450857
-0.0057448372244834
-0.00377943739295
-0.0020863926038146
-0.0006391061469912
0.0006110928952693
0.0017230296507477
0.0027575409039855
0.0037698494270443
0.0048014903441071
0.0058750985190272
0.0069942735135555
0.0081467255949974
0.0093075707554817
0.0104427188634872
0.011513796634972
0.0124837243929505
0.0133211184293031
0.0140030682086944
0.014516201801598
0.0148550393059849
0.0150160826742649
0.0149861592799425
0.0147261545062065
0.0141580943018198
0.0131655074656009
0.0116093400865793
0.0093555133789777
0.0063088182359933
0.00244483910501
-0.0021702330559492
-0.0073770387098193
-0.0129365269094705
-0.0185564458370208
-0.0239260178059339
-0.0287518873810768
-0.0327891856431961
-0.0358622372150421
-0.0378724262118339
-0.0387963205575943
-0.0386780984699726
-0.0376183502376079
-0.0357612073421478
-0.0332806557416915
-0.0303656477481126
-0.0272037982940673
-0.0239653699100017
-0.0207908395677804
-0.0177837312221527
-0.0150075275450944
-0.0124857248738408
-0.0102069564163684
-0.0081357844173908
-0.0062245116569101
-0.0044218646362423
-0.0026794713921844
-0.0009587719105184
0.0007627685554325
0.0024897460825741
0.0042112218216061
0.0059050815179944
0.0075432090088725
0.00909667275846
0.0105399405583739
0.0118532832711935
0.0130238225683569
0.014047191478312
0.0149294743314385
0.0156863331794738
0.0163363870233297
0.0168876182287931
0.0173192117363214
0.017564857378602
0.0175056830048561
0.0169804655015468
0.0158143248409032
0.0138586955145001
0.011031231842935
0.0073445932939648
0.0029166974127292
-0.0020394169259816
-0.0072424509562551
-0.0123791797086596
-0.0171427447348833
-0.0212667658925056
-0.0245495364069938
-0.0268649365752935
-0.0281618013978004
-0.028455352410674
-0.0278149675577878
-0.026352172717452
-0.024208977818489
-0.0215456131845712
-0.018528139218688
-0.0153157897293567
-0.012049782089889
-0.008846235461533
-0.0057922294363379
-0.0029435213655233
-0.0003240779042243
0.0020723724737763
0.0042771501466631
0.006336994934827
0.0083031821995973
0.0102226799353957
0.012131386436522
0.0140490420162677
0.0159770753234624
0.0179000161588192
0.0197892487049102
0.0216077901422977
0.0233152993023395
0.0248721130192279
0.0262431167066097
0.0274033360183239
0.0283424034714698
0.0290633644908666
0.0295754820108413
0.0298821330070495
0.02996476739645
0.0297670103609561
0.029186675325036
0.0280834548175334
0.0263044163584709
0.0237200036644935
0.0202591326087713
0.0159354377537965
0.010858666151762
0.0052276132628321
-0.000692632747814
-0.0066025489941239
-0.0122027359902858
-0.0172252524644136
-0.0214566942304372
-0.0247502941638231
-0.0270277466624975
-0.028274368494749
-0.0285315569490194
-0.0278883129358291
-0.0264719296246767
-0.0244371145963668
-0.0219530835747718
-0.0191899538040161
-0.0163055770099163
-0.0134330838918685
-0.0106716910377144
-0.0080827986821532
-0.0056908475235104
-0.0034886803478002
-0.0014463113620877
0.0004791989922523
0.0023342343047261
0.0041607460007071
0.0059906332753598
0.0078416727483272
0.0097143286839127
0.0115905366837978
0.0134372152388095
0.01521329395473
0.0168757457286119
0.0183840915560722
0.0197046436369419
0.0208138152956962
0.021699983626604
0.0223639793694019
0.0228171199560165
0.0230745412409305
0.0231429766863584
0.023004662245512
0.0226009953767061
0.0218243151903152
0.020526872947812
0.0185480620712041
0.0157522484660148
0.0120654935017228
0.0075013432651758
0.002171196276322
-0.0037212464958429
-0.0099003836512565
-0.0160516537725925
-0.0218600071966648
-0.0270433910191059
-0.0313763245940208
-0.0347038991749286
-0.0369452126324176
-0.0380871631205081
-0.0381738804280757
-0.0372961722314357
-0.0355819426476955
-0.0331864468753337
-0.0302806179970502
-0.0270373411476612
-0.0236180815845727
-0.0201626531779766
-0.0167818292975425
-0.0135518684983253
-0.0105128241702914
-0.0076723657548427
-0.0050132041797041
-0.002501300536096
-9.400956332683565e-05
0.0022520134225487
0.0045736199244856
0.0068954890593886
0.0092265792191028
0.0115594211965799
0.0138728152960538
0.0161364525556564
0.0183157455176115
0.020376518368721
0.022288653999567
0.0240280982106924
0.0255780667066574
0.0269293449819087
0.0280779805034399
0.0290194638073444
0.0297384150326252
0.0301926806569099
0.0302975568920373
0.0299223326146602
0.0289057753980159
0.027087602764368
0.0243482775986194
0.0206458047032356
0.0160382948815822
0.0106874983757734
0.0048439078964293
-0.0011824560351669
-0.0070581575855612
-0.0124622797593474
-0.0171169340610504
-0.0208084937185049
-0.023398969322443
-0.0248302314430475
-0.0251230131834745
-0.0243696551769971
-0.0227199625223875
-0.0203624591231346
-0.0175036191940307
-0.014346981421113
-0.0110750682651996
-0.0078366436064243
-0.0047390470281243
-0.0018448322080075
0.0008261930197477
0.0032912581227719
0.0055987983942031
0.0078199990093708
0.0100357346236705
0.0123220961540937
0.0147355692461133
0.0172979831695556
0.0199844092130661
0.0227175820618867
0.0253698527812957
0.0277734547853469
0.0297400038689374
0.0310854297131299
0.0316545441746711
0.0313428416848182
0.0301126837730407
0.0279991775751113
0.0251015182584524
0.0215585641562938
0.0175138302147388
0.0130806807428598
0.0083196619525551
0.0032363208010792
-0.0021997829899191
-0.0080213379114866
-0.0142260948196053
-0.0207480378448963
-0.027444576844573
-0.0341014675796031
-0.0404522344470024
-0.0462075546383857
-0.0510893687605857
-0.0548626407980918
-0.057358518242836
-0.0584864653646945
-0.0582353882491588
-0.0566657595336437
-0.0538972839713096
-0.0500953681766986
-0.0454564504325389
-0.0401922576129436
-0.0345141142606735
-0.0286180116236209
-0.0226708129048347
-0.0168006252497434
-0.0110943261533975
-0.0056010894477367
-0.0003398074768483
0.0046904208138585
0.0094991894438862
0.0140956379473209
0.0184808373451232
0.0226415749639272
0.0265478901565074
0.0301553830504417
0.0334100760519504
0.0362545736134052
0.0386357083916664
0.0405117534101009
0.0418573878705501
0.042666520923376
0.0429523773491382
0.0427452363073825
0.0420888364315032
0.0410328768193721
0.0396184735000133
0.0378588736057281
0.0357229933142662
0.0331314578652381
0.0299704205244779
0.0261200107634067
0.0214901976287364
0.016055516898632
0.009879183024168
0.0031201168894767
-0.0039789592847228
-0.0111192911863327
-0.017981894314289
-0.0242629796266555
-0.0297039039433002
-0.0341130383312702
-0.0373759940266609
-0.0394526459276676
-0.0403661951422691
-0.0401918552815914
-0.0390478745102882
-0.0370861068367958
-0.0344811305403709
-0.0314191877841949
-0.028085246682167
-0.0246474556624889
-0.0212426427751779
-0.0179668273776769
-0.0148729560896754
-0.0119760250672698
-0.0092625832185149
-0.0067009767517447
-0.0042502535507082
-0.0018674738239496
0.0004852070705965
0.0028324148152023
0.0051785428076982
0.0075069051235914
0.0097860377281904
0.0119777983054518
0.0140428012236952
0.0159436948597431
0.0176484957337379
0.0191338770091533
0.0203862003982067
0.0213997103273868
0.022172462195158
0.0226977560669183
0.0229493808001279
0.0228662565350532
0.0223463624715805
0.0212564412504434
0.0194574687629938
0.0168388113379478
0.0133510045707225
0.0090292450040578
0.0040016332641243
-0.0015193447470664
-0.007258228957653
-0.0129073075950145
-0.0181624442338943
-0.0227558575570583
-0.0264789462089538
-0.0291937943547964
-0.03083486109972
-0.0314032472670078
-0.0309576801955699
-0.0296055376529693
-0.0274934004992246
-0.0247951261699199
-0.021696601063013
-0.0183790456503629
-0.0150044150650501
-0.0117050549015402
-0.0085773859173059
-0.0056786322966217
-0.0030274223536252
-0.0006101727485656
0.0016084702219814
0.0036754247266799
0.0056400853209197
0.0075451363809406
0.0094188703224062
0.0112712029367685
0.0130928754806518
0.0148577131330966
0.0165282636880874
0.0180624462664127
0.0194192845374345
0.0205642916262149
0.0214741267263889
0.0221385695040226
0.0225588846951723
0.0227439925074577
0.0227054823189973
0.0224490761756896
0.0219607632607221
0.0211924612522125
0.0200571231544017
0.0184396337717771
0.0162216965109109
0.0133134108036756
0.0096827028319239
0.0053753117099404
0.0005210195668041
-0.0046753627248108
-0.00995684415102
-0.0150460004806518
-0.0196780655533075
-0.0236280485987663
-0.026727557182312
-0.0288721024990081
-0.0300221405923366
-0.0301997456699609
-0.029482077807188
-0.0279916189610958
-0.0258827283978462
-0.0233262851834297
-0.020494582131505
-0.0175471156835556
-0.0146190300583839
-0.0118144191801548
-0.0092028621584177
-0.0068180584348738
-0.004660659469664
-0.002705380320549
-0.0009098504669964
0.0007767174392938
0.0024051549844443
0.0040183351375162
0.0056454921141266
0.0072999624535441
0.0089799268171191
0.0106714554131031
0.012351457029581
0.0139889819547533
0.015547395683825
0.0169891621917486
0.0182811096310615
0.0193985123187303
0.0203270949423313
0.02106106095016
0.0215961169451475
0.0219164378941059
0.0219779498875141
0.0216987244784832
0.0209648087620735
0.0196501985192298
0.0176470149308443
0.0148980692028999
0.0114208543673157
0.0073175439611077
0.0027704203967005
-0.0019767633639276
-0.0066482899710536
-0.010970608331263
-0.01470329426229
-0.0176606196910142
-0.0197224784642457
-0.0208367239683866
-0.0210157465189695
-0.0203299578279256
-0.0188983473926782
-0.0168749950826168
-0.0144317671656608
-0.0117394039407372
-0.0089516080915927
-0.0061949966475367
-0.0035636113025248
-0.0011175258550792
0.0011143856681883
0.0031300680711865
0.0049490737728774
0.0066046938300132
0.0081343101337552
0.0095713073387742
0.010940121486783
0.0122542902827262
0.0135177075862884
0.0147272953763604
0.0158732365816831
0.0169372800737619
0.0178930629044771
0.0187087450176477
0.019350154325366
0.019784701988101
0.019985569640994
0.0199324414134025
0.0196056328713893
0.0189751349389553
0.0179901383817195
0.0165765769779682
0.0146476551890373
0.0121254622936248
0.0089666889980435
0.0051845554262399
0.0008612461388111
-0.0038514640182256
-0.0087446914985775
-0.0135770831257104
-0.018104450777173
-0.0221058316528797
-0.0254017822444438
-0.0278641581535339
-0.0294198058545589
-0.0300516542047262
-0.0297975949943065
-0.0287458673119545
-0.0270265061408281
-0.0247984789311885
-0.0222329031676054
-0.0194958075881004
-0.016733719035983
-0.0140626085922122
-0.0115614365786314
-0.0092714074999094
-0.0071993460878729
-0.0053236274980008
-0.0036022237036377
-0.0019825771450996
-0.0004119900986552
0.0011546527966856
0.002750072395429
0.0043904287740588
0.0060730446130037
0.0077778599224984
0.0094716418534517
0.0111134499311447
0.0126601578667759
0.0140704121440649
0.0153058040887117
0.0163276456296443
0.0170869063585996
0.0175103899091482
0.0174930691719055
0.0169043261557817
0.0156087847426533
0.0134954508394002
0.010507027618587
0.0066634728573262
0.0020731706172227
-0.0030722706578671
-0.0085170343518257
-0.0139695350080728
-0.0191355440765619
-0.0237491205334663
-0.0275948084890842
-0.0305193327367305
-0.0324357524514198
-0.0333228036761283
-0.033219825476408
-0.0322181358933448
-0.0304498672485351
-0.0280741304159164
-0.0252615511417388
-0.0221793167293071
-0.0189787726849317
-0.0157863423228263
-0.0126973818987607
-0.0097729545086622
-0.0070403981953859
-0.0044971778988838
-0.0021175714209675
0.0001375265419483
0.0023106271401047
0.0044406014494597
0.0065577733330428
0.0086795268580317
0.0108067020773887
0.0129229230806231
0.0149981491267681
0.016995545476675
0.0188794545829296
0.0206206776201725
0.0221961662173271
0.0235821045935153
0.0247399359941482
0.025599468499422
0.0260492041707038
0.0259416513144969
0.0251131616532802
0.0234134420752525
0.02073903568089
0.0170638412237167
0.0124591328203678
0.0070964461192488
0.0012314275372773
-0.004825172945857
-0.0107415225356817
-0.0161999445408582
-0.0209288485348224
-0.0247247666120529
-0.0274612307548522
-0.0290863886475563
-0.0296142883598804
-0.029114169999957
-0.0277000498026609
-0.0255207121372222
-0.0227487869560718
-0.0195672120898962
-0.0161530282348394
-0.0126620912924408
-0.0092181600630283
-0.0059066917747259
-0.0027740094810724
0.0001677013933658
0.0029320055618882
0.0055489661172032
0.0080559477210044
0.0104887979105114
0.0128742717206478
0.0152252735570073
0.0175396408885717
0.0198016967624425
0.0219855476170778
0.0240592323243618
0.0259889513254165
0.0277428068220615
0.0292935818433761
0.0306199863553047
0.0317053757607936
0.0325319394469261
0.033067800104618
0.0332490354776382
0.0329673215746879
0.032074898481369
0.0304090622812509
0.0278277285397052
0.0242453571408987
0.0196623802185058
0.0141819370910525
0.0080081494525074
0.0014260185416787
-0.0052316319197416
-0.0116228740662336
-0.0174332354217767
-0.0224037654697895
-0.0263477098196744
-0.0291557740420103
-0.0307926423847675
-0.0312891080975532
-0.0307328961789608
-0.0292588640004396
-0.0270376540720462
-0.0242611225694417
-0.0211242400109767
-0.0178070478141307
-0.0144614670425653
-0.0112041784450411
-0.0081131476908922
-0.0052265264093875
-0.0025459351018071
-4.508718848228455e-05
0.0023191785439848
0.0045960638672113
0.0068299998529255
0.0090514449402689
0.0112724816426634
0.0134871965274214
0.0156745929270982
0.0178024917840957
0.0198317449539899
0.0217206981033086
0.0234296582639217
0.0249248128384351
0.0261808615177869
0.0271813832223415
0.0279147885739803
0.0283621586859226
0.0284782722592353
0.0281754750758409
0.0273209065198898
0.0257517769932746
0.0233066473156213
0.0198655948042869
0.0153888333588838
0.0099418368190526
0.0036998074501752
-0.0030673337168991
-0.0100248511880636
-0.0168127212673425
-0.0230874195694923
-0.0285570956766605
-0.0330026075243949
-0.0362835079431533
-0.0383355319499969
-0.0391657017171382
-0.0388465337455272
-0.0375078730285167
-0.0353237688541412
-0.0324953235685825
-0.0292328167706727
-0.0257369223982095
-0.0221807043999433
-0.0186973828822374
-0.0153750050812959
-0.0122563494369387
-0.0093433652073144
-0.0066058477386832
-0.0039940336719155
-0.0014533568173646
0.0010629300959408
