bvp
-0.002959749661386
-0.0021381489932537
-0.0012873588129878
-0.0004107076674699
0.0004890579730272
0.0014097224920988
0.0023481650277972
0.0032985140569508
0.0042515448294579
0.0051947897300124
0.0061124148778617
0.0069864159449934
0.0078000584617257
0.0085414256900548
0.0092057259753346
0.0097960019484162
0.0103208161890506
0.0107893105596303
0.0112052615731954
0.0115606328472495
0.0118305943906307
0.0119729675352573
0.0119325090199708
0.0116483010351657
0.0110632013529539
0.0101354401558637
0.0088495695963501
0.0072225155308842
0.005304342135787
0.0031748712062835
0.0009359559044241
-0.0012998848687857
-0.0034215019550174
-0.005328516010195
-0.0069381156936287
-0.0081911217421293
-0.0090555977076292
-0.0095254452899098
-0.009616338647902
-0.009362512268126
-0.0088142538443207
-0.0080338893458247
-0.0070895343087613
-0.006048928014934
-0.0049738851375877
-0.0039138500578701
-0.0029019014909863
-0.0019556914921849
-0.001079517416656
-0.000266492832452
0.0004969376605004
0.0012259841896593
0.0019352339440956
0.0026381297502666
0.0033451779745519
0.0040612979792058
0.0047856485471129
0.0055143646895885
0.0062428237870335
0.0069656730629503
0.0076766172423958
0.0083692073822021
0.0090366555377841
0.0096704894676804
0.0102606462314724
0.0107964836061
0.0112657779827713
0.0116516072303056
0.0119289923459291
0.0120621845126152
0.0120043102651834
0.0117017086595296
0.011102195829153
0.0101644396781921
0.0088663138449192
0.0072106583975255
0.0052284956909716
0.0029797842726111
0.0005495809018611
-0.0019609285518527
-0.0044459174387156
-0.0068053472787141
-0.0089516825973987
-0.0108130080625414
-0.0123348049819469
-0.0134826395660638
-0.0142453573644161
-0.0146357789635658
-0.0146875428035855
-0.0144498208537697
-0.0139824356883764
-0.0133515987545251
-0.0126232765614986
-0.011854687705636
-0.0110888425260782
-0.0103529766201972
-0.0096588404849171
-0.0090043963864445
-0.0083763971924781
-0.0077532362192869
-0.007107859943062
-0.0064109419472515
-0.0056347022764384
-0.0047565540298819
-0.0037622642703354
-0.0026495959609746
-0.0014317031018435
-0.0001379307359457
0.0011901659891009
0.0025070123374462
0.0037707420997321
0.0049471640959382
0.0060118748806416
0.0069519989192485
0.0077640227973461
0.0084452563896775
0.0089841643348336
0.0093569755554199
0.0095316171646118
0.0094751548022031
0.0091611789539456
0.0085750259459018
0.0077169369906187
0.0066045941784977
0.0052753891795873
0.0037864511832594
0.0022102259099483
0.0006271731108427
-0.0008816923946142
-0.002242480404675
-0.0033959811553359
-0.0043031182140111
-0.0049469554796814
-0.005331415683031
-0.0054788636043667
-0.0054278345778584
-0.0052289320155978
-0.0049374504014849
-0.0046048266813158
-0.0042732618749141
-0.003973932005465
-0.0037253918126225
-0.0035330764949321
-0.0033913813531398
-0.0032862164080142
-0.0031973393633961
-0.0031007444486021
-0.0029712263494729
-0.0027855420485138
-0.0025252820923924
-0.0021780263632535
-0.0017373207956552
-0.0012035351246595
-0.0005852207541465
0.0001013707369565
0.000835046172142
0.0015941001474857
0.0023602172732353
0.0031187776476144
0.0038557667285203
0.0045527759939432
0.0051820138469338
0.0057046888396143
0.0060737263411283
0.0062396740540862
0.0061590326949954
0.0058030486106872
0.0051639657467603
0.0042577646672725
0.003123627975583
0.0018190313130617
0.0004114154726266
-0.0010289102792739
-0.002432688139379
-0.003734802827239
-0.0048784548416733
-0.0058207483962178
-0.0065381089225411
-0.0070286430418491
-0.0073105571791529
-0.0074173538014292
-0.0073912572115659
-0.0072775837033987
-0.0071205515414476
-0.006958732381463
-0.0068206321448087
-0.0067226737737655
-0.0066699953749775
-0.0066579608246684
-0.0066731767728924
-0.0066955043002963
-0.0067012775689363
-0.0066664945334196
-0.006570030003786
-0.0063966615125536
-0.0061390614137053
-0.0057983137667179
-0.0053826123476028
-0.0049046967178583
-0.0043790657073259
-0.0038203978911042
-0.0032441923394799
-0.0026681954041123
-0.002113833092153
-0.001608352176845
-0.0011861193925142
-0.0008871527388691
-0.0007532145828008
-0.0008219638839364
-0.0011198036372661
-0.001655988395214
-0.002419807948172
-0.0033798152580857
-0.0044854548759758
-0.0056726359762251
-0.0068718381226062
-0.0080162286758422
-0.00904824398458
-0.0099237719550728
-0.0106144249439239
-0.0111077092587947
-0.0114042134955525
-0.0115133635699749
-0.0114499628543853
-0.0112322773784399
-0.0108813978731632
-0.0104203233495354
-0.0098722139373421
-0.0092592183500528
-0.008601589128375
-0.0079154074192047
-0.0072108265012502
-0.0064945220947265
-0.0057737110182642
-0.0050564492121338
-0.0043495176360011
-0.0036571330856531
-0.0029804254882037
-0.0023180025164037
-0.0016673919744789
-0.0010251514613628
-0.0003861091099679
0.0002555646933615
0.0009038411080837
0.0015590458642691
0.0022178557701408
0.0028748805634677
0.003524154657498
0.0041591087356209
0.0047712973318994
0.0053482116200029
0.0058698351494967
0.0063064494170248
0.0066217128187417
0.006779939867556
0.0067532621324062
0.0065263775177299
0.0060988385230302
0.0054858047515153
0.0047177327796816
0.0038387277163565
0.0029032533057034
0.0019706990569829
0.0010978421196341
0.0003318469971418
-0.0002928068861365
-0.0007538059726357
-0.0010392488911747
-0.0011453945189714
-0.0010748021304607
-0.0008355537429451
-0.0004402883350849
9.454786777496338e-05
0.0007477859035134
0.0014931568875908
0.0023022983223199
0.0031499089673161
0.0040169628337025
0.004889540374279
0.0057557523250579
0.0066044963896274
0.0074264192953705
0.0082150436937808
0.0089666005223989
0.0096796890720725
0.0103554902598261
0.0109970830380916
0.0116075407713651
0.0121880676597356
0.0127369659021496
0.0132498266175389
0.0137208206579089
0.0141433598473668
0.0145097700878977
0.0148119330406188
0.0150428730994462
0.0151983648538589
0.015277873724699
0.0152824688702821
0.0152098964899778
0.0150515185669064
0.0147928819060325
0.0144154569134116
0.0138990003615617
0.0132253235206007
0.0123822651803493
0.0113666336983442
0.0101868510246276
0.0088650584220886
0.0074363304302096
0.0059450319968163
0.0044407453387975
0.0029746363870799
0.0015952824614942
0.0003437988925725
-0.0007496927864849
-0.0016665600705891
-0.0023981642443686
-0.0029445872642099
-0.0033142718020826
-0.0035237451083958
-0.003596186870709
-0.0035584687720984
-0.003437933512032
-0.003260064870119
-0.0030466993339359
-0.0028151543810963
-0.002579255728051
-0.0023508709855377
-0.0021401951089501
-0.0019552656449377
-0.0018013017252087
-0.0016797076677903
-0.0015873775118961
-0.0015171408886089
-0.0014592588413506
-0.0014038553927093
-0.0013435785658657
-0.0012745156418532
-0.0011952087515965
-0.0011064128484576
-0.0010122077073901
-0.00091951637296
-0.0008352124132215
-0.0007639098912477
-0.0007078102789819
-0.000667143263854
-0.0006417663535103
-0.000634747557342
-0.0006549663376063
-0.0007165232673287
-0.0008359430357813
-0.0010284564923495
-0.0013052937574684
-0.0016729135531932
-0.0021325459238141
-0.0026791836135089
-0.0033002360723912
-0.0039748717099428
-0.0046762181445956
-0.0053756702691316
-0.0060468004085123
-0.006668681744486
-0.0072269365191459
-0.0077107986435294
-0.0081095974892377
-0.0084116254001855
-0.0086051914840936
-0.0086818020790815
-0.0086396848782897
-0.0084850080311298
-0.0082312291488051
-0.0078976089134812
-0.0075067346915602
-0.0070814127102494
-0.0066412193700671
-0.0061995983123779
-0.0057632261887192
-0.0053335023112595
-0.0049081579782068
-0.0044813463464379
-0.0040431786328554
-0.0035815988667309
-0.0030867012683302
-0.0025543575175106
-0.0019873236306011
-0.0013944972306489
-0.0007888742838986
-0.0001844081707531
0.0004063393280375
0.0009721848764456
0.0015030379872769
0.001991965342313
0.0024377719964832
0.0028446337673813
0.0032187576871365
0.0035642392467707
0.0038795946165919
0.004156170412898
0.0043801530264317
0.0045375064946711
0.0046176286414265
0.0046138162724673
0.0045230076648294
0.0043468717485666
0.0040941010229289
0.0037819505669176
0.0034347702749073
0.0030804087873548
0.002746065845713
0.0024531693197786
0.0022138191852718
0.0020323838107287
0.0019091797294095
0.0018413523212075
0.001821240526624
0.0018346688011661
0.0018613305874168
0.0018781493417918
0.0018633876461535
0.001799615798518
0.0016765648033469
0.0014935585204511
0.0012585448566824
0.0009837800171226
0.0006825549062341
0.0003682160750031
5.343416705727577e-05
-0.0002494384534657
-0.000526645919308
-0.0007631336338818
-0.0009456024272367
-0.0010655397782102
-0.0011199194705113
-0.0011103393044322
-0.0010415652068331
-0.0009195817401632
-0.000749476486817
-0.0005342019721865
-0.0002750847488641
2.693384885787964e-05
0.000370301073417
0.0007514257449656
0.0011628125794231
0.0015916507691144
0.0020183976739645
0.0024157296866178
0.0027508952189236
0.0029914109036326
0.0031108316034078
0.00309345475398
0.0029372633434832
0.0026542576961219
0.0022684363648295
0.0018114438280463
0.0013174228370189
0.0008197440765798
0.000349027570337
-6.865663453936577e-05
-0.0004126946441829
-0.000668866559863
-0.0008312580175697
-0.0009045260958373
-0.0009047430939972
-0.0008569261990487
-0.0007913685403764
-0.0007414128631353
-0.0007405676878988
-0.000817110762
-0.0009886436164379
-0.0012597334571182
-0.0016227299347519
-0.0020597886759787
-0.0025457884185016
-0.0030531405936926
-0.0035570464096963
-0.0040381206199526
-0.004482302814722
-0.0048807808198034
-0.005230909679085
-0.0055366428568959
-0.0058071268722414
-0.0060537075623869
-0.0062864869832992
-0.0065115359611809
-0.0067298123612999
-0.0069378330372273
-0.0071288021281361
-0.0072948997840285
-0.0074328272603452
-0.0075502516701817
-0.0076677701435983
-0.0078151458874344
-0.0080254878848791
-0.0083305407315492
-0.0087567269802093
-0.0093202190473675
-0.0100219435989856
-0.0108455074951052
-0.0117580890655517
-0.01271284930408
-0.0136540783569216
-0.0145249366760253
-0.0152739491313695
-0.0158582404255867
-0.0162451267242431
-0.0164130385965108
-0.0163515899330377
-0.0160613264888525
-0.015553805977106
-0.0148510430008172
-0.01398297958076
-0.0129840616136789
-0.0118902325630187
-0.0107352882623672
-0.0095472671091556
-0.0083468882367014
-0.0071474276483058
-0.0059554660692811
-0.004772974178195
-0.0035994136705994
-0.0024330206215381
-0.0012720376253128
-0.0001156833022832
0.0010365676134824
0.002186881378293
0.0033391453325748
0.0044965986162424
0.0056596938520669
0.0068253939971327
0.0079871257767081
0.009135172702372
0.0102585144340991
0.0113478219136595
0.0123954275622963
0.0133895957842469
0.0143073545768857
0.0151119120419025
0.0157554820179939
0.0161854773759841
0.0163531936705112
0.0162226967513561
0.015777513384819
0.0150255188345909
0.0140007454901933
0.01275987457484
0.0113750249147415
0.0099254790693521
0.0084898248314857
0.0071401055902242
0.0059383884072303
0.0049344711005687
0.0041641816496849
0.0036483965814113
0.0033926591277122
0.0033880211412906
0.0036131609231233
0.0040362328290939
0.0046167727559804
0.0053098797798156
0.0060719009488821
0.0068645887076854
0.0076571274548769
0.0084273312240839
0.0091619556769728
0.0098557090386748
0.0105099016800522
0.0111311739310622
0.0117296632379293
0.0123165054246783
0.0129005713388323
0.013485400006175
0.0140685308724641
0.0146424593403935
0.0151951378211379
0.0157111026346683
0.0161737967282533
0.0165675338357687
0.0168795101344585
0.017102625221014
0.0172375496476888
0.0172919388860464
0.0172759927809238
0.0171960089355707
0.0170500800013542
0.0168274119496345
0.0165083836764097
0.0160650741308927
0.0154650900512933
0.0146782547235488
0.0136830192059278
0.0124710164964199
0.0110497549176216
0.0094433780759572
0.0076906261965632
0.0058397846296429
0.003942574840039
0.002049894304946
0.0002103433944284
-0.0015307350549846
-0.0031339563429355
-0.0045690359547734
-0.005815568845719
-0.0068617705255746
-0.0077037792652845
-0.0083463583141565
-0.0088036861270666
-0.0090980762615799
-0.0092562437057495
-0.0093046780675649
-0.00926542468369
-0.0091541409492492
-0.008981448598206
-0.0087558208033442
-0.0084848664700984
-0.0081744035705924
-0.0078282300382852
-0.0074493009597063
-0.0070409080944955
-0.0066079455427825
-0.0061572594568133
-0.0056968503631651
-0.0052356226369738
-0.0047832140699028
-0.0043491828255355
-0.0039419783279299
-0.0035670953802764
-0.0032251072116196
-0.0029118368402123
-0.0026215435937047
-0.0023525073193013
-0.0021124044433236
-0.0019204560667276
-0.0018057422712445
-0.0018025301396846
-0.001944376155734
-0.0022583557292819
-0.00275937654078
-0.003445379436016
-0.0042949724011123
-0.005269022192806
-0.0063164215534925
-0.0073810373432934
-0.0084070321172475
-0.0093424208462238
-0.0101414239034056
-0.0107668451964855
-0.0111936889588832
-0.0114121930673718
-0.0114275775849819
-0.011257323436439
-0.0109279435127973
-0.0104710180312395
-0.0099188582971692
-0.0093017369508743
-0.0086464853957295
-0.0079750958830118
-0.0073035210371017
-0.0066403606906533
-0.005985839292407
-0.0053334408439695
-0.0046739452518522
-0.0039987997151911
-0.0033015636727213
-0.0025785090401768
-0.0018286681734025
-0.0010535600595176
-0.0002575945109128
0.0005523357540369
0.0013684825971722
0.0021823393180966
0.0029841074720025
0.0037643136456608
0.0045163920149207
0.0052379770204424
0.0059296824038028
0.0065907994285225
0.007213482633233
0.0077789677307009
0.0082583306357264
0.0086170034483075
0.0088207870721817
0.0088416896760463
0.0086626345291733
0.0082807606086134
0.0077090244740247
0.0069757075980305
0.0061221504583954
0.0051983827725052
0.0042565381154417
0.0033449064940214
0.0025044828653335
0.0017663184553384
0.0011497288942337
0.0006633792072534
0.000307161360979
7.161684334278107e-05
-6.348453462123871e-05
-0.0001285439357161
-0.0001609362661838
-0.0001991745084524
-0.00027587544173
-0.0004122741520404
-0.0006154803559184
-0.0008790679275989
-0.0011871121823787
-0.0015186686068773
-0.0018504569306969
-0.0021600862964987
-0.0024309800937771
-0.0026555163785815
-0.002833885140717
-0.0029708258807659
-0.0030729016289114
-0.0031465254724025
-0.0031973458826541
-0.0032313466072082
-0.0032556122168898
-0.0032771043479442
-0.0033001629635691
-0.0033255033195018
-0.0033519798889756
-0.0033794650807976
-0.0034116674214601
-0.0034579820930957
-0.0035329703241586
-0.003654015250504
-0.0038390830159187
-0.0041047623381018
-0.0044627171009778
-0.0049144849181175
-0.0054481634870171
-0.0060394508764147
-0.0066551892086863
-0.0072577558457851
-0.0078097814694046
-0.0082775596529245
-0.0086334906518459
-0.0088585205376148
-0.0089436834678053
-0.0088909929618239
-0.0087131299078464
-0.0084311421960592
-0.0080722933635115
-0.0076680989004671
-0.0072506256401538
-0.0068480879999697
-0.0064815999940037
-0.0061637540347874
-0.0058986125513911
-0.0056829694658517
-0.0055091334506869
-0.0053673586808145
-0.0052464338950812
-0.0051340702921152
-0.005018061492592
-0.0048870299942791
-0.0047309435904026
-0.0045423507690429
-0.0043171462602913
-0.0040538697503507
-0.0037530045956373
-0.0034176763147115
-0.0030542057938873
-0.0026699653826653
-0.0022699865512549
-0.0018570274114608
-0.0014360854402184
-0.0010192687623202
-0.0006274445913732
-0.0002882680855691
-3.195879980921745e-05
0.000113972928375
0.0001298347488045
7.194234058260918e-06
-0.0002494028303772
-0.0006215886678546
-0.0010775087866932
-0.001574647380039
-0.0020656178239732
-0.0025052414275705
-0.0028565097600221
-0.0030941381119191
-0.0032053999602794
-0.0031886929646134
-0.0030513561796396
-0.0028082872740924
-0.0024804486893117
-0.0020914038177579
-0.0016639506211504
-0.0012196358293294
-0.0007788576185703
-0.000358666293323
2.994062379002571e-05
0.0003819675184786
0.0006964986678212
0.0009761995170265
0.0012276857160031
0.0014600427821278
0.001681842142716
0.0018988221418112
0.0021135825663805
0.0023265162017196
0.0025364803150296
0.0027416155207902
0.002940353937447
0.0031316666863858
0.0033149253576993
0.0034898058511316
0.0036559612490236
0.0038125510327517
0.0039586541242897
0.0040954900905489
0.00422801123932
0.0043618706986308
0.0044966423884034
0.0046207830309867
0.0047120633535087
0.0047423411160707
0.0046834265813231
0.0045124785974621
0.0042168740183115
0.0037973979488015
0.0032684663310647
0.0026559517718851
0.0019939765334129
0.0013213260099291
0.0006775092333555
9.930692613124847e-05
-0.0003826227039098
-0.0007477682083845
-0.0009876610711216
-0.0011042896658182
-0.0011072186753153
-0.0010106964036822
-0.0008315294981002
-0.0005880007520318
-0.0002981349825859
2.280622720718384e-05
0.0003633433952927
0.0007154773920774
0.0010747909545898
0.0014407001435756
0.0018168380483984
0.0022116713225841
0.0026379525661468
0.0031098769977688
0.0036384686827659
0.004227359779179
0.0048709549009799
0.0055552460253238
0.0062610106542706
0.0069677531719207
0.0076554068364202
0.0083047300577163
0.0088991504162549
0.0094259921461343
0.009875888004899
0.0102425934746861
0.010523309931159
0.0107195219025015
0.0108380569145083
0.0108898552134633
0.010885982774198
0.0108330361545085
0.0107296407222747
0.010564393363893
0.0103166671469807
0.0099622784182429
0.0094811543822288
0.0088616982102394
0.0081013236194849
0.0072054779157042
0.0061866380274295
0.0050642332062125
0.0038643204607069
0.0026176758110523
0.0013577532954514
0.0001189480535686
-0.0010660733096301
-0.0021692430600523
-0.003168486058712
-0.004047926981002
-0.0047981347888708
-0.0054162796586751
-0.005905345082283
-0.0062723434530198
-0.006526572164148
-0.0066789868287742
-0.0067418739199638
-0.0067270779982209
-0.0066436710767447
-0.0064972788095474
-0.0062911263667047
-0.0060272011905908
-0.0057062925770878
-0.005328357219696
-0.0048950635828077
-0.0044118491932749
-0.0038871327415108
-0.003330772742629
-0.0027533988468348
-0.0021659205667674
-0.0015788772143423
-0.0010019405744969
-0.0004436536692082
8.894875645637512e-05
0.0005912403576076
0.001062128227204
0.0015043248422443
0.0019229333847761
0.0023230616934597
0.0027084532193839
0.0030811610631644
0.0034392673987895
0.003771579824388
0.0040531950071454
0.0042463354766368
0.004306542687118
0.0041913506574928
0.0038689607754349
0.0033246933016926
0.0025633163750171
0.00160843716003
0.000501578208059
-0.0007003345526754
-0.0019320636056363
-0.0031298459507524
-0.0042386315762996
-0.0052143968641757
-0.006024170666933
-0.0066468995064496
-0.0070738308131694
-0.0073068286292254
-0.0073560830205678
-0.0072382227517664
-0.0069751678965985
-0.0065937400795519
-0.0061244294047355
-0.0055983671918511
-0.0050432821735739
-0.0044806650839746
-0.0039254897274076
-0.0033866739831864
-0.0028675664216279
-0.002367032226175
-0.0018797968514263
-0.0013962145894765
-0.0009028315544128
-0.0003844937309622
0.0001717833802103
0.0007734703831374
0.0014214278198778
0.0021104817278683
0.0028305654413998
0.0035672998055815
0.0043033161200582
0.005021187942475
0.0057053240016102
0.0063418680801987
0.0069186054170131
0.0074262414127588
0.0078607257455587
0.0082248952239751
0.0085270470008254
0.0087757250294089
0.0089726485311985
0.0091066500172019
0.0091518172994256
0.0090710734948515
0.0088222604244947
0.0083649111911654
0.007669162005186
0.0067243515513837
0.005541743710637
0.0041516413912177
0.002599217928946
0.0009404215961694
-0.0007628719322383
-0.0024482072331011
-0.0040568266995251
-0.0055363955907523
-0.0068436921574175
-0.0079467063769698
-0.008824449032545
-0.0094661489129066
-0.0098721254616975
-0.0100552216172218
-0.0100399311631917
-0.0098590198904275
-0.0095492163673043
-0.0091460347175598
-0.0086792837828397
-0.008171260356903
-0.0076366611756384
-0.0070830504409968
-0.0065114642493426
-0.0059172008186578
-0.0052918973378837
-0.0046268831938505
-0.0039161280728876
-0.0031573572196066
-0.0023515680804848
-0.0015032701194286
-0.0006217467598617
0.0002796244807541
0.0011861557140946
0.0020837583579123
0.0029594651423394
0.0038022219669073
0.0046046036295592
0.0053642755374312
0.0060832509770989
0.0067656803876161
0.0074167200364172
0.0080411797389388
0.0086391260847449
0.0092001101002097
0.0096997190266847
0.0101002026349306
0.0103550720959901
0.0104163009673357
0.010242766700685
0.0098085477948188
0.0091088861227035
0.0081620831042528
0.0070069916546344
0.0056973067112267
0.004295187536627
0.0028664299752563
0.0014766992535442
0.0001870942069217
-0.0009507718496024
-0.001899323076941
-0.0026385579258203
-0.0031667449511587
-0.0034973444417119
-0.0036542781163007
-0.0036682218778878
-0.0035741270985454
-0.0034083155915141
-0.0032048113644123
-0.0029919687658548
-0.0027895015664398
-0.0026064277626574
-0.0024408320896327
-0.0022814134135842
-0.0021107729990035
-0.0019088224507868
-0.0016545765101909
-0.0013286665780469
-0.0009180944180116
-0.0004193620989099
0.0001627043675398
0.0008175770635716
0.0015305781271308
0.0022840595338493
0.0030586600769311
0.0038347141817212
0.0045945956371724
0.0053252866491675
0.006019084714353
0.0066720601171255
0.0072804172523319
0.0078344885259866
0.0083129284903407
0.008680080063641
0.0088869128376245
0.0088767446577548
0.008595323190093
0.0080014420673251
0.0070758410729467
0.0058271451853215
0.0042934543453156
0.0025391080416738
0.0006469395011663
-0.0012916144914925
-0.0031852237880229
-0.0049489382654428
-0.0065097445622086
-0.0078129302710294
-0.0088274329900741
-0.0095469737425446
-0.0099867340177297
-0.010178318247199
-0.0101650431752204
-0.0099975559860467
-0.0097288647666573
-0.009408576413989
-0.0090772872790694
-0.0087623707950115
-0.0084762871265411
-0.0082176821306347
-0.007974567823112
-0.0077287834137678
-0.0074603962711989
-0.007151011377573
-0.0067859562113881
-0.0063559296540915
-0.005858123768121
-0.0052953497506678
-0.0046741180121898
-0.0040038172155618
-0.0032962886616587
-0.0025654588826
-0.0018268763087689
-0.0010960313957184
-0.0003863121382892
0.0002914820797741
0.0009277462959289
0.0015111449174582
0.0020235828123986
0.0024347240105271
0.0027005677111446
0.0027671763673424
0.0025772722437977
0.0020792284049093
0.0012377384118735
4.3161213397979736e-05
-0.0014827989507466
-0.0032865481916815
-0.0052875154651701
-0.0073863919824361
-0.0094748800620436
-0.0114455232396721
-0.0131996516138315
-0.0146538820117712
-0.0157460942864418
-0.0164391994476318
-0.0167218204587698
-0.0166074633598327
-0.016133090481162
-0.0153549369424581
-0.0143402582034468
-0.0131586901843547
-0.0118753919377923
-0.0105446111410856
-0.00920479465276
-0.0078777372837066
-0.0065714507363736
-0.0052840975113213
-0.0040084095671772
-0.0027375640347599
-0.0014698263257741
-0.0002087280154228
0.0010402919724583
0.0022736270911991
0.0034911213442683
0.0046961028128862
0.0058953939005732
0.0070979883894324
0.0083119431510567
0.0095416810363531
0.0107859782874584
0.0120364557951688
0.0132781788706779
0.014492105692625
0.0156569257378578
0.0167490914463996
0.0177414212375879
0.0186002179980278
0.0192816983908414
0.0197311826050281
0.0198876895010471
0.0196925029158592
0.0190989300608634
0.018082121387124
0.0166473612189292
0.0148337036371231
0.0127119123935699
0.0103779258206486
0.0079424912109971
0.0055186860263347
0.003210716182366
0.0011057734955102
-0.0007308109197765
-0.0022567664273083
-0.0034507131204009
-0.0043092668056488
-0.0048459246754646
-0.0050901169888675
-0.0050841215997934
-0.0048789302818477
-0.0045306971296668
-0.0040966155938804
-0.0036291766446083
-0.0031705272849649
-0.0027483645826578
-0.0023737149313092
-0.0020410681609064
-0.0017305756919085
-0.0014121020212769
-0.0010504580568522
-0.0006105329375714
-6.312807090580463e-05
0.0006087305955588
0.0014070542529225
0.0023212395608425
0.0033312749583274
0.0044088852591812
0.0055188788101077
0.006622739136219
0.0076830200850963
0.0086668310686945
0.0095479758456349
0.0103079006075859
0.0109365535899996
0.0114329289644956
0.0118028400465846
0.0120528899133205
0.0121823120862245
0.0121759427711367
0.0120017817243933
0.0116140749305486
0.0109600825235247
0.0099893026053905
0.0086653372272849
0.0069780354388058
0.0049508507363498
0.0026417002081871
0.0001383726485073
-0.002451532986015
-0.0050141201354563
-0.0074421796016395
-0.0096452450379729
-0.011554742231965
-0.0131239267066121
-0.0143255861476063
-0.0151495309546589
-0.0156001225113868
-0.0156948938965797
-0.0154643226414918
-0.0149509795010089
-0.0142063125967979
-0.0132849644869565
-0.0122385136783123
-0.0111102554947137
-0.0099321771413087
-0.0087256710976362
-0.0075054187327623
-0.0062830857932567
-0.0050685140304267
-0.0038693468086421
-0.0026904991827905
-0.0015336368232965
-0.0003972009290009
0.0007223128341138
0.0018288074061274
0.0029253307729959
0.0040117730386555
0.0050819725729525
0.0061219832859933
0.0071103586815297
0.0080210994929075
0.0088282851502299
0.0095101594924926
0.0100516732782125
0.0104453181847929
0.0106896292418241
0.0107851009815931
0.0107303839176893
0.0105210607871413
0.0101486621424555
0.0095996083691716
0.0088570024818182
0.0079052429646253
0.0067354748025536
0.0053507052361965
0.0037698168307542
0.0020294329151511
0.0001825140789151
-0.0017055701464414
-0.0035615675151348
-0.0053102802485227
-0.0068833297118544
-0.0082277134060859
-0.009309472516179
-0.0101128965616226
-0.0106390342116355
-0.0109040336683392
-0.0109361475333571
-0.010772350244224
-0.0104547664523124
-0.0100262630730867
-0.00952666439116
-0.0089899394661188
-0.0084408093243837
-0.0078928181901574
-0.0073502124287188
-0.0068110777065157
-0.0062695303931832
-0.005718023981899
-0.0051493667997419
-0.0045568803325295
-0.0039344630204141
-0.0032782587222754
-0.0025879726745188
-0.0018675159662961
-0.0011257226578891
-0.0003747437149286
0.0003731427714228
0.0011058039963245
0.0018096221610903
0.0024698404595255
0.0030727991834282
0.0036086151376366
0.0040730042383074
0.0044673280790448
0.0047974465414881
0.0050708670169115
0.0052914321422576
0.005453273653984
0.0055370396003127
0.0055115167051553
0.0053407009690999
0.0049922913312911
0.0044447379186749
0.0036921603605151
0.002746557816863
0.0016374019905924
0.0004085544496774
-0.0008874963968992
-0.0021958295255899
-0.003463365137577
-0.0046407305635511
-0.0056832837872207
-0.0065533085726201
-0.0072230133228003
-0.0076778251677751
-0.0079196095466613
-0.0079669617116451
-0.0078514087945222
-0.0076118404977023
-0.0072884671390056
-0.0069171255454421
-0.0065258285030722
-0.0061334515921771
-0.0057500889524817
-0.0053798062726855
-0.0050234100781381
-0.0046780901029706
-0.0043356022797524
-0.0039826463907957
-0.0036039208061993
-0.0031857260037213
-0.0027184491045773
-0.0021973983384668
-0.0016228719614446
-0.0010003880597651
-0.0003402018919587
0.000344508793205
0.0010400363244116
0.0017344742082059
0.0024196971207857
0.0030918684788048
0.0037493808194994
0.0043899705633521
0.0050087408162653
0.0055955252610147
0.0061313770711421
0.0065874336287379
0.0069282976910471
0.0071183168329298
0.0071273772045969
0.0069350320845842
0.0065341885201632
0.0059338118880987
0.0051585473120212
0.0042456034570932
0.0032409969717264
0.0021955771371722
0.0011604172177612
0.0001831715926527
-0.0006937803700566
-0.0014358749613165
-0.0020200363360345
-0.0024369307793676
-0.0026911851018667
-0.0028004054911434
-0.002792760496959
-0.0027031684294342
-0.0025686421431601
-0.0024228116963058
-0.0022907517850399
-0.002186739584431
-0.0021159332245588
-0.0020778353791683
-0.0020684809423983
-0.0020806302782148
-0.0021037829574197
-0.0021251658909022
-0.0021316760685294
-0.0021125816274434
-0.0020616080146282
-0.0019776544068008
-0.0018646912649273
-0.0017300026956945
-0.0015809792093932
-0.0014227444771677
-0.0012571988627314
-0.0010835500434041
-0.0009003244340419
-0.0007070861756801
-0.00050517055206
-0.0002985692117363
-9.596277959644794e-05
8.635222911834717e-05
0.0002228629309684
0.0002804417163133
0.000223079463467
1.8151942640542984e-05
-0.0003576995804905
-0.0009129502577707
-0.0016368862707167
-0.0024996032007038
-0.0034559906926006
-0.0044519025832414
-0.0054318401962518
-0.0063463724218308
-0.0071564437821507
-0.0078331688418984
-0.008355806581676
-0.0087114544585347
-0.0088954446837306
-0.0089107081294059
-0.0087667051702737
-0.0084779607132077
-0.0080628031864762
-0.0075438804924488
-0.0069483872503042
-0.0063052270561456
-0.0056413505226373
-0.0049795778468251
-0.0043368991464376
-0.0037237866781651
-0.0031448011286556
-0.0025975909084081
-0.0020714025013148
-0.0015493715181946
-0.0010136263445019
-0.0004501123912632
0.0001486442051827
0.0007837461307644
0.0014510387554764
0.0021420828998088
0.0028468105010688
0.0035562738776206
0.0042624589987099
0.0049566533416509
0.0056295660324394
0.0062730172649025
0.0068805599585175
0.0074461796320974
0.0079613076522946
0.0084102218970656
0.0087662255391478
0.0089921941980719
0.0090465797111392
0.0088924393057823
0.0085065327584743
0.0078861936926841
0.0070507363416254
0.0060370462015271
0.0048937653191387
0.0036771311424672
0.0024467431940138
0.0012593828141689
0.0001630242913961
-0.0008057607337832
-0.0016208235174417
-0.002264198847115
-0.0027248868718743
-0.0029993886128067
-0.0030930181965231
-0.0030202828347682
-0.0028032297268509
-0.0024686148390173
-0.0020451433956623
-0.0015602679923176
-0.0010366318747401
-0.0004903608933091
6.793998181819916e-05
0.0006315661594271
0.0011974116787314
0.0017669228836894
0.0023464281111955
0.0029448084533214
0.0035699652507901
0.0042265728116035
0.0049150055274367
0.005630518309772
0.0063628945499658
0.0070973578840494
0.0078166695311665
0.0085044857114553
0.0091486945748329
0.0097414767369627
0.0102769155055284
0.0107495319098234
0.0111545184627175
0.0114898541942238
0.0117581551894545
0.0119636338204145
0.0121044712141156
0.0121661238372325
0.0121200736612081
0.0119279976934194
0.011548139154911
0.010942455381155
0.0100850081071257
0.0089699737727642
0.007615415379405
0.0060614934191107
0.0043654236942529
0.0025937797036021
0.000813347287476
-0.000914238858968
-0.0025334730744361
-0.0039965473115444
-0.0052658608183264
-0.0063150888308882
-0.0071296063251793
-0.0077068977989256
-0.0080561442300677
-0.0081966537982225
-0.008155083283782
-0.0079615600407123
-0.0076455497182905
-0.0072333677671849
-0.0067480807192623
-0.0062101087532937
-0.0056373714469373
-0.0050447331741452
-0.0044426312670111
-0.0038359859026968
-0.0032247430644929
-0.0026062037795782
-0.0019780560396611
-0.0013398728333413
-0.0006922674365341
-3.5775359719991684e-05
0.0006289281882345
0.0012997919693589
0.0019719873089343
0.0026374731678515
0.0032857253681868
0.0039050944615155
0.0044850446283817
0.0050186356529593
0.0055036600679159
0.0059421462938189
0.006338994950056
0.0066995499655604
0.0070247584953904
0.0073044691234827
0.0075126131996512
0.0076076830737292
0.0075386459939181
0.0072541637346148
0.0067122406326234
0.005888489075005
0.0047824680805206
0.0034207340795546
0.0018546035280451
0.0001531369052827
-0.0016055908054113
-0.0033429535105824
-0.0049869990907609
-0.0064777764491736
-0.0077706621959805
-0.008836823515594
-0.0096614966168999
-0.0102424267679452
-0.0105886086821556
-0.0107185263186693
-0.0106578348204493
-0.0104361018165946
-0.0100835897028446
-0.0096298772841691
-0.0091030411422252
-0.0085269566625356
-0.0079182721674442
-0.0072861658409237
-0.0066340565681457
-0.0059614293277263
-0.0052663944661617
-0.0045483792200684
-0.0038089547306299
-0.0030511373188346
-0.0022791104856878
-0.0014982362044975
-0.0007144607952795
6.553559796884656e-05
0.0008335557649843
0.0015804432332515
0.0022975441534072
0.002978345612064
0.0036197262816131
0.0042210943065583
0.004782288800925
0.0053031244315207
0.0057851574383676
0.0062334723770618
0.0066560278646647
0.0070600714534521
0.0074462732300162
0.007802456151694
0.0081014093011617
0.0083048800006508
0.0083697959780693
0.0082535520195961
0.0079191178083419
0.0073408484458923
0.0065103587694466
0.005440330132842
0.0041647087782621
0.0027352168690413
0.0012150718830525
-0.0003282155375927
-0.001829246757552
-0.0032294441480189
-0.0044797281734645
-0.005541805177927
-0.0063895964995026
-0.0070110252127051
-0.0074087427929043
-0.0075989393517374
-0.0076085291802883
-0.0074711022898554
-0.0072221476584672
-0.0068950159475207
-0.0065186428837478
-0.0061162142083048
-0.0057034278288483
-0.0052866744808852
-0.0048635695129632
-0.0044270306825637
-0.0039693475700914
-0.003482622327283
-0.0029580648988485
-0.0023877799976617
-0.0017680975142866
-0.0011018811492249
-0.0003985990770161
0.0003280965611338
0.0010638774838298
0.0017962681595236
0.0025160727091133
0.003217565594241
0.0038971854373812
0.0045524109154939
0.0051814001053571
0.0057823397219181
0.0063530365005135
0.0068898978643119
0.0073833651840686
0.0078125586733222
0.0081451386213302
0.0083416812121868
0.008360493928194
0.008163115940988
0.0077215102501213
0.0070246756076812
0.0060827289707958
0.0049276491627097
0.0036105131730437
0.0021961559541523
0.0007560597732663
-0.0006396281532943
-0.0019292365759611
-0.0030640913173556
-0.0040103667415678
-0.0047497176565229
-0.0052791372872889
-0.0056102410890161
-0.0057679153978824
-0.0057869115844368
-0.0057072681374847
-0.0055705839768052
-0.005415913183242
-0.0052743600681424
-0.0051645645871758
-0.0050916657783091
-0.0050502028316259
-0.0050285644829273
-0.0050123035907745
-0.0049859369173645
-0.0049341828562319
-0.0048433705233037
-0.0047030271962285
-0.0045071961358189
-0.004254940431565
-0.0039494279772043
-0.0035963994450867
-0.0032035554759204
-0.0027803203556686
-0.0023368159309029
-0.0018826653249561
-0.001426548231393
-0.0009758034721016
-0.0005357814952731
-0.0001102872192859
0.000296436715871
0.0006767399609088
0.0010162037797272
0.0012907576747238
0.0014655455015599
0.0014979131519794
0.0013451725244522
0.0009735785424709
0.0003651776351034
-0.0004773512482643
-0.0015276868361979
-0.002736936090514
-0.0040401211008429
-0.0053651719354093
-0.0066412566229701
-0.007806054316461
-0.0088106980547308
-0.0096206553280353
-0.010213678702712
-0.0105775985866785
-0.0107098473235964
-0.0106184314936399
-0.0103223659098148
-0.0098502077162265
-0.0092371637001633
-0.0085212895646691
-0.0077397278510034
-0.0069267633371055
-0.0061128325760364
-0.0053218612447381
-0.004567954223603
-0.0038546207360923
-0.0031768220942467
-0.0025240159593522
-0.001882686978206
-0.0012377384118735
-0.0005736637394875
0.000123290810734
0.0008629595395177
0.0016501923091709
0.0024837185628712
0.0033551030792295
0.0042496365495026
0.0051486631855368
0.0060320515185594
0.0068800956942141
0.0076739434152841
0.0083964820951223
0.0090359020978212
0.0095880329608917
0.0100529137998819
0.0104276686906814
0.010699713602662
0.010842652991414
0.0108176572248339
0.0105805844068527
0.0100914221256971
0.0093237552791833
0.0082728387787938
0.0069599514827132
0.005431150086224
0.0037509386893361
0.0019942421931773
0.0002387706190347
-0.0014417693018913
-0.0029821805655956
-0.0043283519335091
-0.0054394919425249
-0.006290003657341
-0.0068708551116287
-0.0071888091042637
-0.0072625745087862
-0.0071190511807799
-0.0067909127101302
-0.0063138152472674
-0.0057233870029449
-0.0050531201995909
-0.0043326001614332
-0.003585607279092
-0.002829369623214
-0.0020742793567478
-0.0013228356838226
-0.0005705934017896
0.0001898184418678
0.0009647142142057
0.0017572198994457
0.002567661460489
0.0033958121202886
0.0042415433563292
0.0051022423431277
0.0059695625677704
0.0068289199844002
0.0076624173671007
0.0084526827558875
0.0091853309422731
0.0098501741886138
0.0104413935914635
0.0109563618898391
0.0113935237750411
0.011748906224966
0.0120110716670751
0.0121569205075502
0.0121508939191699
0.0119484979659318
0.011503973044455
0.0107799861580133
0.0097566526383161
0.0084382575005292
0.0068561732769012
0.0050672688521444
0.0031481340993195
0.0011852404568344
-0.0007360738236457
-0.0025397697463631
-0.0041640717536211
-0.0055636819452047
-0.0067089423537254
-0.0075833029113709
-0.008181307464838
-0.0085079800337553
-0.0085789933800697
-0.0084205437451601
-0.0080680232495069
-0.0075630047358572
-0.00694874022156
-0.0062655415385961
-0.0055477865971624
-0.0048223789781332
-0.0041077304631471
-0.0034135023597627
-0.0027416120283305
-0.0020886687561869
-0.0014487113803625
-0.0008142655715346
-0.0001761536113917
0.0004756513517349
0.0011498667299747
0.0018517300486564
0.0025811591185629
0.0033311299048364
0.0040876008570194
0.0048321560025215
0.0055458932183682
0.0062126647680997
0.0068208728916943
0.007363939192146
0.0078395698219537
0.0082461312413215
0.008575901389122
0.0088094724342226
0.0089158080518245
0.0088569968938827
0.008593994192779
0.0080932537093758
0.0073347007855772
0.0063178017735481
0.0050632013007998
0.0036110621877014
0.0020178239792585
0.0003516126889735
-0.0013136081397533
-0.0029049254953861
-0.0043576955795288
-0.0056204218417406
-0.0066567314788699
-0.0074464455246925
-0.0079851746559143
-0.0082824658602476
-0.0083600059151649
-0.008249057456851
-0.0079869665205478
-0.0076136486604809
-0.0071676229126751
-0.006681858561933
-0.0061808312311768
-0.0056791040115058
-0.0051809521391987
-0.0046814121305942
-0.0041687325574457
-0.0036272858269512
-0.0030410392209887
-0.0023973162751644
-0.0016891122795641
-0.0009158324683085
-8.408178109675646e-05
0.0007921728538349
0.0016946446849033
0.0026053909678012
0.003508690977469
0.0043903365731239
0.0052373637445271
0.0060383873060345
0.0067832232452929
0.0074612209573388
0.0080586094409227
0.008556262589991
0.00892851408571
0.0091428402811288
0.0091625303030014
0.0089535498991608
0.0084925154224038
0.0077727646566927
0.0068075214512646
0.0056296680122613
0.0042884657159447
0.0028444495983421
0.0013635177165269
-8.90982337296009e-05
-0.0014536413364112
-0.0026788567192852
-0.0037245843559503
-0.004563835915178
-0.0051835197955369
-0.0055851358920335
-0.0057844696566462
-0.0058080940507352
-0.0056894184090197
-0.0054660849273204
