bvp
-0.0080540534108877
-0.0077027939260005
-0.0072509013116359
-0.0067325290292501
-0.0061716991476714
-0.0055814334191381
-0.0049638897180557
-0.0043118302710354
-0.0036118677817285
-0.0028478940948843
-0.002004561247304
-0.0010719242272898
-4.964024992659688e-05
0.0010514020686969
0.0022106952965259
0.0034025365021079
0.0046009542420506
0.0057825571857392
0.0069275912828743
0.0080218529328703
0.009059420786798
0.0100421458482742
0.0109730698168277
0.0118460971862077
0.0126378834247589
0.0133055755868554
0.0137893632054328
0.0140179535374045
0.0139167383313179
0.0134192472323775
0.0124807339161634
0.0110902152955532
0.0092765484005212
0.0071058408357203
0.0046723866835236
0.0020886054262518
-0.0005244705826044
-0.0030474062077701
-0.0053708273917436
-0.0074003860354423
-0.0090606128796935
-0.0102986171841621
-0.0110862730070948
-0.0114208925515413
-0.0113251563161611
-0.0108447279781103
-0.0100420787930488
-0.0089884856715798
-0.0077563426457345
-0.0064134378917515
-0.0050207790918648
-0.0036313543096184
-0.0022876267321407
-0.001020735129714
0.000148108229041
0.0012065228074789
0.0021491535007953
0.0029738079756498
0.0036781532689929
0.004258869215846
0.004711247049272
0.0050290850922465
0.00520686712116
0.0052430182695388
0.00514174439013
0.0049117235466837
0.0045623742043972
0.0041022598743438
0.0035397475585341
0.0028798095881938
0.002116585150361
0.0012280838564038
0.0001769363880157
-0.0010831682011485
-0.0025969976559281
-0.0043958676978945
-0.0064877327531576
-0.0088510476052761
-0.0114332344383001
-0.0141550367698073
-0.0169189646840095
-0.0196176785975694
-0.022141970694065
-0.0243895761668682
-0.0262732915580272
-0.0277267917990684
-0.0287073999643325
-0.0291963033378124
-0.0291976071894168
-0.0287366993725299
-0.0278577432036399
-0.026619765907526
-0.0250912345945835
-0.023344000801444
-0.0214475356042385
-0.0194633360952138
-0.0174399632960557
-0.0154107864946126
-0.013394464738667
-0.0113965384662151
-0.0094123547896742
-0.0074320174753665
-0.005445993039757
-0.0034492178820073
-0.0014426722191274
0.0005675959400832
0.0025725928135216
0.0045613241381943
0.0065204892307519
0.008434641174972
0.0102870911359786
0.0120603088289499
0.0137355513870716
0.0152928903698921
0.0167122073471546
0.0179742388427257
0.0190583206713199
0.0199357010424137
0.0205646343529224
0.020892459899187
0.0208637118339538
0.0204310901463031
0.0195647906512022
0.0182580165565013
0.0165309384465217
0.0144335590302944
0.0120435813441872
0.009458040818572
0.0067834965884685
0.0041279029101133
0.0015933769755065
-0.0007297415286302
-0.0027663838118314
-0.004457582719624
-0.0057592927478253
-0.0066411052830517
-0.0070872073993086
-0.0070999041199684
-0.0067027108743786
-0.0059396140277385
-0.0048702582716941
-0.0035629710182547
-0.0020875828340649
-0.00050940643996
0.0011149626225233
0.0027394043281674
0.0043285805732011
0.0058588455431163
0.0073184939101338
0.0087050283327698
0.0100203631445765
0.0112663470208644
0.0124423801898956
0.0135447857901453
0.0145662911236286
0.0154955517500638
0.0163175258785486
0.0170148499310016
0.0175700057297945
0.0179686192423105
0.0182035025209188
0.0182771459221839
0.0182013642042875
0.0179944243282079
0.0176752414554357
0.0172555372118949
0.0167329013347625
0.0160870887339115
0.0152814239263534
0.0142700783908367
0.0130086615681648
0.0114648891612887
0.0096279447898268
0.007514146156609
0.005166420713067
0.0026485582347959
3.7388876080513e-05
-0.0025846739299595
-0.0051360474899411
-0.0075410278514027
-0.0097329337149858
-0.0116557842120528
-0.0132656376808881
-0.014532184228301
-0.0154406744986772
-0.0159939732402563
-0.0162129513919353
-0.0161330271512269
-0.0157987177371978
-0.0152596142143011
-0.0145670007914304
-0.0137688089162111
-0.0129042025655508
-0.0120009984821081
-0.0110765043646097
-0.0101385358721017
-0.0091849882155656
-0.0082053709775209
-0.007185760885477
-0.0061138602904975
-0.0049820696003735
-0.0037889112718403
-0.0025397040881216
-0.0012471639784052
6.926525384187698e-05
0.0013865844812244
0.0026823033113032
0.003936955705285
0.005135241895914
0.0062679257243871
0.0073339249938726
0.0083390120416879
0.009289214387536
0.0101815564557909
0.0109974909573793
0.0117016341537237
0.0122451018542051
0.0125728268176317
0.0126333255320787
0.012387990951538
0.0118189174681901
0.0109351687133312
0.0097748413681983
0.0084007093682885
0.006890351884067
0.0053240768611431
0.0037750573828816
0.0023051016032695
0.0009649312123656
-0.0002059042453765
-0.001181642524898
-0.0019536903128027
-0.0025317417457699
-0.0029409285634756
-0.0032176515087485
-0.0034064874053001
-0.0035561406984925
-0.0037127025425434
-0.0039120055735111
-0.0041743284091353
-0.0045024706050753
-0.0048830416053533
-0.0052912514656782
-0.0056962063536047
-0.0060640280134975
-0.0063613345846533
-0.0065602138638496
-0.0066415583714842
-0.0065954504534602
-0.0064203566871583
-0.006121763959527
-0.0057095736265182
-0.0051954705268144
-0.0045930808410048
-0.0039205458015203
-0.003201525658369
-0.0024636164307594
-0.0017373822629451
-0.0010578501969575
-0.0004661781713366
-8.303672075271606e-06
0.0002694251015782
0.0003257365897297
0.0001292768865823
-0.0003374479711055
-0.0010737795382738
-0.0020580971613526
-0.0032503120601177
-0.0045984722673892
-0.0060450322926044
-0.0075308550149202
-0.0089978957548737
-0.0103922076523303
-0.0116669610142707
-0.0127835683524608
-0.0137110762298107
-0.0144262695685029
-0.0149160511791706
-0.0151802087202668
-0.0152309108525514
-0.0150889307260513
-0.0147804198786616
-0.0143353175371885
-0.0137853026390075
-0.0131603619083762
-0.012484636157751
-0.0117734428495168
-0.0110333878546953
-0.0102654686197638
-0.0094687482342123
-0.0086421445012092
-0.0077845826745033
-0.0068954229354858
-0.0059755621477961
-0.0050280829891562
-0.0040580509230494
-0.0030720217619091
-0.0020780975464731
-0.0010864126961678
-0.0001091412268579
0.0008406438864767
0.0017516104271635
0.0026164087466895
0.0034308331087231
0.0041898931376636
0.0048815803602337
0.0054806591942906
0.0059477956965565
0.0062353257089853
0.0062953159213066
0.0060874088667333
0.0055862427689135
0.0047872615978121
0.003709786105901
0.0023966571316123
0.0009102897020056
-0.0006733397021889
-0.0022717572282999
-0.0038037823978811
-0.005196139216423
-0.0063877222128212
-0.0073319966904819
-0.0079974364489316
-0.0083662699908018
-0.0084338430315256
-0.0082097668200731
-0.0077183307148516
-0.0069959568791091
-0.006086278706789
-0.0050352057442069
-0.0038880491629242
-0.0026872958987951
-0.0014689518138766
-0.0002588396891951
0.0009292662143707
0.0020924527198076
0.0032339002937078
0.0043575661256909
0.0054659061133861
0.0065601281821727
0.0076408544555306
0.0087082348763942
0.0097606219351291
0.0107920812442898
0.0117917014285922
0.0127461338415741
0.0136429034173488
0.0144723914563655
0.0152288246899843
0.0159098654985427
0.0165139902383089
0.0170377679169178
0.0174742732197046
0.017810458317399
0.0180236957967281
0.0180808193981647
0.0179408472031354
0.0175599791109561
0.0168974511325359
0.0159215740859508
0.0146162854507565
0.0129876211285591
0.0110677629709243
0.0089148972183465
0.006608270574361
0.0042395778000354
0.0019033583812415
-0.0003114459104835
-0.002328070346266
-0.0040871785022318
-0.0055501549504697
-0.0066989371553063
-0.0075330771505832
-0.0080663226544857
-0.0083242952823638
-0.008342171087861
-0.0081608900800347
-0.0078226849436759
-0.0073667452670633
-0.00682626478374
-0.0062276716344058
-0.00559002161026
-0.0049241380766034
-0.0042333165183663
-0.0035153347998857
-0.0027655139565467
-0.001980846747756
-0.0011626528576016
-0.0003163190558552
0.0005492931231856
0.0014214706607162
0.0022845873609185
0.0031219162046909
0.0039162863977253
0.0046518072485923
0.0053174090571701
0.0059082065708935
0.0064234156161546
0.0068644569255411
0.0072355675511062
0.0075443354435265
0.0077986102551221
0.0080000646412372
0.0081376153975725
0.0081828422844409
0.0080894669517874
0.0077997269108891
0.0072559220716357
0.006412754766643
0.005248671863228
0.0037730582989752
0.0020261700265109
7.386109791696072e-05
-0.0020006392151117
-0.0041070762090384
-0.0061577530577778
-0.0080737750977277
-0.0097882384434342
-0.011247961781919
-0.0124146221205592
-0.0132655426859855
-0.0137943550944328
-0.0140107283368706
-0.0139380097389221
-0.0136091168969869
-0.0130625907331705
-0.0123394653201103
-0.0114800129085779
-0.0105203464627265
-0.0094896331429481
-0.0084091033786535
-0.0072927963919937
-0.0061475397087633
-0.004972799681127
-0.0037633241154253
-0.0025124363601207
-0.0012137200683355
0.00013711117208
0.0015407539904117
0.0029940106905996
0.004488615784794
0.0060099074617028
0.007537767291069
0.0090491911396384
0.0105207655578851
0.011931138113141
0.0132636409252882
0.0145077304914593
0.0156573839485645
0.0167049337178468
0.0176316909492015
0.0184012167155742
0.0189596358686685
0.0192422047257423
0.0191846024245023
0.0187362655997276
0.0178703032433986
0.0165885891765356
0.0149238239973783
0.0129370149224996
0.0107102449983358
0.0083376951515674
0.0059167062863707
0.0035407040268182
0.0012944031041115
-0.0007509381975978
-0.0025422554463148
-0.0040465695783495
-0.0052501098252832
-0.0061576599255204
-0.0067913047969341
-0.0071859844028949
-0.0073835849761962
-0.0074281515553593
-0.0073624406941235
-0.0072251828387379
-0.0070484327152371
-0.0068551935255527
-0.0066580744460225
-0.0064589474350214
-0.0062498329207301
-0.006015564315021
-0.0057376231998205
-0.0053981118835508
-0.0049827815964818
-0.0044831056147813
-0.0038982303813099
-0.0032357592135667
-0.0025102926883846
-0.0017407664563506
-0.0009474975522607
-0.0001496723853051
0.0006357138045132
0.0013933666050434
0.0021075191907584
0.0027576349675655
0.0033125495538115
0.0037258206866681
0.0039364099502563
0.0038766940124332
0.0034850053489208
0.0027174944989383
0.0015564472414553
1.421058550477028e-05
-0.0018676188774406
-0.0040222834795713
-0.0063632326200604
-0.0087906485423445
-0.0112002464011311
-0.0134933348745107
-0.0155838383361697
-0.0174004584550857
-0.0188874974846839
-0.0200066361576318
-0.0207375939935445
-0.0210770014673471
-0.0210377257317304
-0.0206484887748956
-0.019950982183218
-0.0189951099455356
-0.017834648489952
-0.0165227353572845
-0.0151074808090925
-0.0136289820075035
-0.0121173514053225
-0.0105919148772954
-0.0090621011331677
-0.0075294794514775
-0.00599065143615
-0.0044404091313481
-0.0028747550677508
-0.0012939698062837
0.0002954369410872
0.0018813356291502
0.0034482539631426
0.0049786670133471
0.0064529501833021
0.0078503629192709
0.0091512240469455
0.0103390403091907
0.0114023424685001
0.0123338960111141
0.0131245125085115
0.0137542057782411
0.0141868516802787
0.0143712079152464
0.0142472935840487
0.0137565825134515
0.012854672037065
0.0115237152203917
0.009780784137547
0.0076795779168605
0.0053054834716022
0.0027657700702548
0.0001774001866579
-0.0023445188999176
-0.0046954997815191
-0.0067872074432671
-0.0085501447319984
-0.0099353147670626
-0.0109163867309689
-0.0114903561770915
-0.0116740483790636
-0.0114979408681392
-0.0110015645623207
-0.0102314576506614
-0.0092387208715081
-0.0080747930333018
-0.0067875580862164
-0.0054193856194615
-0.0040053911507129
-0.0025712614879012
-0.0011331904679536
0.0002996223047375
0.0017223032191395
0.0031325127929449
0.0045291846618056
0.0059118033386766
0.0072796908207237
0.0086308037862181
0.009960513561964
0.0112607916817069
0.0125204855576157
0.0137259718030691
0.0148608339950442
0.0159061290323734
0.0168430022895336
0.0176558066159486
0.0183322057127952
0.0188589580357074
0.0192157663404941
0.0193714294582605
0.0192839764058589
0.0189033318310976
0.0181773602962493
0.0170626807957887
0.0155361238867044
0.0136023126542568
0.0112975966185331
0.008690008893609
0.0058731390163302
0.0029556490480899
5.059968680143356e-05
-0.0027338445652276
-0.0053020943887531
-0.0075760362669825
-0.0094962511211633
-0.0110216131433844
-0.0121305957436561
-0.0128231775015592
-0.0131203737109899
-0.0130613781511783
-0.0126994550228118
-0.0120964739471673
-0.0113150216639041
-0.0104102343320846
-0.0094255786389112
-0.0083921812474727
-0.0073292492888867
-0.0062465388327836
-0.0051487921737134
-0.0040385858155786
-0.002916604746133
-0.0017824051901698
-0.0006374600343406
0.0005117941182106
0.0016536016482859
0.0027732537128031
0.0038567818701267
0.0048938519321382
0.0058775139041244
0.0068013360723853
0.0076576359570026
0.0084391199052333
0.0091422637924551
0.009768595919013
0.0103220036253333
0.0108028529211878
0.011199977248907
0.0114836571738123
0.0116046657785773
0.0115008279681205
0.0111083621159195
0.0103757996112108
0.0092772571370005
0.0078191719949245
0.0060391062870621
0.0040007689967751
0.0017873095348477
-0.0005071498453617
-0.0027860510163009
-0.0049581238999962
-0.0069441273808479
-0.0086809061467647
-0.0101232901215553
-0.0112452264875173
-0.0120387338101863
-0.0125116081908345
-0.0126861482858657
-0.0125961899757385
-0.0122807528823614
-0.011778081767261
-0.0111228404566645
-0.0103454496711492
-0.0094719631597399
-0.0085240025073289
-0.0075183613225817
-0.0064657237380743
-0.0053701708093285
-0.0042306818068027
-0.0030435798689723
-0.0018055504187941
-0.0005159900756552
0.0008225402561947
0.002204431919381
0.0036212401464581
0.0050624888390302
0.0065158670768141
0.007966318167746
0.0093955332413315
0.0107831303030252
0.0121089816093444
0.0133541971445083
0.0144985532388091
0.0155153255909681
0.0163668524473905
0.017003322020173
0.0173663645982742
0.0173977427184581
0.0170495305210351
0.0162917636334896
0.015118995681405
0.0135560929775238
0.0116577437147498
0.0095007736235857
0.0071752844378352
0.0047772489488124
0.0024013863876461
0.0001342939212918
-0.0019512819126248
-0.0038008233532309
-0.0053808279335498
-0.0066789356060326
-0.0077006532810628
-0.0084639620035886
-0.0089946407824754
-0.0093238735571503
-0.0094862468540668
-0.0095167625695467
-0.0094484174624085
-0.0093101020902395
-0.009123295545578
-0.008898664265871
-0.0086355973035097
-0.0083266850560903
-0.0079640373587608
-0.0075429938733577
-0.0070630824193358
-0.0065267980098724
-0.0059382552281022
-0.0053051244467496
-0.0046407096087932
-0.0039618145674467
-0.0032849265262484
-0.0026238365098834
-0.0019889138638973
-0.0013878745958209
-0.0008274083957076
-0.0003152666613459
0.000136500224471
0.0005073752254247
0.0007652305066585
0.0008661970496177
0.0007587280124425
0.0003920122981071
-0.0002732835710048
-0.0012558465823531
-0.002549055032432
-0.0041206888854503
-0.0059155067428946
-0.0078607555478811
-0.0098741166293621
-0.0118709672242403
-0.0137695204466581
-0.0154953487217426
-0.0169859286397695
-0.0181939098984003
-0.0190884005278348
-0.0196553822606802
-0.0198979303240776
-0.0198350045830011
-0.019497713074088
-0.018924219533801
-0.0181554239243268
-0.0172320455312728
-0.016192065551877
-0.0150678120553493
-0.0138835720717906
-0.0126546062529087
-0.0113879032433032
-0.0100852437317371
-0.008747486397624
-0.0073773800395429
-0.0059802322648465
-0.004563654307276
-0.0031366939656436
-0.0017090808833017
-0.0002915529767051
0.0011038554366678
0.002464638557285
0.0037793391384184
0.0050394749268889
0.0062406859360635
0.0073813595809042
0.0084594134241342
0.0094696506857872
0.0104021495208144
0.0112403109669685
0.011958428658545
0.0125198662281036
0.0128774214535951
0.0129773579537868
0.0127667943015694
0.0122029688209295
0.011262958869338
0.0099515905603766
0.0083045661449432
0.0063861738890409
0.0042828386649489
0.0020938264206051
-7.85288866609335e-05
-0.0021373608615249
-0.003999276086688
-0.0056012705899775
-0.0069029326550662
-0.0078829657286405
-0.0085346307605504
-0.0088638644665479
-0.0088884523138403
-0.0086355451494455
-0.0081379171460866
-0.0074308621697127
-0.0065505653619766
-0.0055330363102257
-0.0044127614237368
-0.0032202503643929
-0.0019787140190601
-0.0007036235183477
0.0005941875278949
0.0019062799401581
0.0032262536697089
0.0045494199730455
0.0058715133927762
0.0071861669421195
0.0084828026592731
0.0097464965656399
0.0109585681930184
0.0120968641713261
0.0131372902542352
0.0140578243881464
0.0148427924141287
0.0154842026531696
0.015980465337634
0.0163350440561771
0.016555830836296
0.0166546646505594
0.0166456662118434
0.0165396928787231
0.0163362305611372
0.0160184130072593
0.0155539736151695
0.0149006433784961
0.0140141742303967
0.0128587018698453
0.0114173088222742
0.0096985474228858
0.0077370782382786
0.0055892146192491
0.0033256297465413
0.0010236795060336
-0.0012399245752021
-0.0033954046666622
-0.0053844610229134
-0.0071625094860792
-0.0086973439902067
-0.0099656414240598
-0.0109512070193886
-0.0116457799449563
-0.0120505187660455
-0.0121774664148688
-0.0120504358783364
-0.0117032742127776
-0.0111753167584538
-0.0105065861716866
-0.009734128601849
-0.0088903792202472
-0.0080032013356685
-0.0070948405191302
-0.0061802696436643
-0.005267642904073
-0.0043604192323982
-0.0034596403129398
-0.0025662933476269
-0.0016833073459565
-0.0008154897950589
3.194482997059822e-05
0.0008537741377949
0.0016450972761958
0.0024018688127398
0.003119048429653
0.0037888577207922
0.0044030165299773
0.0049563669599592
0.0054483767598867
0.0058826175518333
0.0062647247686982
0.0065984353423118
0.0068795727565884
0.0070895561948418
0.007193149998784
0.0071435128338634
0.0068917218595743
0.0063970694318413
0.0056364731863141
0.0046114586293697
0.0033506827894598
0.0019062946084886
0.0003445970360189
-0.0012645667884498
-0.0028541227802634
-0.0043618185445666
-0.005731632001698
-0.0069154314696788
-0.0078750504180789
-0.0085853915661573
-0.0090371677652001
-0.0092369578778743
-0.009204838424921
-0.0089716194197535
-0.008575165644288
-0.0080549633130431
-0.0074462741613388
-0.0067755621857941
-0.006058819591999
-0.0053024762310087
-0.0045050638727843
-0.0036594802513718
-0.0027558794245123
-0.0017841672524809
-0.0007358267903327
0.0003942125476896
0.0016060345806181
0.0028940665069967
0.0042462712153792
0.0056437300518155
0.0070627494715154
0.008478426374495
0.009867139160633
0.0112077984958887
0.0124818608164787
0.0136724589392542
0.0147642455995082
0.0157429780811071
0.0165920741856098
0.0172870308160781
0.0177918411791324
0.0180598050355911
0.0180388931185007
0.0176805574446916
0.0169491190463304
0.0158290937542915
0.0143301244825124
0.012489496730268
0.0103701744228601
0.0080536417663097
0.0056307986378669
0.0031944394577294
0.0008332489524036
-0.0013741992879658
-0.003364616073668
-0.0050932201556861
-0.0065350783988833
-0.0076839691027998
-0.0085493838414549
-0.0091534182429313
-0.0095275547355413
-0.009708372876048
-0.009732449427247
-0.0096324579790234
-0.0094353817403316
-0.0091614183038473
-0.0088237728923559
-0.0084304455667734
-0.0079867905005812
-0.0074967197142541
-0.0069623636081814
-0.0063845482654869
-0.0057647232897579
-0.0051060020923614
-0.0044128629378974
-0.003691351506859
-0.0029505616985261
-0.0022036500740796
-0.0014655319973826
-0.0007485062815248
-6.12032599747181e-05
0.0005892124027013
0.0011962796561419
0.0017540319822728
0.0022541242651641
0.0026807086542248
0.0030048661865293
0.0031818007118999
0.0031536384485661
0.002857054118067
0.0022345385514199
0.0012472667731344
-0.0001151524484157
-0.0018301038071513
-0.0038421009667217
-0.0060684620402753
-0.0084094554185867
-0.0107590071856975
-0.0130138266831636
-0.0150806456804275
-0.0168808903545141
-0.0183528065681457
-0.0194528456777334
-0.0201574936509132
-0.0204640664160251
-0.0203893762081861
-0.0199669543653726
-0.0192432217299938
-0.0182726550847291
-0.0171119980514049
-0.0158141795545816
-0.0144234588369727
-0.0129725784063339
-0.0114818718284368
-0.009960550814867
-0.0084102833643555
-0.0068298419937491
-0.0052192308939993
-0.003582521341741
-0.0019286153838038
-0.0002698451280593
0.0013802591711282
0.0030086229089647
0.0046022944152355
0.0061462386511266
0.0076226247474551
0.009013483300805
0.010303633287549
0.0114812953397631
0.0125380055978894
0.0134695004671812
0.0142763126641511
0.0149609427899122
0.0155204739421606
0.0159378759562969
0.016176825389266
0.0161835625767707
0.0158956944942474
0.0152543550357222
0.0142163056880235
0.0127638187259435
0.0109108490869402
0.0087052695453166
0.0062263589352369
0.0035772924311459
0.000874828081578
-0.0017632348462939
-0.0042308587580919
-0.0064413947984576
-0.0083298962563276
-0.0098537160083651
-0.0109913805499672
-0.0117390230298042
-0.0121064539998769
-0.0121149104088544
-0.0117959473282098
-0.0111906211823225
-0.0103480089455842
-0.0093208542093634
-0.0081588858738541
-0.0069033028557896
-0.0055842539295554
-0.0042214943096041
-0.0028269896283745
-0.0014074184000492
3.3970922231674194e-05
0.0014957375824451
0.0029762731865048
0.0044710175134241
0.0059703667648136
0.0074597015045583
0.0089208129793405
0.0103340102359652
0.0116801150143146
0.0129418028518557
0.0141042349860072
0.0151549577713012
0.0160843431949615
0.0168864373117685
0.0175589099526405
0.018102653324604
0.0185198299586772
0.0188077315688133
0.0189506690949201
0.018914895132184
0.0186490267515182
0.0180909279733896
0.0171798728406429
0.0158692020922899
0.0141363013535738
0.0119908256456255
0.0094800656661391
0.0066869491711258
0.0037196697667241
0.0006978980964049
-0.0022596786729991
-0.0050454209558665
-0.0075696120038628
-0.0097630880773067
-0.011576784774661
-0.0129807256162166
-0.0139639042317867
-0.0145343197509646
-0.014717049896717
-0.0145509745925664
-0.0140864271670579
-0.0133822159841656
-0.012500480748713
-0.0115011222660541
-0.0104361558333039
-0.0093446690589189
-0.0082509033381938
-0.0071653136983513
-0.0060872733592987
-0.00500925257802
-0.0039210617542266
-0.0028127767145633
-0.0016778137069195
-0.0005163270980119
0.0006637149490416
0.0018480541184544
0.0030185009818524
0.0041556125506758
0.0052409870550036
0.0062583675608038
0.007194532547146
0.0080402325838804
0.0087899658828973
0.0094414902850985
0.0099963499233126
0.0104601206257939
0.0108405463397502
0.0111427316442132
0.0113616762682795
0.0114747080951929
0.0114382887259125
0.0111918458715081
0.0106680328026413
0.0098073771223425
0.0085730021819472
0.0069603268057107
0.0049997828900814
0.0027530896477401
0.0003053224645555
-0.0022449733223766
-0.0047961478121578
-0.0072519467212259
-0.009527045302093
-0.0115499682724475
-0.013264724984765
-0.0146336648613214
-0.015640240162611
-0.0162878893315792
-0.01659582182765
-0.0165942534804344
-0.016319440677762
-0.0158094521611928
-0.0151024125516414
-0.0142367696389555
-0.0132505139335989
-0.0121776415035128
-0.0110442833974957
-0.009867800399661
-0.0086581343784928
-0.0074185244739055
-0.0061466936022043
-0.0048389229923486
-0.003494462929666
-0.0021171804983168
-0.0007153438054956
0.0007001483463682
0.0021185919176787
0.0035301381722092
0.004924296401441
0.0062896097078919
0.0076147112995386
0.0088896034285426
0.0101075731217861
0.0112665072083473
0.012367695569992
0.013412139378488
0.0143951922655105
0.0153011213988065
0.0160988587886095
0.0167397055774927
0.0171600356698036
0.0172916203737258
0.0170759633183479
0.0164756812155246
0.0154805881902575
0.0141103193163871
0.0124135548248887
0.0104629574343562
0.0083467308431863
0.0061590303666889
0.0039913719519972
0.0019259629771113
3.139302134513855e-05
-0.0016395030543208
-0.0030507398769259
-0.0041840178892016
-0.0050391410477459
-0.0056322980672121
-0.0059916526079177
-0.0061529306694865
-0.0061566028743982
-0.0060454732738435
-0.0058611240237951
-0.005639323964715
-0.0054065883159637
-0.0051786904223263
-0.0049599464982748
-0.0047441287897527
-0.004517666529864
-0.0042632780969142
-0.0039634350687265
-0.0036043361760675
-0.0031798756681382
-0.0026931054890155
-0.0021539814770221
-0.0015766732394695
-0.0009783180430531
-0.0003775237128138
0.0002073738723993
0.0007593957707285
0.0012641632929444
0.0017117131501436
0.0020973281934857
0.0024196375161409
0.0026752529665827
0.0028506312519311
0.0029150955379009
0.0028200158849358
0.0025052037090063
0.001910843886435
0.0009921742603182
-0.0002679824829101
-0.0018532741814851
-0.0037149945273995
-0.0057782344520092
-0.0079517103731632
-0.0101393107324838
-0.0122499037533998
-0.0142038036137819
-0.0159359369426965
-0.0173963122069835
-0.0185498110949993
-0.019376840442419
-0.0198738723993301
-0.0200524069368839
-0.0199364703148603
-0.0195590108633041
-0.0189578179270029
-0.0181721933186054
-0.0172405038028955
-0.0161980055272579
-0.0150748472660779
-0.0138939414173364
-0.0126689374446868
-0.0114044249057769
-0.0101000675931572
-0.0087558915838599
-0.007374788634479
-0.0059621911495924
-0.0045254034921526
-0.003074093721807
-0.0016202424885705
-0.0001766843488439
0.0012436154065653
0.0026270782109349
0.0039589377120137
0.0052232388406991
0.0064047244377434
0.0074926726520061
0.0084833679720759
0.0093781622126698
0.0101781636476516
0.010878250002861
0.0114613734185695
0.0118938758969306
0.0121246632188558
0.0120912753045558
0.0117327068001031
0.0110042607411742
0.0098883770406246
0.0083993813022971
0.0065831546671688
0.0045126052573323
0.0022796862758696
-1.4780147466808558e-05
-0.0022708065807819
-0.0043959654867649
-0.0063100615516304
-0.0079495636746287
-0.0092704640701413
-0.0102483322843909
-0.0108770309016108
-0.011167025193572
-0.0111431144177913
-0.0108414180576801
-0.0103052053600549
-0.0095799416303634
-0.0087087322026491
-0.0077290181070566
-0.0066704084165394
-0.0055533107370138
-0.0043892683461308
-0.0031838444992899
-0.0019403491169214
-0.0006619933992624
0.0006468510255217
0.0019791778177022
0.0033249333500862
0.0046715536154806
0.0060044657438993
0.0073080589063465
0.0085668619722127
0.0097666606307029
0.0108956461772322
0.0119446581229567
0.0129060838371515
0.0137728573754429
0.0145393796265125
0.0152029935270547
0.0157636832445859
0.016221884638071
0.0165734738111495
0.0168027058243751
0.0168771967291831
0.0167480446398258
0.0163578279316425
0.0156543850898742
0.0146021582186222
0.013188499957323
0.0114279557019472
0.00936393532902
0.0070656612515449
0.0046212514862418
0.0021293670870363
-0.0003092228434979
-0.0026001655496656
-0.0046628885902464
-0.006435205694288
-0.007875639013946
-0.0089629767462611
-0.0096927322447299
-0.0100741423666477
-0.0101300813257694
-0.0098964525386691
-0.0094186253845691
-0.0087472414597868
-0.0079340664669871
-0.007026694715023
-0.0060637891292572
-0.0050725750625133
-0.0040685022249817
-0.0030568176880478
-0.002035554498434
-0.0009995680302381
5.502253770828247e-05
0.0011277748271822
0.0022135898470878
0.003304848447442
0.0043939147144556
0.0054737413302063
0.0065363869071006
0.0075705861672759
0.0085608782246708
0.0094899395480751
0.010341920889914
0.0111036440357565
0.0117640001699328
0.0123144090175628
0.0127498153597116
0.0130659621208906
0.0132521707564592
0.0132837332785129
0.013119077309966
0.0127050057053565
0.0119878277182579
0.0109246429055929
0.009492989629507
0.007699173875153
0.0055823787115514
0.0032125455327332
0.0006828281329944
-0.0019021165790036
-0.0044388975948095
-0.00683453399688
-0.0090105095878243
-0.0109040476381778
-0.0124686788767576
-0.0136747248470783
-0.014510154724121
-0.0149811664596199
-0.0151111222803592
-0.0149376159533858
-0.0145083228126168
-0.013876324519515
-0.0130948843434453
-0.0122118312865495
-0.01126504316926
-0.0102800521999597
-0.0092696612700819
-0.0082361409440636
-0.007175909820944
-0.0060840966179966
-0.0049573313444852
-0.0037954074796289
-0.0026010894216597
-0.0013776547275483
-0.0001271949149668
0.0011481333058327
0.0024438533000648
0.0037521428894251
0.0050625996664166
0.0063653020188212
0.0076539097353816
0.0089244665578007
0.0101701989769935
0.0113757643848657
0.0125116882845759
0.0135297896340489
0.0143631482496857
0.0149336382746696
0.0151658970862627
0.0150020308792591
0.0144120119512081
0.0133989974856376
0.0120003297924995
0.0102838119491934
0.0083392318338155
0.0062676686793565
0.0041710725054144
0.0021436954848468
0.0002664516214281
-0.0013967419508844
-0.0028016013093292
-0.0039243409410119
-0.0047604339197278
-0.0053227096796035
-0.0056395195424556
-0.005751360207796
-0.0057055950164794
-0.0055508376099169
-0.0053319223225116
-0.0050860941410064
-0.0048398301005363
-0.0046062511391937
-0.0043852571398019
-0.0041665504686534
-0.0039342544041574
-0.0036715122405439
-0.0033631594851613
-0.0029970747418701
-0.0025652269832789
-0.0020641181617975
-0.0014949485193938
-0.0008638862054795
-0.0001818048767745
0.000536813866347
0.0012753652408719
0.0020164381712675
0.0027410681359469
0.0034237261861562
0.0040254201740026
0.0044908616691827
0.00475195934996
0.0047364542260766
0.0043807793408632
0.003643827047199
0.0025166538543999
0.001025500241667
-0.0007719211280345
-0.0027942056767642
-0.0049451105296611
-0.0071229715831577
-0.0092298574745655
-0.0111784683540463
-0.0128954257816076
-0.0143218357115983
-0.0154144689440727
-0.0161483827978372
-0.0165181346237659
-0.0165368020534515
-0.0162340980023145
-0.0156534574925899
-0.0148474909365177
-0.0138726476579904
-0.0127844046801328
-0.011632309295237
-0.010454699397087
-0.0092758629471063
-0.0081064216792583
-0.0069448915310204
-0.0057804496027529
-0.0045975646935403
-0.003381340065971
-0.0021222815848886
-0.0008192335953935
0.0005202353931963
0.0018818015232682
0.0032475334592163
0.004598026163876
0.0059128049761056
0.0071713263168931
0.008355994708836
0.0094540836289525
0.0104546649381518
0.0113402735441923
0.0120776770636439
0.0126140713691711
0.0128810768947005
0.0128054972738027
0.0123239010572433
0.0113961640745401
0.0100151617079973
0.0082115493714809
0.0060517657548189
0.0036293875891715
0.0010538654169067
-0.001560139702633
-0.0041018067859113
-0.0064700129441916
-0.0085761100053787
-0.010346301831305
-0.0117250550538301
-0.0126783354207873
-0.0131952101364731
-0.0132877584546804
-0.0129886623471975
-0.0123455198481678
-0.0114142913371324
-0.0102546364068984
-0.0089258216321468
-0.0074815498664975
-0.0059656361117959
-0.0044108037836849
-0.0028395624831318
-0.0012654680758714
0.000305286142975
0.0018717418424785
0.003434986108914
0.0049939090386033
0.0065415846183896
0.0080638471990823
0.0095408577471971
0.0109509546309709
0.0122740399092435
0.0134930005297064
0.0145943462848663
0.0155690889805555
0.0164124444127082
0.0171201042830944
0.0176821574568748
0.0180773623287677
0.0182697474956512
0.0182095225900411
0.017839016392827
0.0171037837862968
0.0159664750099182
0.0144163854420185
0.012472465634346
0.0101841567084193
0.0076299291104078
0.0049105626530945
0.0021389191970229
-0.0005707596428692
-0.0031130723655223
-0.0053995000198483
-0.0073624183423817
-0.0089559415355324
-0.0101548125967383
-0.010952640324831
-0.0113617070019245
-0.0114124231040477
-0.0111495144665241
-0.0106270834803581
-0.0099035529419779
-0.0090351225808262
-0.0080702314153313
-0.0070474855601787
-0.0059951515868306
-0.0049312077462673
-0.0038653770461678
-0.0028026946820318
-0.0017459318041801
-0.0006958450539968
0.0003482914180494
0.0013859642203897
0.0024124784395098
0.0034180106595158
0.0043881298042833
0.0053050979040563
0.0061501609161496
0.0069060917012393
0.0075598550029098
0.0081058386713266
0.0085472892969846
0.0088940300047397
0.0091579630970954
0.0093473512679338
0.0094608049839735
0.009482785128057
0.0093809515237808
0.0091068381443619
0.0086026303470134
0.0078130094334483
0.0066976533271372
0.0052412757650017
0.0034594065509736
0.001397977117449
-0.0008725868538022
-0.0032651419751346
-0.0056838360615074
-0.0080326404422521
-0.0102236568927764
-0.012183491140604
-0.0138556361198425
-0.0151995737105607
-0.0161897391080856
-0.0168153829872608
-0.0170808117836713
-0.0170051883906126
-0.0166211761534214
-0.0159724168479442
-0.0151099096983671
-0.0140881594270467
-0.0129615953192114
-0.0117797087877988
-0.0105811916291713
-0.0093903038650751
-0.0082169733941555
-0.0070594018325209
-0.0059075742028653
-0.0047469912096858
-0.0035628487821668
-0.0023444537073373
-0.0010882967617362
0.0002014010678976
0.0015140910400077
0.0028348774649202
0.0041461116634309
0.0054292022250592
0.0066673164255917
0.0078476211056113
0.0089620864018797
0.0100066810846328
0.0109779592603445
0.0118680503219366
0.0126605750992894
0.0133275166153907
0.0138281695544719
0.0141140054911375
0.0141389006748795
0.0138693479821085
0.0132909789681434
0.0124106956645846
0.0112556107342243
0.0098705142736434
0.0083137797191739
0.0066511151380836
0.0049490551464259
0.0032707573845982
0.0016739801503717
0.0002095745876431
-0.0010796226561069
-0.0021596946753561
-0.0030080187134444
-0.0036170980893075
-0.0039969393983483
-0.0041735367849469
-0.0041839946061372
-0.0040709795430302
-0.0038779727183282
-0.0036441911943256
-0.0033988556824624
-0.0031571690924465
-0.0029200320132076
-0.002677290700376
-0.002413670066744
-0.0021150782704353
-0.0017716707661747
-0.0013784323818981
-0.000936328433454
-0.0004522921517491
6.34118914604187e-05
0.0005993414670228
0.0011430820450186
0.0016812328249216
0.0021996423602104
0.0026837140321731
0.0031198784708976
0.0034983111545443
0.0038149375468492
0.0040701888501644
0.0042629148811101
0.0043816259130835
0.0043990360572934
0.0042735300958156
0.0039566094055771
0.0034045986831188
0.0025910763069987
0.0015139980241656
0.0001950487494468
-0.0013253390789031
-0.0029936684295535
-0.004748766310513
-0.0065264664590358
-0.0082644913345575
-0.0099076721817255
-0.0114102186635136
-0.0127343460917472
-0.0138486735522747
-0.0147285517305135
-0.0153581388294696
-0.0157322213053703
-0.0158562660217285
-0.0157453715801239
-0.0154228769242763
-0.0149189531803131
-0.014268185943365
-0.0135053228586912
-0.0126609485596418
-0.0117591638118028
-0.0108177987858653
-0.0098500754684209
-0.0088659673929214
-0.0078731384128332
-0.0068779475986957
-0.0058859977871179
-0.0049025127664208
-0.003932767547667
-0.0029813977889716
-0.0020519634708762
-0.0011488562449812
-0.0002785297110676
0.0005524491425603
0.0013395985588431
0.0020809038542211
0.002776252804324
0.0034265024587512
0.0040323971770703
0.0045933304354548
0.0051050176844
0.0055554052814841
0.0059208935126662
0.0061665340326726
0.0062509230338037
0.0061337961815297
0.0057841287925839
0.0051862550899386
0.0043432842940092
0.0032784519717097
0.0020327602978795
0.0006584653165191
-0.0007870186818763
-0.0022436478175222
-0.0036511309444904
-0.0049534970894455
-0.0061024902388453
-0.0070582930929958
-0.0077897747978568
-0.0082755982875823
-0.0085062952712178
-0.0084861889481544
-0.0082327108830213
-0.0077730962075293
-0.0071411170065402
-0.0063739363104105
-0.0055075250566005
-0.0045721963979303
-0.0035907672718167
-0.0025792717933654
-0.0015483223833143
-0.0005046566948294
0.0005459925159811
0.0015961406752467
0.0026364987716078
0.003657579421997
0.0046504852361977
0.0056064538657665
0.0065162978135049
0.0073710698634386
0.0081637063995003
0.0088897729292511
0.0095466943457722
0.0101333186030387
0.0106506226584315
0.0111020933836698
0.0114934332668781
0.0118316859006881
0.0121230967342853
0.0123704597353935
0.012571164406836
0.0127146458253264
0.0127779627218842
0.0127230053767561
0.0125006362795829
0.0120613034814596
0.0113658299669623
0.0103926574811339
0.0091423531994223
0.0076392916962504
0.0059295459650456
0.0040760650299489
0.0021526310592889
0.0002365782856941
-0.0015989979729056
-0.0032912106253206
-0.0047900383360683
-0.0060588628984987
-0.0070748813450336
-0.0078294081613421
-0.0083267260342836
-0.0085807796567678
-0.0086109889671206
-0.0084385797381401
-0.0080837877467274
-0.0075647411867976
-0.0068978518247604
-0.0060992967337369
-0.0051876017823815
-0.0041847815737128
-0.0031142691150307
-0.0019982727244496
-0.0008573420345783
0.0002884622663259
0.0014189127832651
0.0025139492936432
0.0035538966767489
0.0045195091515779
0.0053932042792439
0.0061613298021256
0.0068154009059071
0.0073519898578524
0.0077727865427732
0.0080850040540099
0.0083009684458374
0.0084361135959625
0.0085064740851521
0.0085275322198867
0.0085146753117442
0.0084830960258841
0.0084441844373941
0.0083993002772331
0.0083348946645855
0.0082206605002284
0.0080112190917134
0.0076524661853909
0.0070912865921854
0.0062859766185283
0.0052152746357023
0.0038831974379718
0.0023182039149105
0.0005682229530066
-0.0013060411438345
-0.0032371673732995
-0.0051547163166105
-0.0069880713708698
-0.008671386167407
-0.0101494407281279
-0.0113810338079929
-0.012339686974883
-0.0130133107304573
-0.0134039754047989
-0.0135278366506099
-0.0134140066802501
-0.0131009593605995
-0.0126301180571317
-0.0120395123958587
-0.011360959149897
-0.0106197036802768
-0.0098337177187204
-0.0090119130909442
-0.0081533305346965
-0.0072504938580095
-0.0062959985807538
-0.0052874479442834
-0.0042282734066247
-0.0031267190352082
-0.0019947402179241
-0.0008455729112029
0.0003091460093855
0.001460020430386
0.0025995038449764
0.0037224683910608
0.0048260418698191
0.0059076314792037
0.0069634513929486
0.0079893544316291
0.0089822020381689
0.009939782321453
0.0108595369383692
0.011734920553863
0.0125485779717564
0.0132667925208807
0.0138398148119449
0.0142081268131732
0.0143125411123037
0.0141054801642894
0.0135603221133351
0.0126768546178936
0.0114827407523989
0.0100305061787366
0.0083909071981906
0.0066455760970711
0.0048792227171361
0.0031718853861093
0.0015937758143991
0.0002020068932324
-0.0009628187399357
-0.0018789609894156
-0.002542961621657
-0.0029667268972843
-0.0031734532676637
-0.0031933984719216
-0.0030612635891884
-0.0028147678822278
-0.0024919451680034
-0.0021274595055729
-0.0017496377695351
-0.0013775986153632
-0.0010189320892095
-0.000670063891448
-0.0003192079020664
4.9088732339441776e-05
0.0004494267050176
0.0008930208859965
0.0013863071799278
0.0019294202793389
0.0025155467446893
0.0031323214061558
0.0037648119032382
0.0043984241783618
