bvp
0.0005966839380562
0.002086869906634
0.0035541881807148
0.0049752811901271
0.0063296537846326
0.0075988727621734
0.0087663820013403
0.0098170842975378
0.0107329720631241
0.0114849358797073
0.0120255043730139
0.0122875096276402
0.01219043135643
0.0116525618359446
0.0106049133464694
0.0090034753084182
0.0068388953804969
0.0041433572769165
0.0009934259578585
-0.0024936376139521
-0.0061717559583485
-0.0098827481269836
-0.0134724350646138
-0.0168028343468904
-0.0197588391602039
-0.0222505256533622
-0.0242136158049106
-0.0256097018718719
-0.0264265928417444
-0.0266778022050857
-0.026400689035654
-0.0256530717015266
-0.0245082285255193
-0.0230484567582607
-0.0213566608726978
-0.0195070207118988
-0.0175581835210323
-0.0155510688200593
-0.0135104423388838
-0.0114484215155243
-0.0093677081167697
-0.0072633852250874
-0.0051257046870887
-0.0029458056669682
-0.0007213498465716
0.0015412300126627
0.0038266354240477
0.0061110900714993
0.0083648823201656
0.0105567723512649
0.0126569494605064
0.0146379210054874
0.0164748281240463
0.0181467700749635
0.0196384638547897
0.0209377016872167
0.0220268461853265
0.0228732023388147
0.0234237536787986
0.0236059743911027
0.0233346279710531
0.0225242525339126
0.0211059432476758
0.0190451275557279
0.0163548402488231
0.0131001798436045
0.0093946941196918
0.0053902193903923
0.0012606149539351
-0.0028167692944407
-0.0066763767972588
-0.0101749347522854
-0.0131980003789067
-0.0156623907387256
-0.0175154954195022
-0.0187344383448362
-0.0193261243402957
-0.0193267855793237
-0.0187994763255119
-0.0178279653191566
-0.0165070481598377
-0.0149318976327776
-0.0131891099736094
-0.0113501399755477
-0.0094673838466405
-0.007573474664241
-0.0056831063702702
-0.0037971534766256
-0.001909333281219
-1.2345146387815475e-05
0.0019001271575689
0.0038332648109644
0.0057882415130734
0.0077580567449331
0.0097262877970933
0.0116689763963222
0.0135577358305454
0.0153635255992412
0.0170607026666402
0.0186296291649341
0.0200571063905954
0.0213357470929622
0.0224627293646335
0.0234375465661287
0.0242585185915231
0.0249166283756494
0.0253868419677019
0.0256217885762453
0.0255514029413461
0.0250883717089891
0.0241398215293884
0.0226251166313886
0.0204952768981456
0.0177470929920673
0.0144290458410978
0.010639889165759
0.0065202107653021
0.0022375462576746
-0.002031906042248
-0.0061206948012113
-0.0098832128569483
-0.0132028656080365
-0.0159939173609018
-0.0182004664093256
-0.0197952799499034
-0.020779576152563
-0.0211826264858245
-0.0210595801472663
-0.0204864609986543
-0.0195519253611564
-0.0183471497148275
-0.016956228762865
-0.0154492948204278
-0.0138790840283036
-0.0122804194688797
-0.0106722256168723
-0.0090610552579164
-0.0074448627419769
-0.0058175693266093
-0.0041739274747669
-0.0025122750084847
-0.0008352883160114
0.000849425792694
0.0025288891047239
0.0041852788999676
0.0057970890775322
0.0073405215516686
0.0087918592616915
0.0101310852915048
0.0113450288772583
0.0124272890388965
0.0133748231455683
0.0141852889209985
0.0148579273372888
0.0153954243287444
0.0158037729561328
0.0160898342728614
0.0162562578916549
0.0162943452596664
0.0161770321428775
0.0158541835844516
0.0152541436254978
0.0142950564622879
0.012903282418847
0.011031687259674
0.0086722485721111
0.0058609917759895
0.0026759896427392
-0.000770017504692
-0.0043411049991846
-0.0078932726755738
-0.011289918795228
-0.0144121665507555
-0.0171639695763587
-0.0194750968366861
-0.0213024895638227
-0.0226301178336143
-0.0234676301479339
-0.0238473936915397
-0.0238200053572654
-0.0234490577131509
-0.0228050425648689
-0.0219580717384815
-0.0209714081138372
-0.0198978390544652
-0.0187778919935226
-0.0176380146294832
-0.0164899174124002
-0.0153328832238912
-0.0141579210758209
-0.0129525680094957
-0.0117057971656322
-0.0104106832295656
-0.0090644238516688
-0.0076681799255311
-0.0062274541705846
-0.0047523113898932
-0.0032578217796981
-0.0017645144835114
-0.0002971421927213
0.0011186311021447
0.0024597169831395
0.0037078596651554
0.0048507153987884
0.0058824280276894
0.0068040890619158
0.0076229702681303
0.0083487415686249
0.00898555573076
0.0095213651657104
0.009920191951096
0.0101229818537831
0.0100564789026975
0.0096468729898333
0.0088361483067274
0.007597223855555
0.0059431688860058
0.0039284257218241
0.0016428465023636
-0.0007991818711161
-0.0032723662443459
-0.0056539010256528
-0.0078330198302865
-0.0097160954028368
-0.0112305115908384
-0.0123298559337854
-0.0129980538040399
-0.013249160721898
-0.0131233744323253
-0.0126809198409318
-0.0119934873655438
-0.0111337061971426
-0.0101662436500191
-0.0091428346931934
-0.0081002628430724
-0.007060358300805
-0.0060309637337923
-0.0050074784085154
-0.0039764558896422
-0.0029211207292973
-0.0018269075080752
-0.0006854964303784
0.0005039204261265
0.0017351845744997
0.0029951627366244
0.004263780079782
0.0055160014890134
0.0067251585423946
0.0078654736280441
0.0089130736887454
0.0098474286496639
0.0106547772884368
0.0113319382071495
0.0118877347558736
0.0123411705717444
0.012716632336378
0.0130363553762435
0.0133119225502014
0.0135371880605816
0.0136836767196655
0.0136992540210485
0.0135122695937752
0.0130431996658444
0.0122226346284151
0.0110097033903002
0.0094035156071186
0.0074441726319491
0.0052052550017833
0.0027824065182358
0.0002818801440298
-0.0021895810496062
-0.004533277824521
-0.0066643422469496
-0.0085135009139776
-0.0100261718034744
-0.01116309966892
-0.0119044603779912
-0.0122531084343791
-0.0122333467006683
-0.0118867242708802
-0.0112668685615062
-0.0104345520958304
-0.0094527527689933
-0.0083807744085788
-0.0072685629129409
-0.0061533516272902
-0.0050590890459716
-0.0039968658238649
-0.0029650977812707
-0.0019510705024003
-0.0009353104978799
0.0001024235971271
0.0011776690371334
0.0022975613828748
0.0034594694152474
0.0046516726724803
0.0058548860251903
0.0070445067249238
0.0081943040713667
0.0092801032587885
0.0102814445272088
0.0111822206526994
0.0119720315560698
0.0126473447307944
0.0132110361009836
0.0136708989739418
0.0140378940850496
0.0143223786726593
0.0145255718380212
0.0146283097565174
0.014584588818252
0.0143252238631248
0.0137698538601398
0.012842389754951
0.0114867398515343
0.0096803782507777
0.0074434205889701
0.0048406608402729
0.0019733919762074
-0.0010365816997364
-0.0040625617839396
-0.0069843102246522
-0.009696464985609
-0.0121137350797653
-0.0141724273562431
-0.0158300418406724
-0.0170642621815204
-0.0178719107061624
-0.0182675272226333
-0.0182809717953205
-0.0179545395076274
-0.0173396542668342
-0.016492910683155
-0.0154713299125432
-0.0143267624080181
-0.0131011232733726
-0.0118247494101524
-0.0105174053460359
-0.009190397337079
-0.0078491475433111
-0.006495411042124
-0.0051283384673297
-0.0037451963871717
-0.0023437035270035
-0.0009250729344785
0.0005050641484558
0.0019375826232135
0.0033607729710638
0.0047610271722078
0.006123315077275
0.0074316253885626
0.0086699640378355
0.0098235821351408
0.0108807580545544
0.0118358442559838
0.0126909539103508
0.0134532637894153
0.0141294300556182
0.0147199220955371
0.0152135947719216
0.015582425519824
0.0157781783491373
0.0157334003597497
0.0153690818697214
0.0146091291680932
0.013396942988038
0.0117089878767728
0.0095632160082459
0.007020547054708
0.0041790450923144
0.0011636950075626
-0.0018858917756006
-0.0048299524933099
-0.0075439438223838
-0.0099300416186451
-0.0119204726070165
-0.0134747559204697
-0.0145769864320755
-0.0152347320690751
-0.0154765993356704
-0.0153479035943746
-0.0149063877761363
-0.0142174009233713
-0.013345830142498
-0.0123467985540628
-0.0112607814371585
-0.0101135000586509
-0.0089176651090383
-0.0076765501871705
-0.0063884714618325
-0.0050495779141783
-0.0036561703309416
-0.0022083525545895
-0.0007126382552087
0.0008180169388651
0.002364844083786
0.0039039552211761
0.0054084262810647
0.0068515897728502
0.0082097258418798
0.009463689289987
0.0106000509113073
0.0116119720041751
0.0125001370906829
0.0132720535621047
0.0139383226633071
0.0145092634484171
0.014994129538536
0.0154004357755184
0.0157313011586666
0.0159803256392478
0.0161248371005058
0.0161209367215633
0.0159050524234771
0.0154031403362751
0.0145442010834813
0.0132748521864414
0.0115719903260469
0.0094505902379751
0.0069653154350817
0.0042048138566315
0.0012803780846297
-0.0016860128380358
-0.0045722112990915
-0.0072654196992516
-0.0096699278801679
-0.0117117445915937
-0.0133402943611145
-0.0145293409004807
-0.0152777526527643
-0.0156081393361091
-0.0155630828812718
-0.0152004454284906
-0.0145880514755845
-0.0137968845665454
-0.0128925051540136
-0.0119276661425828
-0.0109399817883968
-0.0099529530853033
-0.0089770779013633
-0.0080120805650949
-0.0070507023483514
-0.0060820830985903
-0.0050942543894052
-0.0040764985606074
-0.0030213757418096
-0.0019255403894931
-0.0007901575881987
0.0003779171966016
0.0015656178584322
0.0027552926912903
0.0039276527240872
0.0050638932734727
0.006145542487502
0.007154416758567
0.0080757085233926
0.0089013446122407
0.00962854642421
0.010253089480102
0.0107604004442691
0.0111186439171433
0.0112766679376363
0.0111671406775712
0.0107154222205281
0.009854826144874
0.0085446080192923
0.0067839752882719
0.0046170754358172
0.0021281354129314
-0.0005697273300029
-0.0033478238619863
-0.0060749980621039
-0.0086286198347806
-0.0109020108357071
-0.0128093119710683
-0.0142899295315146
-0.0153120765462517
-0.0158734619617462
-0.0159987825900316
-0.0157350376248359
-0.0151457749307155
-0.0143036805093288
-0.01328138820827
-0.0121435429900884
-0.0109421350061893
-0.0097141871228814
-0.0084821665659546
-0.0072573274374008
-0.0060429768636822
-0.0048351846635341
-0.0036229537799954
-0.0023912144824862
-0.0011256569996476
0.0001830551773309
0.0015357388183474
0.0029232534579932
0.0043288730084896
0.0057317120954394
0.0071085151284933
0.008435190655291
0.0096887638792395
0.0108483228832483
0.0118962731212377
0.0128218680620193
0.0136236529797315
0.0143060088157653
0.0148697234690189
0.0153005765751004
0.0155611708760261
0.0155903585255146
0.0153109431266784
0.0146427163854241
0.0135173462331295
0.0118928821757435
0.0097660981118679
0.0071796881966292
0.0042214067652821
0.0010148002766072
-0.0022962065413594
-0.0055635808967053
-0.0086473571136593
-0.0114244557917118
-0.0137961450964212
-0.0156932435929775
-0.0170783475041389
-0.0179446842521429
-0.0183121431618928
-0.0182224549353122
-0.0177336223423481
-0.016913553699851
-0.0158338136970996
-0.0145631236955523
-0.0131619730964303
-0.0116805974394083
-0.0101589309051632
-0.0086257588118314
-0.0070970538072288
-0.0055758086964488
-0.0040550804696977
-0.0025239428505301
-0.0009737396612763
0.0005985982716083
0.0021908362396061
0.0037969076074659
0.0054077468812465
0.0070116417482495
0.0085948351770639
0.0101427622139453
0.0116410190239548
0.0130751924589276
0.0144305881112813
0.0156929157674312
0.0168489664793014
0.0178861133754253
0.0187920983880758
0.0195558294653892
0.0201653186231851
0.0206013955175876
0.0208317842334508
0.0208077766001224
0.0204631891101598
0.0197195373475551
0.0185008160769939
0.0167531631886959
0.014461375772953
0.0116590708494186
0.0084315538406372
0.0049089700914919
0.001250286353752
-0.0023770763073116
-0.0058163180947303
-0.0089346785098314
-0.0116304261609911
-0.0138353398069739
-0.0155139341950416
-0.0166599974036216
-0.0172921661287546
-0.0174496583640575
-0.0171874687075614
-0.0165709741413593
-0.0156709309667348
-0.0145591041073203
-0.0133037492632865
-0.0119646759703755
-0.0105884699150919
-0.0092052835971117
-0.0078291613608598
-0.0064614117145538
-0.0050942613743245
-0.0037143961526453
-0.0023075460921972
-0.0008626040071249
0.0006259129149839
0.0021555661223828
0.0037146331742405
0.0052832341752946
0.0068356422707438
0.0083426320925354
0.009774150326848
0.0111026437953114
0.0123064573854208
0.013372465968132
0.0142972283065319
0.0150857977569103
0.0157487876713275
0.0162990540266037
0.0167475584894418
0.017097033560276
0.0173345319926738
0.0174265690147876
0.0173182897269725
0.0169366486370563
0.0161997657269239
0.015032710507512
0.0133852614089846
0.0112463338300585
0.0086513916030526
0.0056805973872542
0.0024492777884006
-0.0009056841954588
-0.0042418409138917
-0.0074264467693865
-0.0103461695834994
-0.0129115162417292
-0.0150595847517251
-0.016754999756813
-0.0179879255592823
-0.0187713094055652
-0.0191386714577674
-0.0191405657678842
-0.0188387166708707
-0.018299339339137
-0.0175873152911663
-0.01676139049232
-0.0158692821860313
-0.0149432867765426
-0.0139989489689469
-0.013037621974945
-0.0120508782565593
-0.0110248094424605
-0.0099442256614565
-0.0087966993451118
-0.0075755817815661
-0.0062817614525556
-0.0049244831316173
-0.0035211690701544
-0.0020959614776074
-0.0006772680208086
0.000705272424966
0.0020244503393769
0.0032587298192083
0.0043938243761658
0.0054229409433901
0.0063465107232332
0.0071715493686497
0.0079097356647253
0.0085739642381668
0.0091748163104057
0.0097175361588597
0.0101976934820413
0.0105940178036689
0.0108617581427097
0.0109334886074066
0.0107292924076318
0.0101721528917551
0.0092044454067945
0.0078022601082921
0.0059837801381945
0.003809499554336
0.0013750335201621
-0.0012007169425487
-0.0037893904373049
-0.0062670577317476
-0.0085253678262233
-0.0104782162234187
-0.0120651386678218
-0.0132527714595198
-0.0140343811362981
-0.0144277457147836
-0.0144714126363396
-0.0142181906849145
-0.0137265585362911
-0.0130534879863262
-0.012250592932105
-0.0113624753430485
-0.0104257296770811
-0.0094679044559597
-0.0085065253078937
-0.0075492840260267
-0.0065953354351222
-0.0056368955411016
-0.0046622352674603
-0.0036595542915165
-0.0026197438128292
-0.0015390906482934
-0.0004221245180815
0.0007187668234109
0.0018672433216124
0.0030059763230383
0.004116516560316
0.0051790662109851
0.0061747273430228
0.0070888008922338
0.0079128323122859
0.0086439438164234
0.0092822648584842
0.0098296534270048
0.0102888345718383
0.0106586636975407
0.0109255751594901
0.0110564809292554
0.0109991058707237
0.0106910998001694
0.010074395686388
0.0091102011501789
0.0077898153103888
0.0061386311426758
0.0042147701606154
0.0021041426807641
-8.828984573483467e-05
-0.0022503547370433
-0.0042748781852424
-0.0060699144378304
-0.0075654769316315
-0.0087166372686624
-0.0095045994967222
-0.0099362703040242
-0.0100412601605057
-0.0098665542900562
-0.009470141492784
-0.0089138522744178
-0.0082561839371919
-0.0075467680580914
-0.0068226037546992
-0.0061063524335622
-0.0054078618995845
-0.0047272155061364
-0.0040566539391875
-0.0033819002564996
-0.0026852060109376
-0.0019512656144797
-0.0011732281418517
-0.0003544713836163
0.0004938864149153
0.0013562777312472
0.0022149516735225
0.0030519028659909
0.0038501913659274
0.0045942277647554
0.0052711004391312
0.0058737182989716
0.0064029484055936
0.0068661184050142
0.007273344323039
0.0076350499875843
0.0079601882025599
0.0082522025331854
0.008502903394401
0.0086868582293391
0.0087590217590332
0.0086577283218503
0.008313120342791
0.0076594143174588
0.0066488496959209
0.0052640917710959
0.0035255879629403
0.0014919971581548
-0.0007467940449714
-0.0030820032116025
-0.0053986888378858
-0.0075865513645112
-0.0095495302230119
-0.0112132523208856
-0.012528751976788
-0.0134725756943225
-0.0140448613092303
-0.0142671074718236
-0.0141783989965915
-0.0138282869011163
-0.0132694961503148
-0.0125540113076567
-0.0117308376356959
-0.0108429566025733
-0.0099231014028191
-0.0089901331812143
-0.0080490568652749
-0.0070942947641015
-0.0061137895099818
-0.0050937654450535
-0.0040236110799014
-0.0028989934362471
-0.0017228336073458
-0.0005047628656029
0.000740734860301
0.0019965930841863
0.0032442018855363
0.0044635459780693
0.0056338482536375
0.0067351390607655
0.0077509442344307
0.0086706532165408
0.009490180760622
0.0102123189717531
0.0108460914343595
0.0114027978852391
0.0118914116173982
0.0123166292905807
0.0126770008355379
0.0129606295377016
0.0131406877189874
0.0131730949506163
0.0129973338916897
0.0125431576743721
0.0117448382079601
0.0105582438409328
0.0089734476059675
0.0070193717256188
0.0047612003982067
0.0022926970850676
-0.0002749194391071
-0.0028254587668925
-0.0052493680268526
-0.0074525214731693
-0.0093614514917135
-0.0109258806332945
-0.0121189765632152
-0.0129354186356067
-0.0133879799395799
-0.0135035151615738
-0.0133196040987968
-0.0128820817917585
-0.0122414492070674
-0.0114471707493066
-0.0105428919196128
-0.0095642227679491
-0.00853699631989
-0.0074768308550119
-0.0063913222402334
-0.0052823778241872
-0.0041482634842395
-0.0029862867668271
-0.0017946753650903
-0.0005734311416745
0.0006744470447301
0.0019418457522988
0.0032179909758269
0.0044893231242895
0.0057396488264203
0.0069512426853179
0.0081071313470602
0.009193324483931
0.0102002015337347
0.0111220395192503
0.0119564766064286
0.0127054769545793
0.0133749162778258
0.0139718940481543
0.0145018994808197
0.0149650229141116
0.015349781140685
0.0156272575259208
0.0157486889511346
0.0156473536044359
0.0152459423989057
0.0144696049392223
0.0132621517404913
0.0116010755300521
0.0095058344304561
0.0070365373976528
0.00428555207327
0.0013665293809026
-0.0015971297398209
-0.0044837747700512
-0.0071836002171039
-0.0096063474193215
-0.0116854757070541
-0.0133774243295192
-0.0146579882130026
-0.0155202951282262
-0.0159755200147628
-0.0160530935972929
-0.0157978143543005
-0.0152642112225294
-0.0145098641514778
-0.013590108603239
-0.0125545989722013
-0.0114437211304903
-0.0102861048653721
-0.0090994043275713
-0.0078926188871264
-0.006668577902019
-0.0054268902167677
-0.0041661011055111
-0.0028845947235822
-0.0015819035470485
-0.0002601547166705
0.001075992360711
0.0024197129532694
0.0037620924413204
0.0050932806916534
0.0064034746028482
0.0076823700219392
0.0089187659323215
0.0101011954247951
0.0112182050943374
0.0122580640017986
0.0132094947621226
0.0140634886920452
0.0148147176951169
0.0154614094644784
0.0160023868083953
0.0164308920502662
0.0167273748666048
0.0168544389307498
0.016756135970354
0.0163626614958047
0.0156012494117021
0.0144122317433357
0.0127657484263181
0.0106730051338672
0.0081879310309886
0.0054006651043891
0.0024276536423712
-0.0006001719739288
-0.0035508815199136
-0.0063038277439773
-0.0087583912536501
-0.0108385179191827
-0.0124943442642688
-0.0137031059712171
-0.0144683150574564
-0.0148158147931098
-0.0147885801270604
-0.0144426189363002
-0.0138434991240501
-0.0130607951432466
-0.0121601438149809
-0.0111958235502243
-0.0102056749165058
-0.0092096058651804
-0.0082126362249255
-0.0072099464014172
-0.0061903307214379
-0.0051385895349085
-0.0040393718518316
-0.0028820554725825
-0.0016646566800773
-0.0003946973010897
0.0009134672582149
0.0022414119448512
0.0035672453232109
0.0048664091154932
0.0061148595996201
0.0072934748604893
0.0083904331550002
0.0093998881056904
0.0103191342204809
0.0111480131745338
0.011890067718923
0.0125499200075864
0.0131252501159906
0.0135975200682878
0.0139255309477448
0.014045407064259
0.0138779608532786
0.0133405271917581
0.0123611977323889
0.0108938692137599
0.0089305806905031
0.0065083149820566
0.0037083267234265
0.0006472375243902
-0.0025362761225551
-0.0056949076242744
-0.0086858300492167
-0.0113828489556908
-0.0136855393648147
-0.0155246164649724
-0.0168632175773382
-0.0176944341510534
-0.0180386025458574
-0.0179422348737716
-0.0174745954573154
-0.0167191475629806
-0.0157622676342725
-0.0146825863048434
-0.0135435909032821
-0.0123905511572957
-0.0112500572577118
-0.0101303001865744
-0.0090226735919713
-0.0079065868631005
-0.0067571308463811
-0.0055519896559417
-0.0042746448889374
-0.0029154424555599
-0.0014736431185156
4.054955206811428e-05
0.0016069399425759
0.0031986385583877
0.0047853616997599
0.0063365641981363
0.0078246183693408
0.0092267878353595
0.0105256997048854
0.0117093482986092
0.0127711649984121
0.0137097537517547
0.0145275210961699
0.01522749196738
0.0158069282770156
0.0162479691207408
0.0165094416588544
0.016524713486433
0.0162075720727443
0.0154650574550032
0.0142149552702903
0.0124048525467515
0.0100279254838824
0.0071306875906884
0.0038108779117465
0.0002068949397653
-0.0035185234155505
-0.0071969809941947
-0.0106708323583006
-0.0138037074357271
-0.0164860505610704
-0.0186393000185489
-0.0202188659459352
-0.0212135780602693
-0.0216426067054271
-0.0215517953038215
-0.0210096053779125
-0.0201014913618564
-0.0189205091446638
-0.0175553951412439
-0.0160807613283395
-0.0145516507327556
-0.0130024245008826
-0.0114491507411003
-0.0098941382020711
-0.008331243880093
-0.0067501179873943
-0.0051386407576501
-0.0034853555262088
-0.0017828452400863
-3.076950088143349e-05
0.0017623689491301
0.0035796286538243
0.005398130044341
0.007191720418632
0.008933151140809
0.0105967307463288
0.0121610835194587
0.0136102717369794
0.014933249913156
0.0161239504814147
0.0171829704195261
0.0181182418018579
0.0189414881169796
0.0196605734527111
0.0202705133706331
0.0207456238567829
0.021034212782979
0.0210579596459865
0.0207190625369548
0.0199152361601591
0.0185588840395212
0.016596145927906
0.0140218194574117
0.0108859911561012
0.007290490437299
0.0033778380602598
-0.0006838433910161
-0.0047176647931337
-0.0085537899285554
-0.0120428763329982
-0.015066591091454
-0.0175430849194526
-0.0194263234734535
-0.020702114328742
-0.0213850773870944
-0.0215164348483085
-0.0211589932441711
-0.0203892476856708
-0.0192895866930484
-0.0179415978491306
-0.0164199881255626
-0.0147868674248456
-0.0130875948816537
-0.0113504165783524
-0.0095890872180461
-0.0078069437295198
-0.0060027027502655
-0.0041757221333682
-0.0023280328605324
-0.0004646310117095
0.0014057725202292
0.00327057717368
0.0051150089129805
0.0069233453832566
0.0086779976263642
0.0103591186925768
0.0119468867778778
0.0134247252717614
0.0147805642336606
0.0160061363130807
0.0170966200530529
0.0180514622479677
0.0188751071691513
0.0195756610482931
0.0201597325503826
0.0206243377178907
0.0209493711590766
0.021092340350151
0.0209864880889654
0.0205456893891096
0.0196777135133743
0.0183024145662784
0.0163699891418218
0.0138755310326814
0.0108670471236109
0.0074450187385082
0.0037524085491895
-4.396401345729828e-05
-0.0037753833457827
-0.0072890566661953
-0.0104580521583557
-0.0131858382374048
-0.0154087739065289
-0.0170963276177644
-0.0182491019368171
-0.0188956670463085
-0.0190871208906173
-0.0188899487257003
-0.018379321321845
-0.0176320355385541
-0.0167191699147224
-0.0157007910311222
-0.0146228158846497
-0.0135153587907552
-0.0123934466391801
-0.0112601052969694
-0.010110224597156
-0.0089338775724172
-0.007718781940639
-0.0064523499459028
-0.0051246937364339
-0.0037333653308451
-0.0022868851665407
-0.0008036135695874
0.0006920299492776
0.0021725222468376
0.0036100591532886
0.0049797808751463
0.0062613124027848
0.0074384897015988
0.0084996558725833
0.0094385296106338
0.0102531472221016
0.0109417494386434
0.0114956945180892
0.0118912104517221
0.0120836813002824
0.0120080672204494
0.0115885334089398
0.0107553610578179
0.009461666457355
0.0076953303068876
0.0054859621450304
0.0029067043215036
6.911344826221466e-05
-0.0028895121067762
-0.0058223442174494
-0.0085882507264614
-0.0110648013651371
-0.0131568405777215
-0.0147991990670561
-0.0159574467688798
-0.0166297238320112
-0.0168461725115776
-0.0166627075523138
-0.0161514598876237
-0.0153903672471642
-0.0144535219296813
-0.0134051088243722
-0.0122964838519692
-0.0111645646393299
-0.0100325802341103
-0.0089120976626873
-0.0078040612861514
-0.006700865458697
-0.0055904947221279
-0.0044598774984478
-0.0032966854050755
-0.0020919560920447
-0.0008436534553766
0.000441753771156
0.0017502487171441
0.0030622733756899
0.0043556932359933
0.0056088976562023
0.0068030119873583
0.0079238442704081
0.0089628044515848
0.0099156713113188
0.0107803344726562
0.0115542458370327
0.0122303524985909
0.012790098786354
0.0131952790543437
0.0133845452219247
0.013278653845191
0.0127929896116256
0.0118531323969364
0.0104091838002204
0.0084472056478261
0.0059981388039886
0.003141017165035
-3.452412784099579e-06
-0.0032876948826014
-0.0065553789027035
-0.0096577759832143
-0.0124658625572919
-0.0148782338947057
-0.0168250650167465
-0.0182677153497934
-0.019195832312107
-0.0196251552551984
-0.0195955000817775
-0.019166387617588
-0.0184107422828674
-0.0174077786505222
-0.016234366223216
-0.0149556398391723
-0.0136186806485056
-0.0122521268203854
-0.0108698802068829
-0.0094751762226223
-0.008063806220889
-0.0066268248483538
-0.0051532960496842
-0.0036339401267468
-0.0020647821947932
-0.0004489668644964
0.0012034971732646
0.0028770209755748
0.0045516211539506
0.0062041906639933
0.0078108832240104
0.0093503026291728
0.010805613361299
0.0121642351150512
0.0134169813245534
0.0145578067749738
0.0155820725485682
0.0164831094443798
0.017247861251235
0.0178508386015892
0.0182478409260511
0.0183736868202686
0.0181472487747669
0.0174841489642858
0.0163139086216688
0.0145964436233043
0.0123346168547868
0.0095818154513835
0.0064416890963912
0.0030562467873096
-0.0004149350570514
-0.0038153426721692
-0.0070056677795946
-0.0098707685247063
-0.0123221054673194
-0.0142989987507462
-0.0157693997025489
-0.016728913411498
-0.0171970352530479
-0.0172110367566347
-0.0168203804641962
-0.016083663329482
-0.0150663396343588
-0.0138365179300308
-0.0124587006866931
-0.0109877381473779
-0.009464650414884
-0.0079145226627588
-0.0063472725450992
-0.0047616306692361
-0.0031508291140198
-0.0015079248696565
0.0001709451898932
0.0018854141235351
0.003629642073065
0.0053906636312603
0.0071489429101347
0.0088809067383408
0.0105613078922033
0.0121658043935894
0.013673841021955
0.0150702940300107
0.0163453388959169
0.0174934435635805
0.018512587994337
0.0194038171321153
0.0201706700026989
0.02081716991961
0.0213428176939487
0.0217352155596017
0.0219624042510986
0.021968699991703
0.0216774996370077
0.0210005547851324
0.0198532193899154
0.0181751139461994
0.0159486643970012
0.0132073676213622
0.0100340452045202
0.0065520144999027
0.0029100067913532
-0.0007362430333159
-0.0042403759434819
-0.0074756713584065
-0.0103387488052248
-0.0127506926655769
-0.014659134671092
-0.0160402543842792
-0.01689875125885
-0.0172656383365392
-0.0171938203275203
-0.0167511627078056
-0.0160123519599437
-0.0150516778230667
-0.0139371883124113
-0.0127259148284792
-0.0114609533920884
-0.0101710595190525
-0.0088713746517896
-0.0075642629526555
-0.006241453345865
-0.004888579249382
-0.0034917937591671
-0.0020434979815036
-0.0005441098473966
0.000998297939077
0.002568488009274
0.0041459999047219
0.0057078786194324
0.0072298888117074
0.0086868423968553
0.010054750367999
0.0113141806796193
0.0124512249603867
0.0134569946676492
0.0143285486847162
0.0150693040341138
0.0156871024519205
0.0161907523870468
0.0165840592235326
0.0168572440743446
0.0169798582792282
0.0168981552124023
0.0165381915867328
0.0158168002963066
0.0146579053252935
0.0130082918331027
0.0108510367572307
0.0082156788557767
0.0051801493391394
0.0018615224398672
-0.0015997909940779
-0.0050562312826514
-0.0083672357723116
-0.0114102819934487
-0.0140873212367296
-0.0163270086050033
-0.0180850848555564
-0.0193442143499851
-0.0201133117079734
-0.0204258598387241
-0.0203363709151744
-0.0199143290519714
-0.0192360077053308
-0.0183756817132234
-0.0173978563398122
-0.0163517706096172
-0.0152693632990121
-0.0141667034476995
-0.013046727515757
-0.0119019486010074
-0.0107181360945105
-0.0094790626317262
-0.0081707164645195
-0.006784388795495
-0.0053189639002084
-0.0037819272838532
-0.002189113991335
-0.0005641672760248
0.0010630077449604
0.00265942979604
0.0041926698759198
0.0056347046047449
0.0069657731801271
0.0081760995090007
0.0092645799741148
0.0102363098412752
0.0110997287556529
0.0118608567863702
0.012513835914433
0.0130328405648469
0.0133707132190465
0.013463769108057
0.013239849358797
0.0126295080408453
0.0115802269428968
0.0100703369826078
0.0081176841631531
0.0057806298136711
0.0031533478759229
0.0003566839732229
-0.0024759080260992
-0.0052137654274702
-0.007740338332951
-0.0099598076194524
-0.0118011068552732
-0.0132201630622148
-0.0141997337341308
-0.0147467320784926
-0.0148895811289548
-0.0146765150129795
-0.0141710806638002
-0.0134433191269636
-0.012560024857521
-0.011577408760786
-0.0105373309925198
-0.0094662895426154
-0.0083757871761918
-0.0072649731300771
-0.0061260946094989
-0.0049495790153741
-0.0037272637709975
-0.0024554673582315
-0.0011372163426131
0.0002177617279812
0.0015942747704684
0.002973464783281
0.0043343566358089
0.0056541287340223
0.0069092982448637
0.0080796778202056
0.0091522466391325
0.010121751576662
0.0109885223209857
0.0117545770481228
0.0124176675453782
0.0129633471369743
0.0133570153266191
0.0135404858738183
0.0134371733292937
0.0129653057083487
0.0120546817779541
0.0106627279892563
0.0087864771485328
0.0064674066379666
0.0037886705249547
0.0008664145134389
-0.0021632879506796
-0.0051594232209026
-0.00798927154392
-0.0105379363521933
-0.0127144660800695
-0.0144557114690542
-0.015728872269392
-0.0165314730256795
-0.0168876033276319
-0.0168417412787675
-0.0164518915116786
-0.015783267095685
-0.0149024361744523
-0.0138716418296098
-0.0127442786470055
-0.011561743915081
-0.0103510553017258
-0.0091244531795382
-0.0078820195049047
-0.0066158222034573
-0.0053146034479141
-0.0039688441902399
-0.0025745236780494
-0.0011344095692038
0.0003426696639508
0.0018438261467963
0.003354140324518
0.0048578102141618
0.0063385623507201
0.0077793430536985
0.0091616017743945
0.010465670377016
0.0116730257868766
0.012768579646945
0.0137401279062032
0.0145731959491968
0.0152422208338975
0.0157028269022703
0.0158904641866683
0.0157269015908241
0.0151330949738621
0.0140459639951586
0.0124342143535614
0.0103074815124273
0.0077186403796076
0.0047622662968933
0.0015675565227866
-0.0017166427569463
-0.0049403551965951
-0.0079673388972878
-0.0106838122010231
-0.0130025502294301
-0.0148635944351553
-0.0162332355976104
-0.017103049904108
-0.0174882393330335
-0.0174238719046115
-0.0169600993394851
-0.0161580275744199
-0.0150855984538793
-0.0138120390474796
-0.0124013619497418
-0.0109073016792535
-0.0093709900975227
-0.0078206332400441
-0.0062722126021981
-0.004730412736535
-0.0031898552551865
-0.0016380660235881
-6.0723163187503815e-05
0.0015525510534644
0.0032043238170444
0.004888339433819
0.0065909237600862
0.0082933604717254
0.0099737597629427
0.0116091398522257
0.013177815824747
0.0146607030183076
0.016041737049818
0.0173075105994939
0.0184458140283823
0.0194437764585018
0.0202848445624113
0.0209430418908596
0.0213761832565069
0.0215216130018234
0.0212987568229436
0.0206214245408773
0.0194161180406808
0.017639372497797
0.015290499664843
0.0124179795384407
0.0091181835159659
0.0055264690890908
0.0018020335119217
-0.0018903968157246
-0.0053968802094459
-0.0085849035531282
-0.0113495346158742
-0.0136172920465469
-0.0153469173237681
-0.0165268965065479
-0.0171721819788217
-0.0173206739127635
-0.0170285459607839
-0.0163647327572107
-0.0154048493131995
-0.0142246168106794
-0.0128933116793632
-0.0114681087434291
-0.0099914260208606
-0.0084915030747652
-0.0069834939204156
-0.0054702567867934
-0.0039450377225875
-0.0023971498012542
-0.0008180458098649
0.0007950854487717
0.0024380055256187
0.0040998915210366
0.0057649286463856
0.0074135884642601
0.0090236812829971
0.0105717349797487
0.0120348148047924
0.0133929885923862
0.0146321225911378
0.0157453492283821
0.016731422394514
0.0175902098417282
0.0183167494833469
0.0188952106982469
0.0192934460937976
0.0194589085876941
0.0193189643323421
0.0187893379479646
0.0177902653813362
0.0162646826356649
0.0141928764060139
0.0116014741361141
0.0085655599832534
0.0052026286721229
0.0016588945873081
-0.0019087565597146
-0.0053504188545048
-0.0085357194766402
-0.0113597847521305
-0.0137456692755222
-0.0156449954956769
-0.0170363262295722
-0.0179228112101554
-0.0183303337544202
-0.0183048453181982
-0.0179081372916698
-0.0172119997441768
-0.0162909310311079
-0.0152150467038154
-0.0140445120632648
-0.0128254499286413
-0.0115874437615275
-0.0103427236899733
-0.0090879406780004
-0.007809875998646
-0.0064931185916066
-0.005125930532813
-0.0037035550922155
-0.0022294782102108
-0.000714220223017
0.0008269507670775
0.0023749391548335
0.0039069852791726
0.0053982976824045
0.0068249935284256
0.008166410960257
0.0094059724360704
0.010531261563301
0.0115337129682302
0.0124069070443511
0.0131414039060473
0.0137167479842901
0.0140947513282299
0.0142172984778881
0.0140111986547708
0.0134012531489133
0.0123273339122533
0.0107589159160852
0.008704449981451
0.0062157036736607
0.0033852877095341
0.0003373436629772
-0.0027856840752065
-0.0058385650627315
-0.0086876982823014
-0.0112198330461978
-0.0133466180413961
-0.015008888207376
-0.0161792039871215
-0.0168599877506494
-0.0170795209705829
-0.016888353973627
-0.0163541920483112
-0.0155539792031049
-0.0145651241764426
-0.0134569527581334
-0.0122849829494953
-0.0110902851447463
-0.0099001247435808
-0.0087271081283688
-0.0075695174746215
-0.0064147287048399
-0.0052449312061071
-0.0040429225191473
-0.0027964715845882
-0.0015020007267594
-0.0001662943977862
0.0011958114337176
0.0025647713337093
0.0039180195890367
0.0052315946668386
0.0064821164123713
0.0076485015451908
0.0087141208350658
0.0096679087728261
0.0105022313073277
0.0112082455307245
0.0117693245410919
0.0121535370126366
0.0123094655573368
0.0121687967330217
0.0116559937596321
0.0107041895389556
0.009273549541831
0.0073649282567203
0.0050237760879099
0.0023359321057796
-0.0005819019861519
-0.0035962359979748
-0.006571383215487
-0.0093811322003602
-0.0119171375408768
-0.0140925850719213
-0.0158429034054279
-0.0171273369342088
-0.01793023198843
-0.0182607173919677
-0.0181516278535127
-0.0176557451486587
-0.0168384611606597
-0.0157701894640922
-0.0145204775035381
-0.0131528843194246
-0.0117205893620848
-0.0102637521922588
-0.0088083697482943
-0.0073661892674863
-0.0059367320500314
-0.0045116231776773
-0.0030795037746429
-0.0016303707379847
-0.0001590172760188
0.0013330073561519
0.0028369575738906
0.0043374635279178
0.0058145718649029
0.0072479010559618
0.0086205285042524
0.0099199255928397
0.0111373169347643
0.0122665492817759
0.0133021716028451
0.0142373191192746
0.0150601845234632
0.0157476030290126
0.0162579044699668
0.0165278576314449
0.0164773575961589
0.016021491959691
0.0150867123156785
0.0136280180886387
0.0116433352231979
0.0091791432350873
0.0063256016001105
0.0032056854106485
-3.8248137570917606e-05
-0.0032593351788818
-0.0063200192525982
-0.0091022187843918
-0.0115130841732025
-0.0134870382025837
-0.0149851962924003
-0.015993433073163
-0.0165203846991062
-0.0165955778211355
-0.0162665043026208
-0.0155935585498809
-0.0146437548100948
-0.0134853841736912
-0.0121833709999918
-0.0107946684584021
-0.0093641923740506
-0.0079214973375201
-0.006479718722403
-0.0050389543175697
-0.0035921582020819
-0.0021294085308909
-0.0006409478373825
0.0008788374252617
0.0024283733218908
0.0039981724694371
0.0055714817717671
0.0071266633458435
0.0086411815136671
0.0100953076034784
0.0114734396338462
0.0127629954367876
0.0139543358236551
0.015042258426547
0.0160253439098596
0.0169033594429492
0.0176749173551797
0.0183336529880762
0.0188615750521421
0.0192226618528366
0.019360139966011
0.0191988479346036
0.0186538454145193
0.0176456365734338
0.0161190051585435
0.0140590723603963
0.0114996805787086
0.0085230758413672
0.0052511733956635
0.0018300857627764
-0.0015874030068516
-0.0048566190525889
-0.0078517729416489
-0.0104727428406476
-0.0126479426398873
-0.0143346637487411
-0.0155178569257259
-0.0162077080458402
-0.0164365954697132
-0.0162557046860456
-0.0157307125627994
-0.0149351684376597
-0.013942239806056
-0.0128178261220455
-0.0116158137097954
-0.0103746997192502
-0.009115963242948
-0.0078448643907904
-0.0065544070675969
-0.0052313241176307
-0.0038620170671492
-0.0024380139075219
-0.0009591416455805
0.0005670136306434
0.0021270019933581
0.0037028905935585
0.0052734399214386
0.0068151229061186
0.0083026383072137
0.0097096562385559
0.0110112819820642
0.012187429703772
0.0132247824221849
0.0141169680282473
0.0148637238889932
0.0154695212841033
0.0159406960010528
0.0162792205810546
0.0164741650223732
0.0164947863668203
0.0162885952740907
0.0157864186912775
0.0149145284667611
0.0136112011969089
0.0118442121893167
0.0096243154257535
0.0070092659443616
0.0040977490134537
0.0010165548883378
-0.0020954487845301
-0.0051023624837398
-0.0078825000673532
-0.0103364875540137
-0.0123926643282175
-0.0140088759362697
-0.0151714514940977
-0.0158924330025911
-0.0162047408521175
-0.0161567032337188
-0.0158069897443056
-0.0152185158804059
-0.0144526660442352
-0.013566194102168
-0.0126090217381715
-0.0116211920976638
-0.0106295282021164
-0.0096457134932279
-0.0086678145453333
-0.0076840436086058
-0.0066765495575964
-0.0056261122226715
-0.0045178527943789
-0.003345145843923
-0.0021107331849634
-0.000826031086035
0.0004911506548523
0.0018187237437814
0.0031309656333178
0.0043995399028062
0.0055961897596716
0.0066971853375434
0.0076878638938069
0.0085634049028158
0.009325330145657
0.0099770491942763
0.0105193443596363
0.0109439734369516
0.0112263485789299
0.0113219451159238
0.0111702112480998
0.0107059134170413
0.0098739825189113
0.0086425859481096
0.007012287620455
0.0050211125053465
0.0027434243820607
0.0002818824723362
-0.0022442718036472
-0.004712258465588
-0.007008425425738
-0.0090372320264577
-0.0107259815558791
-0.0120273157954216
-0.0129200397059321
-0.0134078804403543
-0.0135167352855205
-0.0132910748943686
-0.0127893751487135
-0.0120790982618927
-0.0112310573458671
-0.0103119108825922
-0.009376160800457
-0.0084609035402536
-0.0075845187529921
-0.0067480951547622
-0.0059382673352956
-0.0051316311582922
-0.0043012993410229
-0.0034245068673044
-0.0024884063750505
