bvp
-0.0084242755547165
-0.0057024033740162
-0.0030416334047913
-0.0005262475460767
0.0017934273928403
0.0038973055779933
0.0057904636487364
0.0074962452054023
0.0090487394481897
0.0104876980185508
0.0118542313575744
0.0131838973611593
0.0144989658147096
0.01580411195755
0.0170861110091209
0.0183164272457361
0.0194575116038322
0.020471453666687
0.0213271602988243
0.0220050401985645
0.0225001350045204
0.0228227637708187
0.0229957364499568
0.0230496600270271
0.0230154916644096
0.0229103472083807
0.0227179713547229
0.0223733149468898
0.0217613410204648
0.0207338333129882
0.0191401932388544
0.0168622955679893
0.0138434711843729
0.0101074585691094
0.0057653882540762
0.0010070112766698
-0.0039242981001734
-0.0087651954963803
-0.0132641866803169
-0.0172056015580892
-0.0204244777560234
-0.0228126235306262
-0.0243176352232694
-0.024938840419054
-0.0247222147881984
-0.0237536914646625
-0.0221507959067821
-0.0200519263744354
-0.0176038239151239
-0.0149502046406269
-0.012221117503941
-0.0095218522474169
-0.0069251498207449
-0.0044692447409033
-0.0021607289090752
1.7818063497543335e-05
0.0020969409961253
0.0041098929941654
0.0060843108221888
0.0080353058874607
0.0099602546542882
0.0118374731391668
0.0136299021542072
0.0152920559048652
0.0167776774615049
0.0180461257696151
0.0190659593790769
0.0198148339986801
0.0202766489237546
0.0204392913728952
0.0202948227524757
0.0198411997407674
0.0190842747688293
0.0180383846163749
0.0167232099920511
0.0151553060859441
0.0133360484614968
0.0112410653382539
0.0088167563080787
0.0059887478128075
0.002683169208467
-0.001145533286035
-0.0054900245741009
-0.0102763660252094
-0.0153649942949414
-0.0205653961747884
-0.025658506900072
-0.0304204300045967
-0.0346435904502868
-0.0381530039012432
-0.0408168695867061
-0.0425513498485088
-0.0433206744492054
-0.0431353971362113
-0.0420491397380828
-0.0401526726782321
-0.0375669859349727
-0.0344362407922744
-0.0309182703495025
-0.0271720960736274
-0.0233456380665302
-0.0195664167404174
-0.0159355942159891
-0.0125247044488787
-0.0093754054978489
-0.006502550560981
-0.0038995863869786
-0.0015439931303262
0.0005983645096421
0.0025679529644548
0.004405029118061
0.0061443299055099
0.0078114625066518
0.0094215301796793
0.0109808780252933
0.0124889127910137
0.0139376884326338
0.0153125301003456
0.016596658155322
0.0177775919437408
0.0188515558838844
0.0198242925107479
0.0207069441676139
0.0215051043778657
0.0222027376294136
0.0227476097643375
0.0230459831655025
0.0229716934263706
0.0223892256617546
0.0211843661963939
0.0192926228046417
0.0167174711823463
0.0135363042354583
0.0098946569487452
0.0059899529442191
0.0020483378320932
-0.0017007756978273
-0.0050470498390495
-0.0078147891908884
-0.0098731201142072
-0.0111422482877969
-0.0115954438224434
-0.0112584494054317
-0.0102075207978487
-0.0085641285404562
-0.0064845476299524
-0.0041453409940004
-0.0017270352691411
0.0006031524389982
0.002708732150495
0.0044975522905588
0.0059264842420816
0.0069969305768609
0.0077468217350542
0.0082425717264413
0.0085690356791019
0.0088172256946563
0.0090719806030392
0.009401012212038
0.0098471213132143
0.0104254595935344
0.0111261652782559
0.0119208041578531
0.0127693004906177
0.0136253926903009
0.0144419912248849
0.0151772815734148
0.0157996695488691
0.0162894316017627
0.0166361629962921
0.0168301574885845
0.0168473087251186
0.0166340302675962
0.0161000695079565
0.0151232108473777
0.0135675221681594
0.011311799287796
0.0082800816744565
0.0044666100293397
-5.062948912382126e-05
-0.0051115159876644
-0.0104904118925333
-0.0159227438271045
-0.0211350806057453
-0.0258743111044168
-0.0299310181289911
-0.0331522971391677
-0.0354447774589061
-0.0367725566029548
-0.0371531471610069
-0.0366518013179302
-0.0353739224374294
-0.0334556438028812
-0.0310524683445692
-0.0283255185931921
-0.0254268776625394
-0.022486925125122
-0.0196056012064218
-0.0168478582054376
-0.0142430569976568
-0.0117891887202858
-0.0094610247761011
-0.0072187394835054
-0.0050159646198153
-0.0028086146339774
-0.0005636112764477
0.0017348108813166
0.0040820348076522
0.0064537012949585
0.0088110724464058
0.0111096911132335
0.0133062666282057
0.0153611889109015
0.0172402076423168
0.0189176090061664
0.0203783474862575
0.0216173976659774
0.022636342793703
0.0234353579580783
0.0239990912377834
0.0242799576371908
0.02418670989573
0.0235865991562604
0.0223252084106206
0.0202590022236108
0.0172909516841173
0.0134014505892992
0.0086663831025362
0.0032564317807555
-0.0025800403673201
-0.0085448948666453
-0.0143243465572595
-0.0196229927241802
-0.0241905637085437
-0.0278378967195749
-0.0304431952536106
-0.0319517478346824
-0.032371561974287
-0.0317664593458175
-0.0302476398646831
-0.027963750064373
-0.0250884741544723
-0.0218049474060535
-0.0182891637086868
-0.0146959936246275
-0.0111494613811373
-0.0077372668310999
-0.0045092748478055
-0.0014802599325776
0.0013628117740154
0.00405147485435
0.0066276900470256
0.0091359391808509
0.0116143496707081
0.0140879480168223
0.0165655352175235
0.01903822645545
0.0214789789170026
0.0238447841256856
0.026082269847393
0.0281353332102298
0.0299528203904628
0.0314940921962261
0.0327320843935012
0.0336561053991317
0.0342740006744861
0.0346098691225051
0.0346955470740795
0.0345562994480133
0.034191720187664
0.0335569009184837
0.0325526520609855
0.03103150986135
0.0288216918706893
0.0257651526480913
0.0217586327344179
0.0167849753051996
0.0109286522492766
0.0043756570667028
-0.0026020805817097
-0.0096767675131559
-0.0165036302059888
-0.0227596051990985
-0.0281732939183712
-0.0325427167117595
-0.0357428640127182
-0.0377255752682685
-0.0385143123567104
-0.0381968840956687
-0.0369160994887352
-0.0348558090627193
-0.0322220735251903
-0.0292229633778333
-0.0260504353791475
-0.0228652488440275
-0.0197860617190599
-0.0168845001608133
-0.0141857806593179
-0.0116746984422206
-0.0093072904273867
-0.0070251822471618
-0.0047693052329123
-0.0024912655353546
-0.0001610200852155
0.0022297238465398
0.0046677682548761
0.0071213105693459
0.0095451772212982
0.0118874162435531
0.0140956528484821
0.0161229260265827
0.017932865768671
0.0195025689899921
0.0208224263042211
0.0218949988484382
0.0227336715906858
0.0233604442328214
0.0238027777522802
0.0240868087857961
0.0242244284600019
0.0241962578147649
0.0239363946020603
0.0233283191919326
0.0222185235470533
0.0204454641789197
0.017875887453556
0.0144394189119338
0.0101538924500346
0.0051363701932132
-0.0004032468423247
-0.006185489706695
-0.0118960496038198
-0.0172238945960998
-0.0218951310962438
-0.0256973691284656
-0.0284929312765598
-0.0302216932177543
-0.0308964774012565
-0.0305938832461833
-0.0294412784278392
-0.0276014655828475
-0.0252565965056419
-0.0225916188210248
-0.0197781659662723
-0.0169606991112232
-0.0142470020800828
-0.0117037342861294
-0.0093569830060005
-0.0071977125480771
-0.0051911734044551
-0.0032882024534046
-0.0014357875334098
0.0004143816186115
0.0022990880534052
0.0042391894385218
0.006238080561161
0.008282165043056
0.0103435553610324
0.0123841241002082
0.0143588772043585
0.0162200778722763
0.0179235488176345
0.0194345135241746
0.0207310188561677
0.0218054875731468
0.0226632356643676
0.0233164448291063
0.023774093016982
0.0240274295210838
0.0240330398082733
0.0237029157578945
0.0229106806218624
0.0215145982801914
0.0193908158689737
0.016467597335577
0.0127516370266675
0.0083397440612316
0.0034134592860937
-0.0017803329974412
-0.0069567877799272
-0.0118247438222169
-0.0161190386861562
-0.0196267552673816
-0.0222037285566329
-0.0237818621098995
-0.0243682228028774
-0.0240384116768836
-0.0229258276522159
-0.0212051570415496
-0.019071215763688
-0.0167179200798273
-0.0143199460580945
-0.0120184328407049
-0.009912665002048
-0.0080575859174132
-0.0064656822942197
-0.0051134913228452
-0.003952476195991
-0.0029205353930592
-0.0019518574699759
-0.0009864484891295
2.157688140869141e-05
0.0011000791564583
0.0022583398967981
0.0034866603091359
0.0047567971050739
0.0060257371515035
0.0072434954345226
0.0083623696118593
0.0093432404100894
0.010158622637391
0.0107945464551448
0.0112499231472611
0.0115310112014412
0.0116395354270935
0.011555740609765
0.0112232398241758
0.0105453785508871
0.0093983449041843
0.0076576974242925
0.0052301380783319
0.0020821336656808
-0.0017415676265954
-0.0061133606359362
-0.0108323832973837
-0.0156463850289583
-0.0202820524573326
-0.0244775507599115
-0.0280098915100097
-0.0307124890387058
-0.0324835516512393
-0.0332881435751915
-0.0331548452377319
-0.0321680307388305
-0.030458066612482
-0.0281890984624624
-0.025542439892888
-0.0226968415081501
-0.0198104940354824
-0.0170093942433595
-0.0143824387341737
-0.0119804255664348
-0.0098173823207616
-0.0078751184046268
-0.0061123208142817
-0.0044764257036149
-0.0029133933130651
-0.001373543869704
0.000183873809874
0.0017856133636087
0.0034406674094498
0.0051404163241386
0.0068625845015048
0.0085768355056643
0.0102494303137063
0.0118464464321732
0.0133373001590371
0.0146983433514833
0.0159150417894125
0.0169818885624408
0.0178988445550203
0.0186630301177501
0.0192551631480455
0.0196245424449443
0.0196806024760007
0.0192976202815771
0.0183351356536149
0.0166695155203342
0.0142254047095775
0.0109987901523709
0.0070687448605895
0.0025963285006582
-0.0021897905971854
-0.007019764278084
-0.0116157652810215
-0.0157238449901342
-0.0191385895013809
-0.0217172764241695
-0.0233830399811267
-0.0241212975233793
-0.02397364936769
-0.023028926923871
-0.0214106328785419
-0.0192633755505085
-0.0167409144341945
-0.0139952693134546
-0.011165315285325
-0.0083662085235118
-0.0056828092783689
-0.0031682280823588
-0.0008461698889732
0.0012845075689256
0.0032441690564155
0.0050662849098443
0.0067907650955021
0.008456889539957
0.0100960964336991
0.0117263263091444
0.0133504979312419
0.014958057552576
0.016527734696865
0.0180319994688034
0.0194415934383869
0.0207282975316047
0.0218672323971986
0.0228391159325838
0.0236322991549968
0.024243950843811
0.0246784295886755
0.0249424930661916
0.0250370595604181
0.0249449256807565
0.0246178545057773
0.023969929665327
0.0228839553892612
0.0212325025349855
0.0189072098582983
0.0158472172915935
0.0120606273412704
0.0076352069154381
0.0027352841570973
-0.0024154116399586
-0.0075609274208545
-0.012443957850337
-0.0168342906981706
-0.0205494277179241
-0.0234644915908575
-0.0255127009004354
-0.0266798511147499
-0.0269959829747676
-0.0265275835990905
-0.0253720916807651
-0.0236521400511264
-0.0215058960020542
-0.0190749857574701
-0.0164935402572155
-0.0138792060315608
-0.011326503008604
-0.0089029520750045
-0.0066478769294917
-0.0045742220245301
-0.0026724468916654
-0.0009155990555882
0.0007341201417148
0.0023175198584795
0.0038710967637598
0.0054225367493927
0.0069883009418845
0.0085710128769278
0.0101578440517187
0.0117220450192689
0.0132269635796546
0.0146321561187505
0.0159005410969257
0.0170026589184999
0.017917837947607
0.0186357013881206
0.0191569030284881
0.019488563761115
0.0196329914033412
0.0195724908262491
0.019255993887782
0.0185949094593524
0.0174727439880371
0.0157667230814695
0.0133754471316933
0.0102461781352758
0.0063957064412534
0.0019190581515431
-0.003016335889697
-0.0081889703869819
-0.0133491111919283
-0.0182463936507701
-0.0226552672684192
-0.0263943262398242
-0.0293353293091058
-0.0314040333032608
-0.0325786806643009
-0.0328862108290195
-0.0323952324688434
-0.0312075056135654
-0.0294486284255981
-0.0272587984800338
-0.0247837100178003
-0.022163700312376
-0.0195221807807683
-0.0169565323740243
-0.0145331416279077
-0.0122858108952641
-0.0102166598662734
-0.0083007374778389
-0.0064948443323373
-0.0047483006492257
-0.0030132075771689
-0.0012521725147962
0.0005571544170379
0.0024196719750761
0.0043233493342995
0.0062433145940303
0.0081464853137731
0.0099953655153512
0.0117521323263645
0.0133821424096822
0.0148566402494907
0.0161564536392688
0.0172751042991876
0.0182170048356056
0.0189886856824159
0.019584322348237
0.0199695117771625
0.0200703293085098
0.0197755508124828
0.0189556796103715
0.017494298517704
0.0153197050094604
0.012426252476871
0.0088835936039686
0.0048348065465688
0.0004825443029403
-0.003934821113944
-0.0081712501123547
-0.0119990473613142
-0.0152279352769255
-0.0177152752876281
-0.0193699821829795
-0.0201540309935808
-0.0200819298624992
-0.0192176103591918
-0.0176691394299268
-0.0155797945335507
-0.0131135331466794
-0.0104362182319164
-0.0076969023793935
-0.0050137005746364
-0.0024661999195814
-9.386427700519562e-05
0.0021000942215323
0.0041405083611607
0.0060707340016961
0.0079432865604758
0.0098099056631326
0.0117124952375888
0.0136775970458984
0.0157139021903276
0.0178116243332624
0.0199441350996494
0.0220711696892976
0.0241435356438159
0.0261102728545665
0.0279255863279104
0.0295519679784774
0.0309607032686471
0.032132726162672
0.0330585651099681
0.0337321758270263
0.0341360680758953
0.0342241153120994
0.0339121371507644
0.0330828391015529
0.0316065922379493
0.029372252523899
0.026318484917283
0.0224570725113153
0.0178825203329324
0.0127667933702468
0.0073414165526628
0.001870664069429
-0.0033794322516769
-0.008170086890459
-0.0123099591583013
-0.0156640224158763
-0.0181550439447164
-0.0197618622332811
-0.0205151811242103
-0.0204911939799785
-0.0198032539337873
-0.0185908265411853
-0.0170062072575092
-0.0152015574276447
-0.0133169423788785
-0.0114685390144586
-0.0097396858036518
-0.0081787025555968
-0.0068021938204765
-0.0055994330905377
-0.0045371656306087
-0.0035672376397997
-0.002637080848217
-0.0017000194638967
-0.0007218718528747
0.0003167036920785
0.001419136300683
0.0025727525353431
0.0037513487040996
0.0049195475876331
0.0060379840433597
0.007069363258779
0.0079835643991827
0.0087603656575083
0.009389660321176
0.0098684802651405
0.0101949088275432
0.0103584676980972
0.0103255305439233
0.0100256726145744
0.0093501023948192
0.0081650558859109
0.0063353683799505
0.0037536844611167
0.0003704335540533
-0.0037838015705347
-0.0085905557498335
-0.0138513771817088
-0.0193093158304691
-0.0246797744184732
-0.0296842996031045
-0.0340802185237407
-0.0376801788806915
-0.0403599888086319
-0.0420574471354484
-0.0427664630115032
-0.0425302013754844
-0.0414346382021904
-0.0396012961864471
-0.0371777229011058
-0.0343256182968616
-0.0312065687030553
-0.0279668793082237
-0.0247255824506282
-0.0215679127722978
-0.0185440387576818
-0.0156722739338874
-0.0129447616636753
-0.0103344768285751
-0.0078042456880211
-0.0053162714466452
-0.0028392612002789
-0.0003532153787091
0.0021470808424055
0.0046504335477948
0.0071299336850643
0.0095467707142233
0.0118568856269121
0.0140169486403465
0.0159884486347436
0.0177423283457756
0.0192632991820573
0.0205506701022386
0.0216162968426942
0.0224804244935512
0.0231631565839052
0.0236706733703613
0.0239788349717855
0.024020368233323
0.0236837733536958
0.0228280536830425
0.0213099010288715
0.0190154369920492
0.0158888604491949
0.0119524542242288
0.0073139057494699
0.0021590567193925
-0.0032674358226358
-0.0086898067966103
-0.0138330329209566
-0.0184507146477699
-0.0223428942263126
-0.0253656264394521
-0.0274353884160518
-0.0285281743854284
-0.0286731608211994
-0.0279435589909553
-0.0264485776424407
-0.0243261605501174
-0.0217329822480678
-0.0188309997320175
-0.0157723315060138
-0.0126853371039032
-0.0096658142283558
-0.0067750629968941
-0.0040431921370327
-0.0014752624556422
0.0009417557157576
0.0032326295040547
0.0054274396970868
0.0075541762635111
0.0096328686922788
0.0116733154281973
0.0136747658252716
0.0156262628734111
0.0175077803432941
0.019292552024126
0.0209508743137121
0.0224546417593956
0.0237812921404838
0.0249162502586841
0.0258538350462913
0.026597561314702
0.0271599646657705
0.027560407295823
0.0278197731822729
0.0279516074806451
0.0279497895389795
0.0277746878564357
0.0273436866700649
0.0265343002974987
0.0252031721174716
0.0232152678072452
0.0204742327332496
0.0169473830610513
0.0126807484775781
0.0078011509031057
0.0025047389790415
-0.0029663133900612
-0.0083536328747868
-0.0134112741798162
-0.0179276354610919
-0.0217389799654483
-0.0247355327010154
-0.0268619880080223
-0.0281139910221099
-0.0285324212163686
-0.0281974524259567
-0.027221143245697
-0.0257360003888607
-0.0238819345831871
-0.0217959769070148
-0.0196039602160453
-0.0174113437533378
-0.0152945052832365
-0.0132966460660099
-0.0114296888932585
-0.0096794301643967
-0.0080127548426389
-0.0063879457302391
-0.0047651501372456
-0.0031128260307013
-0.0014110954944044
0.0003454817924648
0.002146242884919
0.0039656432345509
0.0057679237797856
0.0075136898085474
0.0091658988967537
0.0106940986588597
0.0120770037174224
0.0133034819737076
0.0143718123435974
0.0152869578450918
0.0160564836114645
0.0166871100664138
0.0171811804175376
0.0175291579216718
0.0176982302218675
0.0176230780780315
0.0172066856175661
0.016334693878889
0.0148994578048586
0.012826619669795
0.010097436606884
0.0067619914188981
0.0029402582440525
-0.001188789261505
-0.0054067010059952
-0.0094799399375915
-0.0131847616285085
-0.0163282696157693
-0.0187641121447086
-0.0204024631530046
-0.02121302485466
-0.0212214030325412
-0.0205018259584903
-0.019167885184288
-0.017360646277666
-0.0152335204184055
-0.01293530408293
-0.01059574726969
-0.0083170244470238
-0.0061697950586676
-0.0041915597394108
-0.0023878037463873
-0.0007369525264948
0.0008014190243557
0.0022764864843338
0.0037360128480941
0.0052183582447469
0.0067477393895387
0.0083324033766984
0.0099652502685785
0.0116257332265377
0.0132819935679435
0.0148941315710544
0.0164191573858261
0.0178162958472967
0.019051443785429
0.0201006904244422
0.0209525637328624
0.0216077715158462
0.0220760200172662
0.0223695822060108
0.022491306066513
0.0224187411367893
0.0220934674143791
0.0214227773249149
0.0202936306595802
0.0185955092310905
0.0162470396608114
0.0132202496752142
0.0095565058290958
0.005369909107685
0.0008374582976102
-0.0038217725232243
-0.008373943157494
-0.0125971604138612
-0.0163020603358745
-0.0193453300744295
-0.0216360818594694
-0.023136792704463
-0.0238627679646015
-0.023879088461399
-0.0232918485999107
-0.0222342871129512
-0.0208499711006879
-0.019276313483715
-0.0176322311162948
-0.0160104297101497
-0.0144733833149075
-0.013053604401648
-0.0117571456357836
-0.0105680851265788
-0.0094541870057582
-0.0083744376897811
-0.0072873840108513
-0.0061586527153849
-0.004966476932168
-0.0037044424097985
-0.0023816637694835
-0.0010206210426986
0.0003473060205578
0.0016870303079485
0.0029647424817085
0.0041527752764523
0.0052326209843158
0.006194737739861
0.0070366286672651
0.0077607491984963
0.0083712618798017
0.0088674779981374
0.0092328749597072
0.0094220219179987
0.0093531562015414
0.0089139286428689
0.0079801576212048
0.0064423214644193
0.0042335018515586
0.0013513136655092
-0.002132233697921
-0.0060742106288671
-0.0102753555402159
-0.0145028103142976
-0.0185176040977239
-0.0221023503690958
-0.0250831227749586
-0.0273407567292451
-0.0288125053048133
-0.0294881630688905
-0.0294027291238307
-0.0286274794489145
-0.027261346578598
-0.0254220478236675
-0.0232363287359476
-0.0208296049386262
-0.0183154381811618
-0.0157876294106245
-0.0133169349282979
-0.0109503287822008
-0.0087115904316306
-0.0066032665781676
-0.0046095964498817
-0.0027019213885068
-0.0008462024852633
0.0009902166202664
0.0028333547525107
0.0046993684954941
0.0065936427563428
0.0085107237100601
0.0104343183338642
0.0123376548290252
0.0141857136040925
0.0159404426813125
0.0175662711262702
0.0190334916114807
0.0203205309808254
0.0214155577123165
0.0223161727190017
0.0230243764817714
0.0235337316989898
0.0238124281167984
0.0237926840782165
0.0233729854226112
0.0224320441484451
0.0208517108112573
0.0185446590185165
0.015478940680623
0.0116933919489383
0.0073027899488806
0.0024912152439355
-0.0025071892887353
-0.007435284089297
-0.0120412074029445
-0.0161036495119333
-0.0194508284330368
-0.0219703018665313
-0.023609397932887
-0.0243696421384811
-0.0242994874715805
-0.0234869755804538
-0.0220504254102706
-0.0201256424188613
-0.0178523808717727
-0.0153631335124373
-0.0127736404538154
-0.0101751210168004
-0.0076303603127598
-0.005174221470952
-0.002816904336214
-0.0005492661148309
0.0016494523733854
0.0038040690124034
0.0059389770030975
0.0080743795260787
0.010221510194242
0.0123799573630094
0.0145376026630401
0.0166709888726472
0.0187466386705636
0.0207241494208574
0.0225605927407741
0.0242157392203807
0.0256573669612407
0.0268655344843864
0.0278347842395305
0.02857331559062
0.0290975272655487
0.029421703889966
0.0295445621013641
0.0294342692941427
0.0290172435343265
0.0281792301684618
0.0267822947353124
0.0246937349438667
0.021818570792675
0.0181270167231559
0.0136705543845891
0.0085841007530689
0.0030746886041015
-0.0026017965283244
-0.0081707490608096
-0.0133694922551512
-0.0179735776036977
-0.0218133237212896
-0.024779487401247
-0.026822755113244
-0.0279502607882022
-0.0282192043960094
-0.02772743627429
-0.0266020819544792
-0.0249871294945478
-0.0230297613888978
-0.0208669677376747
-0.0186147894710302
-0.0163611490279436
-0.0141636058688163
-0.0120521737262606
-0.0100337378680706
-0.0080945789813995
-0.0062038740143179
-0.0043224990367889
-0.0024137869477272
-0.0004511540755629
0.0015780087560415
0.0036714095622301
0.0058124288916587
0.0079710101708769
0.0101059954613447
0.012169798836112
0.014113925397396
0.0158939957618713
0.0174747146666049
0.0188341774046421
0.0199650935828685
0.0208717565983533
0.0215641260147094
0.0220501031726598
0.0223237909376621
0.022349651902914
0.0220517329871654
0.0213188137859106
0.0200260691344738
0.0180652756243944
0.0153745235875248
0.0119601460173726
0.007907373830676
0.0033786359708756
-0.0014012106694281
-0.0061700223013758
-0.0106582753360271
-0.0146179962903261
-0.0178450383245944
-0.0201927907764911
-0.0215808022767305
-0.0219999253749847
-0.0215104687958955
-0.0202312637120485
-0.0183223914355039
-0.0159652810543775
-0.0133426683023571
-0.010621122084558
-0.0079378234222531
-0.0053918287158012
-0.0030405311845242
-0.0009014718234539
0.0010403619380667
0.0028198140207678
0.0044778515584766
0.006052351091057
0.007573745213449
0.0090627903118729
0.0105288820341229
0.0119689898565411
0.0133680272847414
0.014702109619975
0.0159441567957401
0.0170682854950428
0.0180519931018352
0.0188784897327423
0.0195387043058872
0.0200297981500625
0.0203507486730813
0.0204976983368396
0.0204572081565856
0.0201953034847974
0.0196478627622127
0.018720805644989
0.0173022467643022
0.0152833955362439
0.0125840734690427
0.0091774147003889
0.0051068235188722
0.0004906393587589
-0.0044854655861854
-0.0095870122313499
-0.0145581094548106
-0.0191521905362606
-0.0231580473482608
-0.0264161136001348
-0.0288264565169811
-0.0303512532263994
-0.0310119651257991
-0.030881680548191
-0.0300744287669658
-0.0287323053926229
-0.0270105488598346
-0.0250624418258667
-0.023026131093502
-0.0210144203156232
-0.0191088039427995
-0.0173572488129138
-0.0157740339636802
-0.0143428361043334
-0.0130237806588411
-0.0117638101801276
-0.0105094406753778
-0.0092171803116798
-0.0078581469133496
-0.0064188046380877
-0.0049002892337739
-0.0033179856836795
-0.0016999430954456
-8.149445056915283e-05
0.0015006866306066
0.0030115190893411
0.0044197887182235
0.0057018119841814
0.0068443594500422
0.0078443912789225
0.0087052816525101
0.0094282599166035
0.0099982609972357
0.0103696351870894
0.0104595273733139
0.0101533392444252
0.0093234060332179
0.0078569166362285
0.0056844037026166
0.0028013475239276
-0.0007204376161098
-0.0047338744625449
-0.0090314066037535
-0.0133701665326952
-0.0175004638731479
-0.0211923606693744
-0.0242581367492675
-0.0265678167343139
-0.0280538648366928
-0.0287051498889923
-0.0285566821694374
-0.0276811681687831
-0.0261821262538433
-0.0241855271160602
-0.0218285210430622
-0.0192466601729393
-0.0165627188980579
-0.0138785922899842
-0.0112695526331663
-0.0087808026000857
-0.0064280042424798
-0.0042024995200335
-0.0020792922005057
-2.558669075369835e-05
0.0019914116710424
0.0039986814372241
0.0060132378712296
0.0080390889197587
0.0100667206570506
0.0120751848444342
0.0140352910384535
0.0159134175628423
0.0176755283027887
0.0192903392016887
0.0207315813750028
0.0219810009002685
0.0230309087783098
0.0238826666027307
0.0245413482189178
0.0250081419944763
0.0252699647098779
0.0252876169979572
0.0249882601201534
0.0242698658257722
0.0230200216174125
0.0211429204791784
0.0185858514159917
0.0153580233454704
0.0115374671295285
0.0072664585895836
0.0027377125807106
-0.0018265205435454
-0.0061984821222722
-0.010167671367526
-0.0135599980130791
-0.0162514336407184
-0.0181731823831796
-0.0193091239780187
-0.0196901876479387
-0.0193871576339006
-0.0185007695108652
-0.017150055617094
-0.0154608618468046
-0.013555159792304
-0.0115419644862413
-0.0095113450661301
-0.0075320387259125
-0.0056514642201364
-0.0038958177901804
-0.0022702137939631
-0.0007617208175361
0.0006548231467604
0.0020106034353375
0.0033361134119331
0.0046546477824449
0.0059782927855849
0.007306495681405
0.0086265280842781
0.0099161705002188
0.0111482394859194
0.0122957527637481
0.0133362980559468
0.0142539134249091
0.0150391552597284
0.015689518302679
0.0162099190056324
0.0166114252060651
0.0169072113931179
0.0171051993966102
0.0171969700604677
0.017146099358797
0.0168824903666973
0.0163066480308771
0.0153043512254953
0.0137697383761405
0.0116298124194145
0.0088639063760638
0.005516167730093
0.0016981645021587
-0.0024210554547607
-0.0066348994150757
-0.0107235088944435
-0.0144783658906817
-0.017723673954606
-0.020329188555479
-0.0222134944051504
-0.0233428515493869
-0.0237288232892751
-0.0234235413372516
-0.022512137889862
-0.0211038365960121
-0.0193222369998693
-0.017293868586421
-0.0151358563452959
-0.0129463747143745
-0.0108005106449127
-0.0087503120303154
-0.0068257171660661
-0.0050345002673566
-0.0033637350425124
-0.0017853407189249
-0.0002636862918734
0.0012371288612484
0.002747590187937
0.0042888591997325
0.005869903601706
0.0074866018258035
0.009122647345066
0.0107510918751358
0.0123379919677972
0.0138488626107573
0.0152541175484657
0.0165311563760042
0.0176662057638168
0.0186560470610857
0.0195047352463006
0.0202138572931289
0.020768903195858
0.0211256779730319
0.0212044492363929
0.0208995286375284
0.0201024133712053
0.0187287218868732
0.0167409908026456
0.0141641609370708
0.0110911568626761
0.0076756495982408
0.0041138371452689
0.0006208299892023
-0.0025941804051399
-0.0053500565700232
-0.0075098825618624
-0.008990129455924
-0.009763685055077
-0.0098586603999137
-0.0093525368720293
-0.0083610629662871
-0.0070246560499072
-0.0054936851374804
-0.0039125615730881
-0.0024052576627582
-0.0010646997252479
5.361763760447502e-05
0.0009331726469099
0.0015921909362077
0.0020741755142807
0.0024360746610909
0.0027370692696422
0.003029323183
0.0033522765152156
0.0037312810309231
0.0041784173808991
0.0046931491233408
0.0052634296007454
0.0058680074289441
0.006479209754616
0.0070666703395545
0.0076017137616872
0.0080607142299413
0.0084271011874079
0.0086911041289567
0.0088450126349926
0.0088731879368424
0.008739492855966
0.0083780223503708
0.0076929917559027
0.0065702209249138
0.0048988433554768
0.0025977892801165
-0.0003603268414735
-0.0039336970075964
-0.008008393459022
-0.0124093946069478
-0.0169216655194759
-0.0213155634701252
-0.025371516123414
-0.0288994163274765
-0.0317511931061744
-0.0338276997208595
-0.0350811220705509
-0.0355138890445232
-0.0351749435067176
-0.0341533385217189
-0.032569020986557
-0.0305606089532375
-0.0282712802290916
-0.0258360709995031
-0.0233714152127504
-0.0209662280976772
-0.0186773519963026
-0.0165305510163307
-0.014524457976222
-0.012636836618185
-0.0108324941247701
-0.0090700080618262
-0.0073081087321043
-0.0055137081071734
-0.0036678090691566
-0.0017664770130068
0.0001807564403861
0.0021532964892685
0.004122064448893
0.0060528167523443
0.0079116635024547
0.0096703208982944
0.0113077340647578
0.0128094647079706
0.0141669353470206
0.0153746576979756
0.0164229981601238
0.017285956069827
0.0179061722010374
0.0181854832917451
0.0179904550313949
0.0171737782657146
0.0156046049669384
0.0131999682635068
0.0099507644772529
0.0059357536956667
0.0013192677870392
-0.003666166216135
-0.0087471585720777
-0.0136407874524593
-0.0180849097669124
-0.0218629278242588
-0.0248182546347379
-0.0268580019474029
-0.027950432151556
-0.0281189270317554
-0.0274339374154806
-0.0260046496987342
-0.0239695832133293
-0.0214837081730365
-0.018702432513237
-0.0157665163278579
-0.0127915851771831
-0.0098618976771831
-0.007027793675661
-0.0043078940361738
-0.0016950238496065
0.0008358489722013
0.0033179800957441
0.0057833362370729
0.0082556530833244
0.0107466140761971
0.0132544748485088
0.0157649032771587
0.0182534381747245
0.0206884555518627
0.0230340715497732
0.0252528432756662
0.0273082088679075
0.0291668511927127
0.0308014750480651
0.0321939773857593
0.0333374738693237
0.034235019236803
0.0348936021327972
0.0353124216198921
0.0354656018316745
0.0352854132652282
0.0346568673849105
0.033429704606533
0.0314454101026058
0.0285729561001062
0.0247453209012746
0.0199865251779556
0.0144221018999814
0.0082724094390869
0.0018296483904123
-0.004577393643558
-0.010621384717524
-0.0160098373889923
-0.020509984344244
-0.0239619314670562
-0.0262818373739719
-0.0274601988494396
-0.0275564063340425
-0.0266888067126274
-0.0250207986682653
-0.0227444097399711
-0.0200625695288181
-0.0171709563583135
-0.0142412735149264
-0.0114084426313638
-0.0087628960609436
-0.0063487663865089
-0.0041681844741106
-0.0021898634731769
-0.000359434634447
0.0013898573815822
0.0031256601214408
0.0049050124362111
0.0067668827250599
0.0087297596037387
0.0107908844947814
0.0129262749105691
0.0150937614962458
0.017239661887288
0.0193065423518419
0.0212390534579753
0.0229880362749099
0.0245146248489618
0.0257941521704196
0.0268176011741161
0.0275874808430671
0.0281052775681018
0.0283515732735395
0.0282669439911842
0.0277449171990156
0.0266433060169219
0.0248124599456787
0.0221324209123849
0.0185477826744318
0.0140918577089905
0.0088962987065315
0.0031840139999985
-0.0027536854613572
-0.0085902735590934
-0.0140013750642538
-0.0186995659023523
-0.0224589575082063
-0.0251274891197681
-0.0266319066286087
-0.0269793234765529
-0.0262540802359581
-0.0246074702590703
-0.022239938378334
-0.0193782951682806
-0.0162514634430408
-0.0130680408328771
-0.0099985692650079
-0.0071641728281974
-0.0046331165358424
-0.0024246440734714
-0.0005166793707758
0.0011438087094575
0.0026289415545761
0.0040191956795752
0.0053930822759866
0.0068160616792738
0.0083312876522541
0.0099546881392598
0.0116744581609964
0.013454807922244
0.0152432862669229
0.0169798322021961
0.018605675548315
0.0200697071850299
0.0213316101580858
0.0223627351224422
0.0231429170817136
0.0236493088304996
0.0238381959497928
0.0236294940114021
0.0229044705629348
0.021519923582673
0.0193362943828105
0.0162532553076744
0.0122432801872491
0.0073737688362598
0.0018117111176252
-0.0041906852275133
-0.0103259664028882
-0.0162686817348003
-0.0217113774269819
-0.026394534856081
-0.030126579105854
-0.032792218029499
-0.034353032708168
-0.0348442308604717
-0.0343672931194305
-0.0330776832997798
-0.0311679728329181
-0.0288474857807159
-0.0263211205601692
-0.0237698704004287
-0.0213351547718048
-0.0191101003438234
-0.017138410359621
-0.0154184941202402
-0.013912133872509
-0.0125565584748983
-0.0112774521112442
-0.0100010288879275
-0.0086633898317813
-0.0072171539068222
-0.0056369332596659
-0.0039231767877936
-0.0021017212420701
-0.0002173464745283
0.0016761515289545
0.0035245567560195
0.0052792504429817
0.0069014988839626
0.0083642099052667
0.0096503738313913
0.0107477381825447
0.0116381682455539
0.012281846255064
0.0126014817506074
0.0124762058258056
0.0117523688822984
0.0102694928646087
0.0078943949192762
0.0045564882457256
0.0002761408686637
-0.0048223845660686
-0.0105169843882322
-0.0165102090686559
-0.022463571280241
-0.0280380994081497
-0.0329324267804622
-0.0369099788367748
-0.0398128554224967
-0.0415644980967044
-0.0421640649437904
-0.0416754856705665
-0.0402139946818351
-0.0379326045513153
-0.0350092276930809
-0.0316323712468147
-0.0279845762997865
-0.0242269970476627
-0.0204881019890308
-0.0168569963425397
-0.0133823612704873
-0.0100774597376585
-0.0069281104952096
-0.0039006297010928
-0.0009502973407506
0.001968803582713
0.0048937797546386
0.0078445542603731
0.0108194854110479
0.0137961097061634
0.016735004261136
0.0195854976773262
0.0222927965223789
0.0248040668666362
0.027073023840785
0.0290644019842147
0.0307570323348045
0.0321442559361457
0.0332307964563369
0.0340232662856578
0.0345136523246765
0.0346608087420463
0.0343796163797378
0.0335463918745517
0.0320211686193943
0.0296797938644886
0.0264464057981967
0.0223191641271114
0.0173856429755687
0.0118243629112839
0.0058890837244689
-0.0001212389906868
-0.0058982451446354
-0.0111580090597271
-0.0156670603901147
-0.0192573629319667
-0.0218312926590442
-0.0233591850847005
-0.0238720439374446
-0.0234517510980367
-0.0222195442765951
-0.0203234627842903
-0.0179260224103927
-0.0151922702789306
-0.0122784599661827
-0.0093221450224518
-0.0064336620271205
-0.0036897943355143
-0.0011320556513965
0.0012296461500227
0.0034101817291229
0.0054415669292211
0.0073655019514262
0.0092259012162685
0.0110609466210007
0.0128960143774747
0.0147398300468921
0.0165838319808244
0.0184034425765275
0.0201616678386926
0.0218154080212116
0.0233222302049398
0.0246451534330844
0.025756224989891
0.026639649644494
0.0272920466959476
0.0277185477316379
0.0279250163584947
0.0279040988534688
0.0276169218122959
0.0269808303564786
0.0258717443794012
0.0241423789411783
0.0216531008481979
0.0183079354465007
0.0140855591744184
0.0090577146038413
0.0033909520134329
-0.002669334411621
-0.0088278399780392
-0.0147739332169294
-0.0202168561518192
-0.0249158814549446
-0.0286989547312259
-0.0314687862992286
-0.0332001522183418
-0.033931665122509
-0.0337544456124305
-0.0327989310026168
-0.0312196016311645
-0.029179073870182
-0.0268345661461353
-0.0243269708007574
-0.0217717718333005
-0.0192537009716033
-0.0168264359235763
-0.0145154278725385
-0.0123223084956407
-0.010230740532279
-0.0082121500745415
-0.0062309559434652
-0.0042513208463788
-0.0022453111596405
-0.0001989885204238
0.0018858050461858
0.0039929435588419
0.0060950499027967
0.0081564644351601
0.0101358108222484
0.0119900414720177
0.0136797446757555
0.015173252671957
0.016449561342597
0.0175004936754703
0.018329843878746
0.0189471654593944
0.0193547010421752
0.0195298865437507
0.0194123592227697
0.0189040768891572
0.0178848784416914
0.0162395630031824
0.0138882333412766
0.0108118364587426
0.0070671672001481
0.002788686659187
-0.0018224650993943
-0.0065202079713344
-0.0110418135300278
-0.0151371285319328
-0.0185937378555536
-0.0212549343705177
-0.0230289511382579
-0.0238894838839769
-0.0238713081926107
-0.0230642482638359
-0.0216025486588478
-0.0196479856967926
-0.0173713136464357
-0.014935047365725
-0.0124784605577588
-0.0101074930280447
-0.007890423759818
-0.005857789888978
-0.0040061227045953
-0.0023053039330989
-0.0007083280361257
0.0008382241358049
0.0023848908022046
0.0039719184860587
0.0056237643584609
0.007347016595304
0.0091324420645833
0.0109585458412766
0.0127945216372609
0.0146030616015195
0.0163432285189628
0.0179735906422138
0.0194561257958412
0.0207600370049476
0.0218640659004449
0.0227540899068117
0.0234127808362245
0.0238042492419481
0.0238617658615112
0.0234864316880702
0.022560641169548
0.0209736749529838
0.0186511967331171
0.0155799379572272
0.0118219712749123
0.0075154807418584
0.0028610536828637
-0.0019028624519705
-0.0065275961533188
-0.0107785630971193
-0.0144546013325452
-0.0174027942121028
-0.0195281356573104
-0.0207975842058658
-0.0212390981614589
-0.0209353752434253
-0.0200119726359844
-0.0186220556497573
-0.0169306714087724
-0.0150991734117269
-0.0132698342204093
-0.0115530779585242
-0.0100202234461903
-0.0087026925757527
-0.0075963721610605
-0.0066685252822935
-0.0058661857619881
-0.0051261950284242
-0.0043857097625732
-0.0035915493499487
-0.0027074688114225
-0.0017182137817144
-0.0006289645098149
0.0005395384505391
0.0017567719332873
0.0029857321642339
0.0041855303570628
0.0053168148733675
0.0063478304073214
0.0072565120644867
0.0080287959426641
0.0086546493694186
0.0091191558167338
0.009387326426804
0.0093902060762047
0.0090231243520975
0.008159595541656
0.0066765239462256
0.0044842446222901
0.0015541492030024
-0.0020637325942516
-0.0062372903339564
-0.0107637848705053
-0.0153944697231054
-0.0198661349713802
-0.0239317454397678
-0.027384590357542
-0.030072396621108
-0.0319014228880405
-0.0328350886702537
-0.0328908078372478
-0.0321342870593071
-0.0306704677641391
-0.0286322329193353
-0.0261678751558065
-0.023428201675415
-0.020553819835186
-0.017664585262537
-0.014852650463581
-0.0121776023879647
-0.0096648130565881
-0.0073097706772387
-0.0050866599194705
-0.0029574129730463
-0.0008800225332379
0.0011837929487228
0.0032633277587592
0.0053770770318806
0.0075314962305128
0.0097188735380768
0.0119173843413591
0.0140945864841341
0.0162119343876838
0.0182291679084301
0.0201089233160018
0.0218203887343406
0.0233406983315944
0.0246546380221843
0.0257514975965023
0.0266154967248439
0.0272103324532508
0.0274654440581798
0.0272732377052307
0.0265009757131338
0.0250147338956594
0.022710345685482
0.0195437707006931
0.0155516806989908
0.0108572924509644
0.0056619294919073
0.0002242624759674
-0.0051693567074835
-0.0102373827248811
-0.0147318970412015
-0.0184590648859739
-0.0212891437113285
-0.0231572724878788
-0.0240585654973983
-0.0240408703684806
-0.0231965128332376
-0.0216528140008449
-0.0195609461516141
