bvp
0.0098872752860188
0.0101253315806388
0.0102575598284602
0.010256465524435
0.010079332627356
0.0096745798364281
0.0089927464723587
0.007998994551599
0.0066831558942794
0.0050657563842833
0.0031987437978386
0.0011591054499149
-0.0009621917270123
-0.0030703456141054
-0.0050745452754199
-0.0068954671733081
-0.0084710298106074
-0.0097579564899206
-0.0107305813580751
-0.0113791450858116
-0.0117080956697463
-0.0117343636229634
-0.0114861009642481
-0.0110022258013486
-0.0103309676051139
-0.0095258206129074
-0.0086413044482469
-0.0077308779582381
-0.006844671908766
-0.006024305243045
-0.0052965474314987
-0.0046699093654751
-0.0041361548937857
-0.0036756864283233
-0.0032638730481266
-0.0028753625229001
-0.0024861698038876
-0.0020753401331603
-0.0016279483679682
-0.0011395186884328
-0.0006173700094223
-7.594656199216843e-05
0.0004688454791903
0.0010023174108937
0.001512593938969
0.0019922698847949
0.0024390700273215
0.0028551900759339
0.0032465918920934
0.0036218427121639
0.0039881053380668
0.0043449555523693
0.0046789338812232
0.0049606394022703
0.005146088078618
0.005183563567698
0.0050244093872606
0.0046343156136572
0.0040016444399952
0.0031408763024955
0.0020914147607982
0.0009126130025833
-0.0003238189383409
-0.0015423195436596
-0.0026712021790444
-0.0036484780721366
-0.0044258176349103
-0.0049714432097971
-0.0052718059159815
-0.0053311134688556
-0.0051691713742911
-0.0048180734738707
-0.0043171923607587
-0.0037075928412377
-0.003028254956007
-0.0023148651234805
-0.0015999940223991
-0.0009126424556598
-0.0002760605420917
0.0002955239033326
0.000799763482064
0.0012469629291445
0.0016572424210608
0.0020546272862702
0.0024618650786578
0.0028981333598494
0.0033775642514228
0.0039073205552995
0.004486353136599
0.005105759948492
0.0057498421519994
0.0063971485942602
0.0070235072635114
0.0076070576906204
0.0081321951001882
0.0085909599438309
0.0089818630367517
0.0093068229034543
0.009568047709763
0.0097668403759598
0.0099039627239108
0.0099781472235918
0.0099815838038921
0.0098953433334827
0.0096875978633761
0.0093156201764941
0.0087317544966936
0.0078929606825113
0.0067711761221289
0.0053611663170158
0.0036845551803708
0.0017890627495944
-0.0002571649383753
-0.0023740434553474
-0.0044782324694097
-0.0064904522150754
-0.0083414763212203
-0.0099769011139869
-0.0113592967391014
-0.0124674849212169
-0.0132955461740493
-0.013851418159902
-0.0141530949622392
-0.0142250377684831
-0.0140966679900884
-0.0138004198670387
-0.0133690191432833
-0.0128338662907481
-0.0122242737561464
-0.0115661900490522
-0.0108798220753669
-0.0101776728406548
-0.0094647323712706
-0.0087399668991565
-0.0079989191144704
-0.0072378409095108
-0.0064564505591988
-0.0056566284038126
-0.0048397807404398
-0.0040056621655821
-0.0031527015380561
-0.0022808643989264
-0.001395555678755
-0.0005084667354822
0.0003656027838587
0.0012141237966716
0.0020307579543441
0.0028152375016361
0.0035711077507585
0.0043039489537477
0.005019468255341
0.0057188067585229
0.0063911052420735
0.0070077329874038
0.0075215362012386
0.0078715467825531
0.0079921288415789
0.0078237513080239
0.0073237419128417
0.0064765065908432
0.005299724638462
0.0038431631401181
0.0021818885579705
0.0004067094996571
-0.0013869442045688
-0.0031086271628737
-0.0046786265447735
-0.0060320347547531
-0.007122388575226
-0.0079234484583139
-0.0084296725690364
-0.0086557809263467
-0.0086334235966205
-0.0084049021825194
-0.0080168433487415
-0.0075160395354032
-0.0069464240223169
-0.0063448389992117
-0.0057365354150533
-0.0051332712173461
-0.0045340377837419
-0.0039268499240279
-0.0032918220385909
-0.0026057884097099
-0.0018473099917173
-0.0010010721161961
-6.126426160335541e-05
0.0009671980515122
0.0020704669877886
0.0032290322706103
0.0044210804626345
0.0056257005780935
0.006824274547398
0.0079998634755611
0.0091370102018117
0.0102224815636873
0.0112456250935792
0.0121969785541296
0.0130638591945171
0.0138237131759524
0.0144385620951652
0.0148543156683444
0.0150073477998375
0.0148370470851659
0.0142999999225139
0.0133817931637167
0.0121028311550617
0.0105165690183639
0.0087022790685296
0.0067548295482993
0.004773526918143
0.0028522433713078
0.0010723294690251
-0.0005007749423384
-0.0018181204795837
-0.002847746014595
-0.0035769753158092
-0.0040141325443983
-0.0041854716837406
-0.0041292142122983
-0.003891141153872
-0.0035210018977522
-0.0030681919306516
-0.0025771213695406
-0.002081916667521
-0.00160179939121
-0.0011403383687138
-0.0006880722939968
-0.0002264641225337
0.0002665929496288
0.0008105263113975
0.0014172662049531
0.0020895805209875
0.0028232047334313
0.0036096624098718
0.0044364943169057
0.005286413244903
0.0061383922584354
0.0069706393405795
0.0077630598098039
0.0084987478330731
0.0091646257787942
0.0097487792372703
0.0102340374141931
0.0105918571352958
0.0107794106006622
0.0107397055253386
0.0104061625897884
0.0097138881683349
0.0086156595498323
0.0070962752215564
0.0051796548068523
0.0029283189214766
0.0004373611882328
-0.0021765804849565
-0.0047896234318614
-0.007283326704055
-0.0095532648265361
-0.0115152625367045
-0.0131098795682191
-0.0143036944791674
-0.0150876296684145
-0.0154741536825895
-0.0154941547662019
-0.0151928514242172
-0.0146247958764433
-0.01384914573282
-0.0129254162311553
-0.0119082517921924
-0.0108411833643913
-0.0097520807757973
-0.0086526749655604
-0.0075418525375425
-0.0064101456664502
-0.0052434201352298
-0.0040270183235406
-0.0027514798566699
-0.0014168135821819
-3.2434239983558655e-05
0.0013855365104973
0.0028174528852105
0.0042431713081896
0.0056432797573506
0.0069983275607228
0.0082890875637531
0.0094994204118847
0.010619007050991
0.0116421952843666
0.0125626772642135
0.013366661965847
0.0140258129686117
0.0144913475960493
0.0146931270137429
0.0145469345152378
0.0139697659760713
0.0128980949521064
0.0113028865307569
0.0091990437358617
0.0066482480615377
0.0037540537305176
0.0006499682785943
-0.0025164999533444
-0.0055988300591707
-0.008462693542242
-0.0109944753348827
-0.0131079945713281
-0.0147481635212898
-0.0158900059759616
-0.0165345296263694
-0.016705222427845
-0.0164454020559787
-0.0158140510320663
-0.0148798637092113
-0.0137144485488533
-0.0123857706785202
-0.0109534803777933
-0.0094661125913262
-0.0079588806256651
-0.0064525571651756
-0.0049550551921129
-0.0034649409353733
-0.001974819228053
-0.0004746718332171
0.0010441434569656
0.0025853156112134
0.0041457321494817
0.0057155578397214
0.0072792130522429
0.0088166985660791
0.0103058889508247
0.011725140735507
0.0130549194291234
0.0142784798517823
0.0153822815045714
0.0163560789078474
0.0171910524368286
0.0178739819675683
0.0183779578655958
0.0186546090990304
0.0186344031244516
0.0182366482913494
0.0173853281885385
0.0160260368138551
0.0141394985839724
0.0117487218230962
0.0089203836396336
0.0057612005621194
0.0024073706008493
-0.0009916498092934
-0.0042888121679425
-0.0073510180227458
-0.0100671583786606
-0.0123534686863422
-0.01415641233325
-0.015452966094017
-0.0162484757602214
-0.016572643071413
-0.0164742283523082
-0.0160154178738594
-0.0152661707252264
-0.014297904446721
-0.0131765520200133
-0.0119571890681982
-0.0106815844774246
-0.0093777095898985
-0.0080611268058419
-0.0067380601540207
-0.0054086167365312
-0.0040689120069146
-0.0027125200722366
-0.0013332199305295
7.146468851715326e-05
0.0014981533167883
0.002936759032309
0.004370569717139
0.0057774633169174
0.0071319849230349
0.0084092626348137
0.0095894746482372
0.010659571737051
0.0116129983216524
0.0124488985165953
0.0131704537197947
0.0137818744406104
0.0142819741740822
0.0146543411538004
0.0148589424788951
0.0148307420313358
0.0144877946004271
0.0137463919818401
0.012539155781269
0.0108317006379365
0.0086334869265556
0.0060008997097611
0.0030316757038235
-0.0001476779580116
-0.0033961283043026
-0.0065714791417121
-0.009543053805828
-0.0122020505368709
-0.0144669506698846
-0.0162831991910934
-0.0176210552453994
-0.018475703895092
-0.0188673697412014
-0.0188383050262928
-0.0184480976313352
-0.0177685320377349
-0.0168764814734458
-0.0158447436988353
-0.0147340996190905
-0.0135891288518905
-0.0124367726966738
-0.011286687105894
-0.0101341288536787
-0.0089653395116329
-0.0077636744827032
-0.0065143257379531
-0.0052071772515773
-0.0038382722996175
-0.0024102029856294
-0.000932480674237
0.0005784358363598
0.0021007983013987
0.0036103406455367
0.0050832312554121
0.0064979214221239
0.0078353313729166
0.0090794311836361
0.0102181285619735
0.0112421717494726
0.0121413506567478
0.0128978192806243
0.0134785585105419
0.0138320829719305
0.0138919707387685
0.0135867083445191
0.0128548946231603
0.0116615733131766
0.0100095402449369
0.0079437997192144
0.0055492687970399
0.002940319944173
0.0002459362149238
-0.0024024001322686
-0.0048801265656948
-0.0070787807926535
-0.0089135747402906
-0.0103285256773233
-0.0112988594919443
-0.0118296630680561
-0.0119512248784303
-0.0117128705605864
-0.0111762098968029
-0.0104084331542253
-0.0094771515578031
-0.0084458077326416
-0.0073677222244441
-0.0062806503847241
-0.0052044494077563
-0.0041423579677939
-0.0030854260548949
-0.0020187953487038
-0.0009280536323785
0.0001961328089237
0.0013559756334871
0.0025461995974183
0.0037549789994955
0.0049661579541862
0.0061610015109181
0.0073191300034523
0.008420230820775
0.0094466162845492
0.0103855654597282
0.0112306233495473
0.0119815226644277
0.012642478570342
0.0132172591984272
0.0136999785900115
0.0140651445835828
0.0142632089555263
0.0142255388200283
0.0138766709715127
0.0131486169993877
0.0119953034445643
0.0104056736454367
0.0084111532196402
0.0060843471437692
0.0035299863666296
0.0008719796314835
-0.0017607463523745
-0.0042479569092392
-0.0064883944578468
-0.0084059340879321
-0.0099528161808848
-0.0111094433814287
-0.0118803847581148
-0.0122889867052435
-0.0123735927045345
-0.0121849244460463
-0.0117822252213954
-0.0112271504476666
-0.0105766812339425
-0.0098776146769523
-0.0091633945703506
-0.0084527106955647
-0.0077504608780145
-0.0070511968806385
-0.0063428990542888
-0.0056095998734235
-0.0048342375084757
-0.0040025073103606
-0.0031061307527124
-0.002144768834114
-0.0011262386105954
-6.436463445425034e-05
0.0010234899818897
0.0021165776997804
0.0031900890171527
0.0042168702930212
0.0051716640591621
0.0060353251174092
0.0067954733967781
0.0074412077665328
0.0079544195905327
0.0083032911643385
0.0084414007142186
0.0083127375692129
0.0078610554337501
0.0070415362715721
0.0058327140286564
0.0042456537485122
0.002327337861061
0.0001572621986269
-0.0021618362516164
-0.0045167873613536
-0.0067969369702041
-0.0089035080745816
-0.0107544045895338
-0.0122873773798346
-0.0134629430249333
-0.0142653649672865
-0.014701354317367
-0.0147971929982304
-0.014593337662518
-0.0141372149810194
-0.0134777072817087
-0.0126623231917619
-0.0117351999506354
-0.0107345432043075
-0.0096895834431052
-0.0086184572428464
-0.0075281774625182
-0.0064158327877521
-0.0052707018330693
-0.0040784319862723
-0.0028267486486583
-0.001510837348178
-0.0001367342192679
0.0012784050777554
0.002708273474127
0.0041201580315828
0.0054791746661067
0.0067533086985349
0.0079163461923599
0.0089490506798028
0.0098402705043554
0.0105868522077798
0.011191813275218
0.0116620808839797
0.0120046436786651
0.0122187510132789
0.0122871659696102
0.0121735334396362
0.0118279512971639
0.0111976386979222
0.0102401841431856
0.0089358678087592
0.0072945584543049
0.0053563034161925
0.0031875562854111
0.0008747270330786
-0.0014845123514533
-0.0037916074506938
-0.0059569105505943
-0.007906224578619
-0.0095832664519548
-0.0109495259821414
-0.0119839562103152
-0.0126826968044042
-0.0130574144423007
-0.0131328720599412
-0.0129446368664503
-0.0125357024371624
-0.0119513580575585
-0.011233938857913
-0.0104194907471537
-0.009536893106997
-0.0086079463362693
-0.0076470933854579
-0.0066614444367587
-0.0056513203307986
-0.0046114921569824
-0.003535006660968
-0.0024189236573874
-0.0012675684411078
-9.11758979782462e-05
0.0010970879811793
0.0022825065534561
0.0034486032091081
0.0045769056305289
0.0056489240378141
0.0066500175744295
0.0075706397183239
0.0084046265110373
0.0091489274054765
0.0098039712756872
0.0103714410215616
0.0108496528118848
0.0112274251878261
0.0114785470068454
0.0115607110783457
0.011420352384448
0.0110013782978057
0.0102564319968223
0.0091591868549585
0.0077132540754973
0.0059552364982664
0.0039528412744402
0.0017972529167309
-0.0004097598139196
-0.0025688307359814
-0.0045920037664473
-0.0064073423855006
-0.0079600987955927
-0.0092121893540024
-0.0101414006203413
-0.0107408929616212
-0.0110187865793704
-0.0109970606863498
-0.0107092233374714
-0.0101969391107559
-0.0095061371102929
-0.0086829615756869
-0.0077705942094326
-0.0068078804761171
-0.0058271544985473
-0.0048499698750674
-0.0038852542638778
-0.0029313014820218
-0.0019789012148976
-0.0010163928382098
-3.579631447792053e-05
0.000964084174484
0.0019780755974352
0.0029964745044708
0.0040067532099783
0.0049944836646318
0.0059447451494634
0.006845686584711
0.0076916823163628
0.0084818080067634
0.0092157926410436
0.0098926490172743
0.010511627420783
0.0110724391415715
0.0115733724087476
0.0120064206421375
0.0123510379344224
0.0125703979283571
0.0126128103584051
0.0124186920002102
0.0119308643043041
0.0111053483560681
0.0099210161715745
0.008386755362153
0.0065448191016912
0.0044685397297143
0.0022527952678501
1.287553459405899e-07
-0.0021911421790719
-0.0042340429499745
-0.0060572549700737
-0.0076079932041466
-0.0088523179292678
-0.0097738225013017
-0.0103730568662285
-0.0106673268601298
-0.0106885191053152
-0.010477808304131
-0.0100798364728689
-0.0095385750755667
-0.0088939238339662
-0.0081790685653686
-0.0074198362417519
-0.0066356160677969
-0.0058398908004164
-0.0050393426790833
-0.0042323982343077
-0.0034095835871994
-0.0025576702319085
-0.0016657733358442
-0.0007297727279365
0.0002462631091475
0.0012515229173004
0.0022715218365192
0.0032906671985983
0.0042934394441545
0.0052647683769464
0.0061902799643576
0.0070567871443927
0.0078535005450248
0.0085743553936481
0.0092201642692089
0.0097961882129311
0.010303258895874
0.010728046298027
0.011038220487535
0.0111832246184349
0.0111003313213586
0.0107260206714272
0.010010477155447
0.0089306430891156
0.0074987886473536
0.0057649365626275
0.0038114017806947
0.00174096156843
-0.0003370787017047
-0.0023199550341814
-0.0041210083290934
-0.0056738429702818
-0.0069326520897448
-0.0078711826354265
-0.0084816683083772
-0.0087742917239665
-0.0087756942957639
-0.0085254330188035
-0.0080719236284494
-0.0074682254344224
-0.0067666266113519
-0.0060132015496492
-0.0052438895218074
-0.0044816406443715
-0.00373500213027
-0.0030000824481248
-0.002264860086143
-0.0015130974352359
-0.0007285634055733
0.0001002801582217
0.0009777047671377
0.0019007096998393
0.0028597740456461
0.0038395975716412
0.0048201293684542
0.0057784435339272
0.0066921738907694
0.0075432774610817
0.008319579064846
0.0090139787644147
0.0096230581402778
0.0101452432572841
0.010577124543488
0.0109074786305427
0.0111110210418701
0.0111452499404549
0.0109523497521877
0.0104671763256192
0.0096315341070294
0.0084104817360639
0.0068033817224204
0.0048468993045389
0.0026118154637515
0.000195108121261
-0.0022912174463272
-0.0047322837635874
-0.0070217018947005
-0.0090696550905704
-0.0108067654073238
-0.0121863381937146
-0.0131861642003059
-0.0138078043237328
-0.0140728680416941
-0.0140183949843049
-0.0136922616511583
-0.013148009777069
-0.012439090758562
-0.0116142909973859
-0.0107153980061411
-0.0097756767645478
-0.0088187539950013
-0.0078587029129266
-0.0069007761776447
-0.0059425458312034
-0.0049761435948312
-0.003991397563368
-0.0029790233820676
-0.0019332149531692
-0.0008535040542483
0.0002540147397667
0.0013764307368546
0.0024960914161056
0.0035944911651313
0.0046544279903173
0.0056598205119371
0.0065959859639406
0.0074512250721454
0.0082183815538883
0.0088946660980582
0.0094784367829561
0.009962785989046
0.010327136144042
0.0105309952050447
0.010515147820115
0.0102108288556337
0.0095533803105354
0.0084966532886028
0.0070246057584881
0.0051575610414147
0.0029526452999562
0.0004992256872355
-0.0020901435054838
-0.004692405462265
-0.0071874600835144
-0.0094686709344387
-0.0114493742585182
-0.0130666345357894
-0.014282283373177
-0.0150814643129706
-0.0154700092971324
-0.0154715459793806
-0.0151246851310133
-0.0144798494875431
-0.013595269061625
-0.0125324763357639
-0.0113505953922867
-0.0100994650274515
-0.0088154096156358
-0.0075213303789496
-0.0062279067933559
-0.004935476463288
-0.0036380803212523
-0.0023275762796401
-0.0009964425116777
0.0003599370829761
0.0017416314221918
0.0031427103094756
0.0045504849404096
0.0059476345777511
0.0073159663006663
0.0086381528526544
0.009897387586534
0.0110779646784067
0.0121675617992877
0.0131582226604223
0.0140443267300724
0.0148204341530799
0.0154822319746017
0.016028044745326
0.0164551027119159
0.0167507492005825
0.0168844256550073
0.0168048776686191
0.0164442993700504
0.0157295744866132
0.0145988781005144
0.013018668629229
0.0109941121190786
0.0085706217214465
0.0058300350792706
0.0028833576943725
-0.000140483782161
-0.003108674660325
-0.0058979243040084
-0.0084039689972996
-0.0105473920702934
-0.0122772948816418
-0.0135715184733271
-0.0144327338784933
-0.0148822525516152
-0.0149541087448596
-0.0146913640201091
-0.0141441086307168
-0.0133673846721649
-0.0124175548553466
-0.0113469399511814
-0.0101993177086114
-0.0090077174827456
-0.0077940062619745
-0.0065701594576239
-0.0053402623161673
-0.0041029932908713
-0.0028546706307679
-0.0015913674142211
-0.000310335541144
0.0009875302202999
0.0022955290041863
0.0036016025114804
0.0048907333984971
0.0061477771960198
0.0073593165725469
0.0085138622671365
0.0096016628667712
0.0106143821030855
0.0115439081564545
0.0123821748420596
0.0131227653473615
0.0137615418061614
0.0142947193235158
0.0147140994668006
0.0149999847635626
0.0151150999590754
0.0150034753605723
0.0145961688831448
0.013823190703988
0.0126277795061469
0.0109786093235015
0.0088791204616427
0.0063733495771884
0.0035450300201773
0.000508623663336
-0.0026045229751616
-0.0056603252887725
-0.0085342191159725
-0.0111203733831644
-0.0133367162197828
-0.0151269417256116
-0.0164613183587789
-0.0173360537737607
-0.017770878970623
-0.0178059469908475
-0.0174979194998741
-0.0169136654585599
-0.0161219555884599
-0.0151855600997805
-0.0141560649499297
-0.0130718313157558
-0.0119572738185524
-0.0108222588896751
-0.0096633406355977
-0.0084685506299138
-0.0072236522100865
-0.0059164920821785
-0.0045396964997053
-0.0030932205263525
-0.0015856107929721
-3.3002812415361404e-05
0.0015430743806064
0.0031173746101558
0.0046617188490927
0.0061467033810913
0.0075445272959768
0.0088311387225985
0.0099877566099166
0.0110024195164442
0.0118708349764347
0.0125958481803536
0.0131859723478555
0.0136525155976414
0.0140022495761513
0.0142259038984775
0.0142901977524161
0.0141388811171054
0.0137015450745821
0.0129077341407537
0.0117023400962352
0.0100588612258434
0.0079891560599207
0.0055467383936047
0.0028224880807101
-6.555486470460892e-05
-0.0029866762924939
-0.0058121639303863
-0.0084254769608378
-0.0107276029884815
-0.0126406829804182
-0.0141123849898576
-0.0151199959218502
-0.0156708378344774
-0.0157979391515254
-0.0155536290258169
-0.0150034567341208
-0.0142199387773871
-0.0132752889767289
-0.0122349094599485
-0.0111531596630811
-0.010069727897644
-0.0090062730014324
-0.0079663610085845
-0.0069398991763591
-0.0059096841141581
-0.004857181571424
-0.0037663779221475
-0.0026260646991431
-0.0014309689868241
-0.0001826785737648
0.0011090899351984
0.002426859922707
0.0037490800023078
0.0050543518736958
0.0063223959878087
0.0075335139408707
0.0086701950058341
0.0097193513065576
0.0106728132814168
0.0115263480693101
0.0122753279283642
0.0129056060686707
0.0133843971416354
0.013657059520483
0.013651730492711
0.0132921515032649
0.0125155905261635
0.0112888347357511
0.0096188150346279
0.0075572598725557
0.0051969378255307
0.0026600491255521
8.306675590574741e-05
-0.002399206161499
-0.0046679889783263
-0.0066297599114477
-0.008219625800848
-0.0094021409749984
-0.0101710874587297
-0.0105466078966856
-0.0105705820024013
-0.010301187634468
-0.0098053263500332
-0.0091499807313084
-0.0083950357511639
-0.0075888130813837
-0.0067659579217433
-0.0059465705417096
-0.0051372302696108
-0.0043344646692276
-0.0035282133612781
-0.0027040834538638
-0.0018459353595972
-0.0009386045858263
2.8973532607778907e-05
0.0010593112092465
0.0021442365832626
0.0032671543303877
0.0044061061926186
0.0055356295779347
0.0066288923844695
0.0076609677635133
0.0086117032915353
0.009467588737607
0.0102234296500682
0.0108806444332003
0.0114390505477786
0.0118862288072705
0.0121901035308837
0.0122969597578048
0.0121361063793301
0.0116310305893421
0.0107148122042417
0.0093464283272624
0.0075233057141304
0.0052866861224174
0.002719045151025
-6.553810089826584e-05
-0.0029353960417211
-0.0057559427805244
-0.0084025477990508
-0.0107706580311059
-0.0127816908061504
-0.0143849439918994
-0.0155572257936
-0.0162993445992469
-0.0166308805346488
-0.0165871251374483
-0.016216916963458
-0.0155787784606218
-0.0147351194173097
-0.0137453600764274
-0.012660663574934
-0.0115213626995682
-0.0103560388088226
-0.0091818049550056
-0.0080046160146594
-0.0068201506510376
-0.0056175710633397
-0.0043850899673998
-0.003114701481536
-0.0018050080398097
-0.0004616635851562
0.0009039361611939
0.0022765493486076
0.0036390209570527
0.0049737635999917
0.0062634055502712
0.0074912561103701
0.0086423493921756
0.0097045199945569
0.0106689715757966
0.0115287732332944
0.0122721316292881
0.0128721594810485
0.0132802790030837
0.0134280594065785
0.0132379969581961
0.012639713473618
0.0115850986912846
0.0100587429478764
0.0080833993852138
0.0057210363447666
0.00306959124282
0.0002535840030759
-0.0025905263610184
-0.0053289430215954
-0.0078421551734209
-0.0100338822230696
-0.0118364244699478
-0.0132112689316272
-0.0141461407765746
-0.0146504007279872
-0.0147500708699226
-0.0144835235550999
-0.0138978343456983
-0.013044849038124
-0.0119775412604212
-0.0107477642595767
-0.0094039104878902
-0.0079878289252519
-0.0065327212214469
-0.0050621880218386
-0.0035900161601603
-0.0021213539876043
-0.0006556590087711
0.0008097304962575
0.0022777200210839
0.0037509659305214
0.0052298824302852
0.0067095551639795
0.0081779565662145
0.0096156643703579
0.0109974760562181
0.0122958850115537
0.0134841939434409
0.0145385898649692
0.0154401184991002
0.0161756221204996
0.0167365930974483
0.0171158201992511
0.0173004418611526
0.0172625593841075
0.0169551856815814
0.0163191072642803
0.0152966855093836
0.0138466255739331
0.0119563760235905
0.0096490532159805
0.0069840876385569
0.0040528513491153
0.0009699579095467
-0.0021381238475441
-0.0051450440660119
-0.007936174981296
-0.0104180257767438
-0.012522212229669
-0.0142043018713593
-0.0154418209567666
-0.0162333939224481
-0.0165980327874422
-0.0165725667029619
-0.0162063762545585
-0.0155552085489034
-0.0146757392212748
-0.0136213945224881
-0.0124392891302704
-0.0111679602414369
-0.0098363840952515
-0.0084646930918097
-0.0070661110803484
-0.0056488858535885
-0.0042171459645032
-0.0027719035279005
-0.0013134013861417
0.0001563266851007
0.0016315579414367
0.0031019151210784
0.0045524192973971
0.0059645203873515
0.0073184464126825
0.0085958279669284
0.0097815711051225
0.0108657348901033
0.0118445605039596
0.0127184446901083
0.0134882181882858
0.0141524001955986
0.0147034944966435
0.0151208909228444
0.0153635516762733
0.015368222258985
0.0150566631928086
0.0143513837829232
0.0131940664723515
0.0115597136318683
0.0094644548371434
0.006967675872147
0.0041677169501781
0.0011909615714102
-0.0018235323950648
-0.0047401506453752
-0.0074392585083842
-0.0098243886604905
-0.0118253659456968
-0.013398740440607
-0.0145267266780138
-0.0152157908305525
-0.0154942888766527
-0.0154071860015392
-0.0150089841336011
-0.0143582029268145
-0.0135133853182196
-0.0125292316079139
-0.0114534702152013
-0.010324434377253
-0.0091688195243477
-0.0080012464895844
-0.0068264957517385
-0.0056427647359669
-0.0044450080022215
-0.0032280748710036
-0.001988667063415
-0.0007263049483299
0.0005557575495913
0.0018498237477615
0.0031433817930519
0.0044193654321134
0.0056577567011117
0.0068375831469893
0.0079385079443454
0.0089433612301945
0.0098413527011871
0.0106297843158245
0.0113128060474991
0.0118960589170455
0.0123779522255063
0.0127403857186436
0.0129426373168826
0.0129227144643664
0.0126075474545359
0.0119296899065375
0.0108450958505272
0.0093450741842389
0.0074599413201212
0.0052572824060916
0.0028377557173371
0.0003270197194069
-0.0021387105807662
-0.0044300556182861
-0.0064383381977677
-0.0080833435058593
-0.0093160886317491
-0.0101190274581313
-0.0105040706694126
-0.0105068860575556
-0.0101799834519624
-0.0095876837149262
-0.0088003389537334
-0.0078854029998183
-0.0068995743058621
-0.0058864396996796
-0.0048766927793622
-0.0038875611498951
-0.0029235249385237
-0.0019790886435657
-0.0010423078201711
-9.936268907040358e-05
0.0008609066717326
0.0018440460553392
0.0028480212204158
0.0038627481553703
0.0048724305815994
0.0058598639443516
0.0068104327656328
0.0077131520956754
0.0085584223270416
0.0093360692262649
0.0100357700139284
0.0106480289250612
0.0111641269177198
0.0115738725289702
0.0118598071858286
0.0119907027110457
0.0119204372167587
0.0115938037633895
0.0109558384865522
0.0099625941365957
0.0085928300395607
0.0068576470948755
0.0048036416992545
0.0025087799876928
7.423199713230133e-05
-0.0023858044296503
-0.0047567887231707
-0.0069368234835565
-0.0088452463969588
-0.0104254409670829
-0.0116442246362566
-0.0124903162941336
-0.0129725392907857
-0.0131170637905597
-0.0129638072103261
-0.012563101015985
-0.0119721200317144
-0.011249465867877
-0.0104480376467108
-0.0096088200807571
-0.0087583065032958
-0.0079093696549534
-0.0070629771798849
-0.0062104226090013
-0.0053381542675197
-0.004434254951775
-0.0034925797954201
-0.0025133416056632
-0.0015023481100797
-0.0004707328043878
0.0005650501698255
0.0015848409384489
0.0025677694939076
0.0034942654892802
0.0043476787395775
0.0051165553741157
0.0057956711389124
0.0063848085701465
0.0068863523192703
0.0073012043721973
0.0076216175220906
0.0078231990337371
0.0078604258596897
0.0076702525839209
0.0071865487843751
0.0063578812405467
0.0051587233319878
0.0035954704508185
0.0017103552818298
-0.0004205834120512
-0.0026973262429237
-0.0050091668963432
-0.0072473753243684
-0.009315793402493
-0.011137343943119
-0.0126559939235448
-0.0138368923217058
-0.0146655784919857
-0.0151457022875547
-0.0152961313724517
-0.0151478257030248
-0.0147400349378585
-0.0141160562634468
-0.0133198797702789
-0.0123946573585271
-0.0113813793286681
-0.0103157917037606
-0.0092246625572443
-0.0081248376518487
-0.0070261931978166
-0.0059348060749471
-0.0048532206565141
-0.0037796082906425
-0.0027086739428341
-0.0016347573837265
-0.0005548560293391
0.0005310304113663
0.0016209777677431
0.0027107154019176
0.0037928142119199
0.0048577347770333
0.0058951382525265
0.006894027814269
0.0078431786969304
0.0087320636957883
0.0095505183562636
0.0102858813479542
0.0109173990786075
0.0114102428779006
0.0117134181782603
0.0117641147226095
0.01149876229465
0.010867909528315
0.0098488247022032
0.0084516257047653
0.0067190565168857
0.004722193814814
0.0025544865056872
0.0003237968776375
-0.0018589538522064
-0.0038925176486372
-0.0056950408034026
-0.0072078360244631
-0.0083939442411065
-0.0092348838225007
-0.009728942066431
-0.0098909884691238
-0.0097507163882255
-0.0093488078564405
-0.0087329475209116
-0.0079535413533449
-0.007058956194669
-0.0060924738645553
-0.005090863443911
-0.0040822899900376
-0.0030846023000776
-0.0021057876292616
-0.0011460408568382
-0.0001999628730118
0.0007421788759529
0.0016923400107771
0.0026598116382956
0.0036462200805544
0.0046439720317721
0.0056378641165792
0.0066083576530218
0.0075354110449552
0.0084010902792215
0.0091907121241092
0.0098937954753637
0.0105048324912786
0.0110224969685077
0.0114474752917885
0.0117799211293458
0.0120149031281471
0.012135281227529
0.0121061578392982
0.0118761472404003
0.0113864168524742
0.0105836875736713
0.0094328615814447
0.0079271290451288
0.0060939625836908
0.0039941957220435
0.0017135812668129
-0.0006485175108537
-0.0029891850426793
-0.0052110501565039
-0.0072305547073483
-0.0089831678196787
-0.0104240383952856
-0.0115260351449251
-0.0122778406366705
-0.0126824751496315
-0.0127572454512119
-0.0125347720459103
-0.0120605770498514
-0.0113872000947594
-0.0105695324018597
-0.0096610821783542
-0.0087087675929069
-0.0077470606192946
-0.0067949332296848
-0.0058581777848303
-0.0049341842532157
-0.0040149628184735
-0.0030890540219843
-0.0021439781412482
-0.0011690687388181
-0.0001586331054568
0.0008858353830873
0.0019560363143682
0.0030389381572604
0.0041183130815625
0.0051758675836026
0.006193344015628
0.0071540214121341
0.008042718283832
0.0088464738801121
0.0095560401678085
0.0101657193154096
0.0106697641313076
0.0110558215528726
0.0112986881285905
0.011358518153429
0.011185111477971
0.0107270404696464
0.0099435849115252
0.0088159935548901
0.0073533551767468
0.0055930623784661
0.0035996094811707
0.0014611152000725
-0.0007196050137281
-0.0028375922702252
-0.0047970083542168
-0.00651888968423
-0.0079452535137534
-0.0090393703430891
-0.009783336892724
-0.0101763317361474
-0.0102349845692515
-0.009992778301239
-0.0094957677647471
-0.0087959021329879
-0.0079449526965618
-0.006990578956902
-0.0059738839045166
-0.0049278172664344
-0.0038767671212553
-0.0028368886560201
-0.0018157283775508
-0.000811961479485
0.0001817820593714
0.0011738445609807
0.0021703513339161
0.0031742386054247
0.0041845459491014
0.005196280311793
0.0062012416310608
0.0071890791878104
0.0081478673964738
0.0090640988200902
0.0099228620529174
0.0107089150696992
0.0114078540354967
0.0120053123682737
0.0124831534922122
0.0128137171268463
0.0129553982987999
0.0128539865836501
0.0124513935297727
0.0116989417001605
0.0105702960863709
0.0090703247115015
0.0072387056425213
0.0051478422246873
0.0028945670928806
0.0005871829343959
-0.0016679482068866
-0.0037759463302791
-0.0056575783528387
-0.0072509269230067
-0.008513786830008
-0.0094255972653627
-0.0099870320409536
-0.0102177914232015
-0.0101530756801366
-0.0098388437181711
-0.0093267457559704
-0.0086700702086091
-0.0079205948859453
-0.0071247238665819
-0.006318958941847
-0.0055268448777496
-0.0047589484602212
-0.0040155868045985
-0.0032906492706388
-0.0025749988853931
-0.0018585647922009
-0.0011312707792967
-0.0003842876758426
0.0003879233845509
0.0011860334780067
0.0020054397173225
0.0028366765473037
0.0036661704070866
0.0044774492271244
0.0052538849413394
0.0059818462468683
0.006650828756392
0.0072499844245612
0.0077622928656637
0.0081580644473433
0.0083914725109934
0.0084030292928218
0.0081275515258312
0.0075057675130665
0.0064980508759617
0.0050968183204531
0.0033320365473628
0.0012679873034358
-0.0010049878619611
-0.0033798455260694
-0.0057424521073699
-0.0079819364473223
-0.0100006703287363
-0.0117218270897865
-0.0130941262468695
-0.0140928933396935
-0.0147165171802043
-0.0149817122146487
-0.014921280555427
-0.0145816821604967
-0.0140167511999607
-0.0132802985608577
-0.0124211758375167
-0.0114800482988357
-0.0104871075600385
-0.0094613507390022
-0.0084108281880617
-0.0073337601497769
-0.0062223924323916
-0.0050690588541328
-0.0038705456536263
-0.0026289450470358
-0.0013510237913578
-4.762597382068634e-05
0.0012671530712395
0.0025771167129278
0.0038654911331832
0.0051166862249374
0.0063174841925501
0.0074574411846697
0.0085288453847169
0.0095267854630947
0.0104491421952843
0.011293607763946
0.012050905264914
0.0126980580389499
0.0131945442408323
0.0134819028899073
0.0134884659200906
0.0131409624591469
0.0123801445588469
0.0111745037138462
0.0095292162150144
0.0074897352606058
0.0051388866268098
0.0025879880413413
-3.5910517908632755e-05
-0.002604454755783
-0.0050006923265755
-0.0071278708055615
-0.0089145898818969
-0.0103168496862053
-0.0113174840807914
-0.0119235757738351
-0.0121627394109964
-0.0120786353945732
-0.0117248445749282
-0.0111573189496994
-0.0104279331862926
-0.0095817279070615
-0.0086564626544713
-0.0076813460327684
-0.0066755930893123
-0.005648577120155
-0.0046013602986931
-0.0035296017304062
-0.0024275132454931
-0.0012912359088659
-0.0001205229200422
0.0010812627151608
0.0023072285111993
0.0035465715918689
0.00478559685871
0.006009517237544
0.0072030038572847
0.0083506554365158
0.0094384048134088
0.0104544535279273
0.0113887544721364
0.0122316749766469
0.0129736075177788
0.0136050637811422
0.0141137205064296
0.014477857388556
0.0146599514409899
0.0146051151677966
0.0142478067427873
0.013525235466659
0.012391853146255
0.0108319902792572
0.0088686309754848
0.0065642921254038
0.0040132305584847
0.001329404185526
-0.0013655658112838
-0.0039530512876808
-0.006327046547085
-0.0084022814407944
-0.0101188709959387
-0.0114429630339145
-0.0123643800616264
-0.0128928497433662
-0.0130552370101213
-0.0128939384594559
-0.0124632334336638
-0.0118220318108797
-0.011026406660676
-0.0101253744214773
-0.0091595482081174
-0.0081610744819045
-0.0071533797308802
-0.0061499439179897
-0.0051536690443754
-0.0041586328297853
-0.0031535057350993
-0.0021254206076264
-0.0010637273080646
3.691785968840122e-05
0.0011741674970835
0.0023372231516987
0.0035086181014776
0.0046676453202962
0.0057938420213758
0.0068691363558173
0.0078790495172142
0.0088136959820985
0.0096671096980571
0.0104349479079246
0.011111800558865
0.0116861555725336
0.0121333878487348
0.0124123422428965
0.0124683892354369
0.0122407777234911
0.011673042550683
0.0107266772538423
0.0093936379998922
0.0077015059068799
0.0057114455848932
0.003511740360409
0.0012080981396138
-0.0010875741718336
-0.0032685245387256
-0.0052427081391215
-0.0069379564374685
-0.0083036608994007
-0.009311756119132
-0.0099576329812407
-0.0102593377232551
-0.0102530065923929
-0.0099863000214099
-0.0095136687159538
-0.0088927987962961
-0.0081795789301395
-0.0074211093597114
-0.0066493786871433
-0.0058800783008337
-0.0051160678267478
-0.0043510003015398
-0.0035726302303373
-0.0027670967392623
-0.0019227787852287
-0.0010328526841476
-9.702373063191772e-05
0.000878534221556
0.0018828199245035
0.0029010591097176
0.0039154649712145
0.0049071633256971
0.0058580781333148
0.0067516090348362
0.0075738006271421
0.0083153937011957
0.0089712301269173
0.0095344744622707
0.0099888555705547
0.010303839109838
0.0104335406795144
0.0103199295699596
0.0099027510732412
0.0091343903914093
0.0079933879896998
0.0064922887831926
0.0046794502995908
0.0026344861835241
0.0004578973166644
-0.001741399988532
-0.0038580500986427
-0.0057999892160296
-0.0074938465841114
-0.0088873142376542
-0.0099508110433816
-0.0106773097068071
-0.0110792824998497
-0.0111845722422003
-0.0110323596745729
-0.0106687601655721
-0.0101431515067815
-0.0095054227858781
-0.0088011370971798
-0.0080660134553909
-0.0073243035003542
-0.0065899877808988
-0.0058677494525909
-0.0051534580998122
-0.0044350363314151
-0.003695580875501
-0.0029188743792474
-0.0020942422561347
-0.0012194218579679
-0.0003018996212631
0.0006428940687328
0.0015962331090122
0.002539035398513
0.0034517054446041
0.0043151029385626
0.0051144827157258
0.0058419345878064
0.0064935004338622
0.0070629925467073
0.0075359800830483
0.0078844986855983
0.0080639403313398
0.0080162528902292
0.0076801162213087
0.0070037711411714
0.0059564840048551
0.0045373276807367
0.0027801301330327
0.0007525566034018
-0.0014510755427181
-0.0037211824674159
-0.0059456471353769
-0.008021636866033
-0.0098643004894256
-0.011410822160542
-0.0126210581511259
-0.0134765654802322
-0.0139782670885324
-0.0141435079276561
-0.0140033215284347
-0.0135993845760822
-0.0129799135029315
-0.0121949519962072
-0.0112924212589859
-0.010315234772861
-0.0092988489195704
-0.008269278332591
-0.0072424961254
-0.0062251985073089
-0.0052160499617457
-0.0042077978141605
-0.0031902755144983
-0.0021532080136239
-0.0010887598618865
6.010872311890125e-06
0.0011277813464403
0.002267527161166
0.0034124909434467
0.0045477645471692
0.0056564090773463
0.0067195808514952
0.007718295790255
0.0086362985894083
0.0094622671604156
0.0101894149556756
0.0108118560165166
0.0113186631351709
0.0116868345066905
0.0118767218664288
0.0118349399417638
0.0115044899284839
0.0108370268717408
0.0098042553290724
0.0084071513265371
0.0066806259565055
0.0046920585446059
0.0025346083566546
0.0003163706569466
-0.0018533270340412
-0.0038763415068387
-0.0056733540259301
-0.0071868835948407
-0.0083805425092577
-0.0092360517010092
-0.009750829078257
-0.0099377632141113
-0.0098258145153522
-0.0094581414014101
-0.0088864900171756
-0.0081645175814628
-0.0073424438014626
-0.0064627318643033
-0.0055572963319718
-0.0046468069776892
-0.0037401809822767
-0.0028347568586468
-0.0019204504787921
-0.0009860610589385
-2.276292070746421e-05
0.0009747412987053
0.0020068439189344
0.0030680042691528
0.0041462164372205
0.0052232556045055
0.0062777386046946
0.0072901556268334
0.008245650678873
0.0091327996924519
0.0099417511373758
0.010664815083146
0.0112979654222726
0.0118407690897583
0.0122943064197897
0.0126566998660564
0.0129155181348323
0.0130400322377681
0.0129794720560312
0.0126698045060038
0.012047117576003
0.0110638430342078
0.0097021022811532
0.0079800132662057
0.005951183848083
0.0036983601748943
0.0013224317226558
-0.0010697076795622
-0.0033758021891117
-0.0055070049129426
-0.0073931282386183
-0.0089834192767739
-0.0102453418076038
-0.0111636258661746
-0.0117401024326682
-0.0119935739785432
-0.011957905255258
-0.0116775128990411
-0.0112011944875121
-0.0105765853077173
-0.0098468223586678
-0.0090482579544186
-0.0082087600603699
-0.0073478738777339
