bvp
0.0040810396894812
0.0054692686535418
0.0068594473414123
0.008225655183196
0.0095378793776035
0.0107633797451853
0.0118650458753108
0.0127974208444356
0.0135026182979345
0.0139094199985265
0.0139376288279891
0.0135079268366098
0.0125572113320231
0.0110564175993204
0.0090232975780963
0.0065255435183644
0.0036763078533113
0.000623709289357
-0.0024655684828758
-0.0054251197725534
-0.0081049520522356
-0.0103824445977807
-0.0121696423739194
-0.0134181044995784
-0.0141192637383937
-0.0143002700060606
-0.0140170780941843
-0.0133440839126706
-0.0123617006465792
-0.0111464690417051
-0.0097659546881914
-0.0082769989967346
-0.0067256377078592
-0.0051491591148078
-0.0035802058409899
-0.0020500514656305
-0.0005880602402612
0.0007821301114745
0.002045979257673
0.0031996197067201
0.0042512426152825
0.0052217682823538
0.0061419438570737
0.007045539561659
0.0079619083553552
0.0089107546955347
0.0098996115848422
0.0109229488298296
0.011961031705141
0.0129774585366249
0.0139155862852931
0.0146954776719212
0.0152150318026542
0.0153583772480487
0.0150121171027421
0.0140867121517658
0.0125369308516383
0.0103751309216022
0.0076734153553843
0.0045553334057331
0.0011818399652838
-0.0022656600922346
-0.0056035546585917
-0.0086617013439536
-0.0112949479371309
-0.0133925834670662
-0.0148863866925239
-0.0157555937767028
-0.0160260144621133
-0.0157621707767248
-0.0150562711060047
-0.0140173705294728
-0.0127594135701656
-0.0113878101110458
-0.0099886320531368
-0.008623662404716
-0.0073298932984471
-0.0061215534806251
-0.0049938755109906
-0.0039276829920709
-0.0028944539371877
-0.0018612787825986
-0.000796026084572
0.0003270061570219
0.0015230940189212
0.002795641310513
0.0041359304450452
0.0055238306522369
0.0069309156388044
0.0083260517567396
0.0096797225996851
0.0109636392444372
0.0121461302042007
0.0131851695477962
0.0140214636921882
0.0145757887512445
0.0147552452981472
0.0144692463800311
0.013650014065206
0.012270619161427
0.0103556727990508
0.0079827150329947
0.0052745952270925
0.0023846463300287
-0.0005215248093008
-0.003284114645794
-0.0057645980268716
-0.007855768315494
-0.009485974907875
-0.0106194671243429
-0.0112543338909745
-0.0114191258326172
-0.0111684696748852
-0.0105771776288747
-0.0097325248643755
-0.0087253805249929
-0.0076417378149926
-0.0065548289567232
-0.0055179260671138
-0.0045600086450576
-0.0036855794023722
-0.0028782119043171
-0.0021073385141789
-0.0013362142490223
-0.0005289250984787
0.0003433197271078
0.0012973207049071
0.0023361460771411
0.0034504455979913
0.0046216063201427
0.0058253849856555
0.0070354091003537
0.0082249427214264
0.0093646794557571
0.0104176364839077
0.0113334180787205
0.0120440265163779
0.0124648185446858
0.0125029059126973
0.0120719000697135
0.0111095421016216
0.009593192487955
0.0075486022979021
0.0050499411299824
0.0022122492082417
-0.0008213156834244
-0.0038947593420743
-0.0068541998043656
-0.0095611494034528
-0.0119026154279708
-0.013796143233776
-0.0151910856366157
-0.0160682071000337
-0.0164376683533191
-0.0163352992385625
-0.0158180966973304
-0.0149592440575361
-0.0138417314738035
-0.0125509444624185
-0.011167368851602
-0.0097596039995551
-0.0083787739276885
-0.0070557426661252
-0.0058012306690216
-0.0046086749061942
-0.0034602349624037
-0.0023341528140008
-0.0012096277205273
-6.901129381731153e-05
0.0011000268859788
0.0023024047259241
0.0035351885017007
0.0047885836102068
0.0060472507029771
0.0072912820614874
0.0084955859929323
0.0096267778426408
0.0106386179104447
0.0114679150283336
0.0120333330705761
0.0122407302260398
0.0119963772594928
0.011224266141653
0.0098821530118584
0.0079727079719305
0.0055475840345025
0.0027034571394324
-0.0004285571631044
-0.003696578554809
-0.0069416547194123
-0.0100100617855787
-0.0127643961459398
-0.0150931999087333
-0.0169172957539558
-0.0181921571493148
-0.0189068913459777
-0.0190805979073047
-0.0187573097646236
-0.0180003885179758
-0.0168862752616405
-0.0154974339529871
-0.0139144090935587
-0.0122079029679298
-0.010433486662805
-0.0086305066943168
-0.0068232766352593
-0.0050229369662702
-0.0032310439273715
-0.0014440659433603
0.0003436570987105
0.0021376004442572
0.0039401454851031
0.0057485811412334
0.0075547718442976
0.0093454532325267
0.0111030954867601
0.0128080211579799
0.014440344646573
0.0159798711538314
0.0174038708209991
0.0186824388802051
0.0197729263454675
0.0206170380115509
0.0211414918303489
0.0212625488638877
0.0208967067301273
0.0199763439595699
0.0184646770358085
0.01636653393507
0.0137341246008872
0.0106662288308143
0.007299231365323
0.0037915776483714
0.0003068713704124
-0.0030003373976796
-0.0059949606657028
-0.0085677085444331
-0.0106386877596378
-0.0121600963175296
-0.0131186814978718
-0.0135362111032009
-0.0134640336036682
-0.0129721611738204
-0.0121387252584099
-0.0110429348424077
-0.0097603145986795
-0.0083580836653709
-0.0068895467557013
-0.0053901788778603
-0.0038780197501182
-0.0023572114296257
-0.0008232854306697
0.0007310048677027
0.0023110297042876
0.0039175758138298
0.0055456315167248
0.0071838083676993
0.0088142473250627
0.0104138813912868
0.0119571853429079
0.0134193459525704
0.0147787481546401
0.0160181820392608
0.0171256065368652
0.0180941801518201
0.0189189575612545
0.0195896215736866
0.0200811028480529
0.0203459020704031
0.0203151740133762
0.01991100423038
0.0190631560981273
0.0177243147045373
0.0158812850713729
0.0135602764785289
0.01082643866539
0.0077781965956091
0.0045376010239124
0.0012386618182063
-0.0019850595854222
-0.0050113992765545
-0.0077372561208903
-0.0100836316123604
-0.011999674141407
-0.0134645514190196
-0.0144847426563501
-0.0150882611051201
-0.015318913385272
-0.0152313336730003
-0.0148860849440097
-0.0143437562510371
-0.0136585477739572
-0.0128738563507795
-0.012020781636238
-0.0111178243532776
-0.0101706329733133
-0.0091734174638986
-0.008114487864077
-0.0069839437492191
-0.0057788956910371
-0.0045051034539937
-0.0031760744750499
-0.0018105977214872
-0.0004302924498915
0.0009422260336577
0.002284999936819
0.003577678464353
0.0048017995432019
0.005941895302385
0.0069872504100203
0.0079317558556795
0.0087699368596076
0.0094908252358436
0.0100727900862693
0.0104798879474401
0.0106610506772995
0.0105554200708866
0.0101030059158802
0.0092563787475228
0.0079910699278116
0.0063138296827673
0.0042661726474761
0.0019210688769817
-0.0006250031292438
-0.0032616360113024
-0.005875120870769
-0.0083585307002067
-0.0106192305684089
-0.0125840380787849
-0.014202207326889
-0.0154458163306117
-0.0163081213831901
-0.0168008636683225
-0.0169509351253509
-0.0167966801673173
-0.0163840353488922
-0.0157620776444673
-0.0149783622473478
-0.0140750287100672
-0.0130858123302459
-0.0120348278433084
-0.0109380325302481
-0.0098058069124817
-0.0086451461538672
-0.0074610505253076
-0.0062566217966377
-0.0050331875681877
-0.003791884984821
-0.0025354390963912
-0.0012688864953815
2.3655593395233162e-07
0.0012619500048458
0.0025050863623619
0.0037190513685345
0.0048937387764453
0.0060183438472449
0.0070804879069328
0.0080640707165002
0.0089458208531141
0.0096924751996994
0.0102603146806359
0.0105988578870892
0.0106578357517719
0.0103953704237937
0.0097867250442504
0.0088312365114688
0.0075550498440861
0.0060103340074419
0.0042716041207313
0.0024283453822135
0.0005754707381129
-0.001195415854454
-0.0028038546442985
-0.0041874842718243
-0.0053053935989737
-0.0061376811936497
-0.0066843833774328
-0.0069636544212698
-0.0070076799020171
-0.0068574342876672
-0.0065566981211304
-0.0061465203762054
-0.0056625199504196
-0.0051335915923118
-0.0045800898224115
-0.0040134950540959
-0.0034387256018817
-0.0028570522554218
-0.002267868258059
-0.0016690380871295
-0.0010570399463176
-0.0004280847497284
0.0002207560464739
0.0008907243609428
0.0015794779174029
0.0022791707888245
0.0029773563146591
0.0036603542976081
0.004315692000091
0.0049315723590552
0.0054948790930211
0.0059892488643527
0.0063922246918082
0.0066725024953484
0.006790823303163
0.0067052999511361
0.0063789845444262
0.0057875984348356
0.0049260440282523
0.0038120616227388
0.0024854727089405
0.0010037147440016
-0.0005643405020236
-0.0021453090012073
-0.0036679119803011
-0.0050680758431553
-0.0062932129949331
-0.0073059522546827
-0.0080855013802647
-0.0086263073608279
-0.0089353751391172
-0.009029010310769
-0.0089302640408277
-0.0086678806692361
-0.0082748960703611
-0.0077850921079516
-0.0072293505072593
-0.0066343932412564
-0.0060217604041099
-0.0054051848128438
-0.0047889379784464
-0.0041690459474921
-0.0035361854825168
-0.0028790619689971
-0.0021886134054511
-0.0014620122965425
-0.0007033620495349
7.875694427639246e-05
0.0008736348245292
0.0016693311044946
0.0024525367189198
0.0032086081337183
0.00392238330096
0.0045775207690894
0.0051528438925743
0.0056188823655247
0.005938159301877
0.0060689570382237
0.0059713209047913
0.0056145587004721
0.0049845869652926
0.004088909830898
0.0029579901602119
0.0016424428904429
0.0002064037835225
-0.0012800269760191
-0.0027466297615319
-0.0041274582035839
-0.0053652771748602
-0.0064161024056375
-0.0072513045743107
-0.0078561678528785
-0.0082268835976719
-0.0083679417148232
-0.0082914466038346
-0.0080176452174782
-0.0075742895714938
-0.0069942758418619
-0.0063118976540863
-0.0055589242838323
-0.0047621354460716
-0.003942385315895
-0.0031150998547673
-0.0022906637750566
-0.0014730049297213
-0.0006589819677174
0.000158661045134
0.0009867195039987
0.0018290886655449
0.0026873925235122
0.0035617968533188
0.0044497521594166
0.0053443443030118
0.0062343571335077
0.0071050133556127
0.0079375877976417
0.0087079228833317
0.0093845054507255
0.0099268164485692
0.0102860834449529
0.0104103330522775
0.0102524682879447
0.0097787519916892
0.0089753698557615
0.0078515894711017
0.0064402027055621
0.0047954660840332
0.0029876623302698
0.0010955901816487
-0.0008005662821233
-0.0026250309310853
-0.0043102842755615
-0.0057986075989902
-0.0070431223139166
-0.0080096032470464
-0.0086778867989778
-0.0090420516207814
-0.0091101750731468
-0.008904630318284
-0.0084613570943474
-0.0078252367675304
-0.0070425905287265
-0.0061551686376333
-0.0051978463307023
-0.0041981972754001
-0.0031757010146975
-0.0021411878988146
-0.0010983347892761
-4.6759843826293945e-05
0.0010148370638489
0.0020864550024271
0.0031666504219174
0.0042537599802017
0.0053456905297935
0.0064381221309304
0.0075233243405818
0.0085908472537994
0.0096288099884986
0.0106236962601542
0.0115580717101693
0.0124060213565826
0.013128450140357
0.0136721432209014
0.0139735015109181
0.0139661412686109
0.0135906608775258
0.0128042455762624
0.0115894963964819
0.0099605843424797
0.0079637086018919
0.0056723146699368
0.0031792744994163
0.000587657559663
-0.0019983099773526
-0.0044804606586694
-0.006771920248866
-0.0088010197505354
-0.0105133280158042
-0.0118714589625597
-0.0128540350124239
-0.0134558603167533
-0.0136887766420841
-0.0135809555649757
-0.0131741389632225
-0.0125190364196896
-0.0116692800074815
-0.010675617493689
-0.0095819048583507
-0.0084224939346313
-0.0072201704606413
-0.0059857610613107
-0.0047206543385982
-0.00342090241611
-0.0020805960521101
-0.000694646500051
0.0007380079478025
0.0022119972854852
0.0037149712443351
0.0052285874262452
0.0067313322797417
0.0082019139081239
0.0096204914152622
0.0109686395153403
0.0122299082577228
0.0133889205753803
0.0144267687574028
0.0153151229023933
0.0160129368305206
0.016465924680233
0.0166086480021476
0.0163708440959453
0.0156875606626272
0.0145110832527279
0.0128223150968551
0.0106389746069908
0.0080188242718577
0.0050560999661684
0.0018710037693381
-0.0014038286171853
-0.0046357410028576
-0.0077016437426209
-0.0104936901479959
-0.0129219572991132
-0.0149168260395526
-0.0164316464215517
-0.0174442324787378
-0.0179565958678722
-0.0179935097694396
-0.0176007598638534
-0.0168421138077974
-0.0157929398119449
-0.0145307490602135
-0.013125205412507
-0.0116308825090527
-0.0100858826190233
-0.0085146045312285
-0.0069298576563596
-0.0053339023143053
-0.0037203002721071
-0.0020767571404576
-0.0003897957503795
0.0013493727892637
0.0031408835202455
0.0049748849123716
0.0068323351442813
0.0086880382150411
0.0105145946145057
0.0122860297560691
0.013980446383357
0.0155807472765445
0.0170737151056528
0.0184491332620382
0.0196983888745307
0.0208086520433425
0.0217526722699403
0.0224806554615497
0.0229194052517414
0.0229792576283216
0.0225667059421539
0.0216002389788627
0.0200277473777532
0.0178413204848766
0.0150838941335678
0.0118469484150409
0.008260915055871
0.0044795982539653
0.0006625154055655
-0.003039575414732
-0.0064937686547636
-0.0095893424004316
-0.0122392186895012
-0.0143816359341144
-0.0159828662872314
-0.0170377139002084
-0.0175665616989135
-0.0176114737987518
-0.0172318536788225
-0.0164984259754419
-0.0154866157099604
-0.0142706697806715
-0.0129175903275609
-0.0114813074469566
-0.0099994800984859
-0.0084934532642364
-0.006970380898565
-0.0054272175766527
-0.0038559599779546
-0.0022485046647489
-0.0005999314598739
0.0010893680155277
0.002811841899529
0.0045515736564993
0.0062853703275322
0.0079863723367452
0.0096282437443733
0.0111885201185941
0.0126499533653259
0.0139996372163295
0.0152282007038593
0.0163302011787891
0.0173043049871921
0.0181518532335758
0.0188726894557476
0.0194573532789945
0.0198781229555606
0.0200834907591342
0.0199979599565267
0.0195294022560119
0.0185858961194753
0.01709670946002
0.0150290671736001
0.0123973358422517
0.0092650670558214
0.0057396441698074
0.0019601210951805
-0.0019181249663233
-0.0057384464889764
-0.0093559874221682
-0.0126470774412155
-0.0155138969421386
-0.0178859196603298
-0.0197205357253551
-0.0210036095231771
-0.0217490550130605
-0.0219963621348142
-0.0218062624335289
-0.0212540589272975
-0.0204200875014066
-0.0193803794682025
-0.0182004924863576
-0.0169322229921817
-0.0156121924519538
-0.0142616294324398
-0.0128876082599163
-0.0114861652255058
-0.0100468602031469
-0.0085580982267856
-0.0070121865719556
-0.0054085082374513
-0.0037540369667112
-0.0020625926554203
-0.000353748910129
0.0013492880389094
0.0030222316272556
0.0046418672427535
0.0061875958926975
0.0076422099955379
0.008992338553071
0.0102285556495189
0.0113452263176441
0.0123405251652002
0.013215385377407
0.0139692649245262
0.0145927807316184
0.0150604303926229
0.0153270196169614
0.0153288403525948
0.0149902487173676
0.0142365237697958
0.0130106816068291
0.0112890740856528
0.0090905027464032
0.0064769433811306
0.0035472549498081
0.0004256423562765
-0.0027517545968294
-0.0058491257950663
-0.0087419673800468
-0.0113257858902215
-0.0135212857276201
-0.0152770243585109
-0.0165704898536205
-0.0174072682857513
-0.017817048355937
-0.0178462006151676
-0.0175501853227615
-0.016988942399621
-0.0162240322679281
-0.0153149785473942
-0.0143145257607102
-0.0132640581578016
-0.0121909687295556
-0.0111089078709483
-0.0100198974832892
-0.0089173652231693
-0.0077898101881146
-0.0066245673224329
-0.0054116467945277
-0.0041471007280051
-0.002834556158632
-0.0014849677681922
-0.0001150695607066
0.0012551778927445
0.0026045152917504
0.0039107538759708
0.0051512653008103
0.00630574952811
0.0073603251948952
0.0083091966807842
0.0091525902971625
0.0098921870812773
0.0105246603488922
0.0110346591100096
0.0113896746188402
0.0115390596911311
0.0114187924191355
0.0109623754397034
0.0101158190518617
0.0088513642549514
0.0071752741932868
0.0051297564059495
0.0027900040149688
0.0002561938017606
-0.002357599325478
-0.0049342936836183
-0.0073636365123093
-0.0095508014783263
-0.011421924456954
-0.0129264052957296
-0.0140381697565317
-0.0147558655589818
-0.015099748969078
-0.015105839818716
-0.0148202665150165
-0.0142953675240278
-0.0135872606188058
-0.0127524677664041
-0.011841207742691
-0.0108898840844631
-0.0099183171987533
-0.0089323539286851
-0.007928017526865
-0.0068946578539907
-0.005817552562803
-0.004681964404881
-0.0034787217155098
-0.0022081835195422
-0.0008801419753581
0.0004889734555035
0.001879061339423
0.0032684071920812
0.004634054377675
0.0059514623135328
0.0071966256946325
0.0083509609103202
0.0094045884907245
0.0103545561432838
0.0112004047259688
0.0119396690279245
0.0125616453588008
0.0130407158285379
0.0133344391360878
0.0133883375674486
0.0131449922919273
0.0125542776659131
0.0115827322006225
0.010221074335277
0.0084893852472305
0.0064383526332676
0.0041446578688919
0.0017023347318172
-0.0007858164608478
-0.0032158473040908
-0.0054906597360968
-0.0075271921232342
-0.0092610176652669
-0.0106490980833768
-0.0116711948066949
-0.0123291006311774
-0.0126435421407222
-0.0126494355499744
-0.0123901851475238
-0.0119122043251991
-0.0112608447670936
-0.0104779321700334
-0.0096007622778415
-0.0086610047146677
-0.0076821381226181
-0.0066770743578672
-0.0056484607048332
-0.0045920792035758
-0.0035013111773878
-0.0023703472688794
-0.0011965924641117
1.6508507542312145e-05
0.0012580123730003
0.0025117879267781
0.003761094994843
0.0049912990070879
0.006189377978444
0.0073425788432359
0.0084380181506276
0.0094636660069227
0.010410152375698
0.0112714525312185
0.0120439026504755
0.0127236330881714
0.0133011788129806
0.0137543650344014
0.0140442159026861
0.0141173098236322
0.0139139667153358
0.0133790774270892
0.0124725801870226
0.0111781917512416
0.0095089096575975
0.0075082373805344
0.0052471519447863
0.0028164745308458
0.0003165008965879
-0.0021522808820009
-0.0044963518157601
-0.0066350884735584
-0.0085050417110323
-0.0100618451833724
-0.011279865168035
-0.0121509227901697
-0.0126832649111747
-0.0128991454839706
-0.0128303691744804
-0.0125145046040415
-0.0119926687330007
-0.0113069470971822
-0.0104968147352337
-0.0095959892496466
-0.008631007745862
-0.0076209353283047
-0.0065767578780651
-0.005501739680767
-0.0043945615179836
-0.0032528773881495
-0.0020752898417413
-0.0008632685057818
0.0003768778406083
0.0016338082496076
0.0028931214474141
0.0041400990448892
0.00536157656461
0.0065461848862469
0.0076832785271108
0.0087622078135609
0.0097739659249782
0.0107133146375417
0.0115770623087883
0.012360131368041
0.0130532840266823
0.013640783727169
0.0140966949984431
0.0143828177824616
0.0144499745219945
0.0142426081001758
0.013706823810935
0.0128001738339662
0.0115006528794765
0.0098138265311717
0.0077767469920217
0.0054567987099289
0.0029449013527482
0.0003449161595199
-0.0022375020198524
-0.004704488441348
-0.0069729061797261
-0.0089784786105155
-0.0106776775792241
-0.0120464209467172
-0.0130758835002779
-0.0137683199718594
-0.0141348447650671
-0.0141957076266407
-0.0139815360307693
-0.0135326227173209
-0.0128953717648983
-0.0121166836470365
-0.0112380962818861
-0.0102918650954961
-0.009299874305725
-0.0082743801176548
-0.0072195371612906
-0.0061341538093984
-0.0050145769491791
-0.0038568852469325
-0.002660165540874
-0.0014296183362603
-0.0001760018058121
0.0010877614840865
0.0023487794678658
0.0035939565859735
0.0048100864514708
0.005985396914184
0.0071106944233179
0.0081794522702693
0.0091871041804552
0.0101295616477727
0.0110017387196421
0.0117963487282395
0.0125015005469322
0.0130965709686279
0.0135491155087947
0.0138155752792954
0.0138456933200359
0.0135879376903176
0.0129942577332258
0.012027502991259
0.0106719359755516
0.0089402291923761
0.0068735890090465
0.0045378617942333
0.0020181667059659
-0.0005884901620447
-0.0031832330860197
-0.0056744236499071
-0.0079819355159997
-0.0100381411612033
-0.0117890089750289
-0.0131961246952414
-0.0142387552186846
-0.0149146253243088
-0.0152385765686631
-0.0152398338541388
-0.0149588156491518
-0.0144430166110396
-0.0137414680793881
-0.012899100780487
-0.0119533641263842
-0.0109328143298625
-0.0098558282479643
-0.0087304227054119
-0.0075562424026429
-0.0063280561007559
-0.005039753858
-0.0036872602067887
-0.0022703590802848
-0.0007950263097882
0.0007248087786138
0.0022687972523272
0.003814002033323
0.005337284412235
0.0068154791370034
0.0082266312092542
0.0095537872985005
0.0107876835390925
0.0119255445897579
0.0129679143428802
0.0139166256412863
0.0147735979408025
0.0155360652133822
0.016187634319067
0.0166920758783817
0.0169947184622287
0.0170297417789697
0.0167307630181312
0.0160424970090389
0.0149306952953338
0.0133893135935068
0.0114447697997093
0.0091563574969768
0.0066114515066146
0.003915375098586
0.0011795634636655
-0.0014881880488246
-0.0039911335334181
-0.0062487497925758
-0.008199131116271
-0.0097998538985848
-0.0110293412581086
-0.0118874628096818
-0.0123930182307958
-0.0125792128965258
-0.0124880308285355
-0.0121640535071492
-0.0116508323699235
-0.0109894722700119
-0.0102162146940827
-0.0093594752252101
-0.0084387501701712
-0.0074656456708908
-0.0064453529193997
-0.0053784768097102
-0.0042644389905035
-0.0031043849885463
-0.001901697833091
-0.0006621489301323
0.0006050271913409
0.0018864860758185
0.0031652329489588
0.004421564284712
0.0056355698034167
0.0067914999090135
0.0078802034258842
0.0088975857943296
0.0098418276757001
0.0107115618884563
0.011504802852869
0.0122180478647351
0.0128440465778112
0.0133668202906847
0.013755683787167
0.0139629254117608
0.0139281991869211
0.0135881276801228
0.0128876892849802
0.0117914993315935
0.010293573141098
0.0084225833415985
0.0062402728945016
0.0038340021856129
0.0013065901584923
-0.0012343337293714
-0.0036863195709884
-0.0059595899656414
-0.007981120608747
-0.0096958372741937
-0.0110668232664465
-0.0120770586654543
-0.0127313174307346
-0.0130545347929
-0.0130864642560482
-0.0128752849996089
-0.0124722495675086
-0.0119277546182274
-0.0112875364720821
-0.0105887474492192
-0.0098577477037906
-0.0091097373515367
-0.0083489846438169
-0.0075703766196966
-0.006762383505702
-0.0059103788807988
-0.0050007454119622
-0.0040252115577459
-0.0029834336601197
-0.0018838084070011
-0.0007429019315168
0.000417137867771
0.0015718914801254
0.002696493640542
0.0037672785110771
0.0047653694637119
0.0056796111166477
0.0065060285851359
0.0072448304854333
0.0078950161114335
0.0084467977285385
0.0088755991309881
0.0091404197737574
0.0091866692528128
0.0089540686458349
0.0083888573572039
0.0074551301077008
0.0061417971737682
0.0044671180658042
0.0024805748835206
0.0002588308416306
-0.0021027950569987
-0.0044996230863034
-0.0068269167095422
-0.0089884586632251
-0.0109027903527021
-0.0125070717185735
-0.0137591157108545
-0.01463776640594
-0.0151425022631883
-0.0152927571907639
-0.0151253221556544
-0.0146887507289648
-0.0140365688130259
-0.0132217071950435
-0.0122926402837038
-0.0112897185608744
-0.010241687297821
-0.0091646378859877
-0.008063762448728
-0.006936153396964
-0.0057742181234061
-0.0045700287446379
-0.0033192231785506
-0.0020230619702488
-0.0006884841714054
0.0006738156080245
0.0020514603238552
0.0034307732712477
0.0047966549172997
0.0061327498406171
0.0074222041293978
0.0086499880999326
0.0098050655797123
0.010880708694458
0.0118735088035464
0.0127792786806821
0.0135848559439182
0.0142602883279323
0.0147560937330126
0.0150064304471015
0.0149373821914196
0.0144785316661
0.0135749839246273
0.0121984984725713
0.0103556653484702
0.0080894846469163
0.0054755350574851
0.0026156280655413
-0.0003719470114447
-0.00336504727602
-0.0062493775039911
-0.0089252414181828
-0.0113091869279742
-0.0133349010720849
-0.0149551555514335
-0.0161436311900615
-0.0168964825570583
-0.017232296988368
-0.0171887837350368
-0.0168169140815734
-0.0161739476025104
-0.0153164640069007
-0.01429477147758
-0.0131495986133813
-0.0119116082787513
-0.0106029286980628
-0.0092382235452532
-0.007824731990695
-0.0063633932732045
-0.0048515275120735
-0.0032854983583092
-0.0016631744801998
1.3010576367378237e-05
0.001733754761517
0.0034830914810299
0.0052403439767658
0.0069821747019886
0.0086843268945813
0.0103235514834523
0.0118796676397323
0.0133370626717805
0.0146852228790521
0.0159180983901023
0.0170322395861148
0.0180226005613803
0.018874792382121
0.0195563659071922
0.0200126748532056
0.0201703533530235
0.0199473910033702
0.0192672256380319
0.0180742908269166
0.0163472741842269
0.014106523245573
0.011414767242968
0.0083720013499259
0.0051056742668151
0.0017571682110428
-0.0015334084164351
-0.0046394295059144
-0.0074544521048665
-0.0098958741873502
-0.0119072366505861
-0.0134587232023477
-0.0145464278757572
-0.0151903349906206
-0.0154297435656189
-0.0153166428208351
-0.0149090569466352
-0.0142658986151218
-0.0134428385645151
-0.012488130480051
-0.0114392284303903
-0.0103208143264055
-0.0091439057141542
-0.0079069975763559
-0.0065999627113342
-0.0052090631797909
-0.0037209643051028
-0.0021257940679788
-0.0004204176366329
0.0013886340893805
0.0032840841449797
0.0052389670163393
0.0072182589210569
0.009180455468595
0.0110811432823538
0.0128790633752942
0.0145422257483005
0.0160515960305929
0.0174008756875991
0.0185921881347894
0.019629381597042
0.0205125790089368
0.0212356355041265
0.0217830315232276
0.022123934701085
0.0222082007676363
0.0219695419073104
0.0213357359170913
0.0202424712479114
0.0186473056674003
0.016541913151741
0.0139598939567804
0.0109766786918044
0.007701267953962
0.004262734670192
0.0007961080409586
-0.0025685625150799
-0.0057138162665069
-0.0085411416366696
-0.010976955294609
-0.0129761490970849
-0.0145212737843394
-0.0156190991401672
-0.0162968859076499
-0.0165983587503433
-0.0165782049298286
-0.0162952784448862
-0.0158065576106309
-0.0151623822748661
-0.0144024156033992
-0.0135538000613451
-0.0126328757032752
-0.0116488952189683
-0.0106062348932027
-0.0095038693398237
-0.008335530757904
-0.0070935119874775
-0.0057739131152629
-0.0043798680417239
-0.0029228164348751
-0.0014222036115825
9.722495451569556e-05
0.0016085989773273
0.0030848956666886
0.0045010736212134
0.0058361887931823
0.0070737563073635
0.0082015451043844
0.0092127453535795
0.0101066026836633
0.0108857583254575
0.0115495864301919
0.0120848389342427
0.0124578792601823
0.0126136261969804
0.0124827958643436
0.011993751861155
0.0110851302742958
0.0097193541005253
0.0078951530158519
0.0056533208116889
0.0030732080340385
0.000263063237071
-0.0026519456878304
-0.0055422633886337
-0.0082855997607111
-0.010776087641716
-0.0129309110343456
-0.0146945286542177
-0.01603907905519
-0.0169609021395444
-0.0174758806824684
-0.0176163483411073
-0.0174291655421257
-0.0169723909348249
-0.0163095407187938
-0.0155023951083421
-0.014604334719479
-0.0136561598628759
-0.0126847513020038
-0.0117037622258067
-0.0107155246660113
-0.009713876992464
-0.0086873676627874
-0.0076224016956985
-0.0065069147385656
-0.005333871114999
-0.0041027986444532
-0.0028202040120959
-0.0014999674167484
-0.0001622824929654
0.0011690924875438
0.0024697124026715
0.0037171854637563
0.0048935059458017
0.0059857564046978
0.0069855176843702
0.0078883189707994
0.0086920801550149
0.0093916468322277
0.0099701173603534
0.0103918220847845
0.0106006823480129
0.0105262566357851
0.0100971898064017
0.0092569636180996
0.0079768598079681
0.0062636625953018
0.0041614836081862
0.0017494913190603
-0.0008641434833407
-0.0035541229881346
-0.0061926972121
-0.0086608175188303
-0.010855465196073
-0.012695918790996
-0.0141279613599181
-0.0151249561458826
-0.0156871750950813
-0.0158391743898391
-0.0156244644895195
-0.015099486336112
-0.014327916316688
-0.0133738685399293
-0.0122947618365287
-0.011137125082314
-0.0099361641332507
-0.0087158717215061
-0.0074880011379718
-0.0062526324763894
-0.0050016408786177
-0.0037230476737022
-0.0024054537061601
-0.0010421681217849
0.0003665133845061
0.0018132696859538
0.0032846815884113
0.0047622201964259
0.0062241205014288
0.0076483632437884
0.0090151205658912
0.0103078093379735
0.0115134231746196
0.0126226358115673
0.013629731722176
0.014531921595335
0.0153268631547689
0.0160068999975919
0.0165506619960069
0.0169172827154397
0.0170478504151105
0.0168728101998567
0.0163223762065172
0.01533920224756
0.0138909686356782
0.0119787827134132
0.0096405064687132
0.0069494848139584
0.0040078568272292
0.0009352843044325
-0.0021438172552734
-0.0051105627790093
-0.0078584039583802
-0.0102997859939932
-0.0123720895498991
-0.0140384873375296
-0.0152844972908496
-0.0161142628639936
-0.0165482070297002
-0.0166208464652299
-0.0163768623024225
-0.0158656351268291
-0.015136033296585
-0.0142328767105937
-0.0131947398185729
-0.012051741592586
-0.0108234826475381
-0.0095191728323698
-0.0081401001662015
-0.0066830404102802
-0.0051440931856632
-0.003522106911987
-0.0018209526315331
-5.085486918687821e-05
0.0017709857784211
0.0036205044016242
0.005468132905662
0.0072819683700799
0.0090322401374578
0.0106948968023061
0.012252832762897
0.0136957895010709
0.0150194000452756
0.0162234902381896
0.017310382798314
0.0182819999754428
0.019135195761919
0.0198565032333135
0.0204170271754264
0.0207698941230773
0.0208526290953159
0.0205934066325426
0.0199198052287101
0.0187713839113712
0.0171151999384164
0.0149574037641286
0.0123456893488764
0.0093642063438892
0.0061245993711054
0.0027553851250559
-0.0006099915481172
-0.0038457168266177
-0.006843518000096
-0.009516978636384
-0.0118017615750432
-0.0136546259745955
-0.0150521667674183
-0.0159907136112451
-0.0164875946938991
-0.0165804848074913
-0.0163226146250963
-0.0157750435173511
-0.0149985933676362
-0.0140481609851121
-0.0129696549847722
-0.0117975901812314
-0.0105537623167037
-0.0092489821836352
-0.0078869611024856
-0.006467982660979
-0.0049919206649065
-0.0034604705870151
-0.0018779854290187
-0.0002519944682717
0.0014056304935365
0.0030782509129494
0.0047453921288251
0.0063837217167019
0.0079679489135742
0.0094725992530584
0.0108751356601715
0.0121594872325658
0.0133178792893886
0.0143503118306398
0.0152624957263469
0.0160625465214252
0.0167557876557111
0.0173378139734268
0.0177876912057399
0.0180636271834373
0.0181034542620182
0.0178316123783588
0.0171717219054698
0.0160616133362054
0.0144670847803354
0.0123910829424858
0.0098765837028622
0.007003791630268
0.0038828845135867
0.0006422172300517
-0.0025864127092063
-0.0056811473332345
-0.008539748378098
-0.0110844438895583
-0.0132610565051436
-0.0150356013327836
-0.0163919012993574
-0.0173304267227649
-0.0178680513054132
-0.018037125468254
-0.0178816840052604
-0.0174515638500452
-0.0167963970452547
-0.0159610174596309
-0.0149832619354128
-0.0138936163857579
-0.0127156460657715
-0.0114665320143103
-0.010158154182136
-0.0087999999523162
-0.0074019012972712
-0.0059734536334872
-0.0045217280276119
-0.0030512937810271
-0.0015669603599235
-7.629726314917207e-05
0.0014096722006797
0.0028772396035492
0.0043114931322634
0.0056975381448864
0.0070212366990745
0.0082696033641695
0.0094313630834221
0.0104986680671572
0.0114689171314239
0.0123443379998207
0.0131287770345807
0.0138227324932813
0.014417209662497
0.014887067489326
0.0151865473017096
0.0152505133301019
0.0150026772171258
0.0143690500408411
0.0132930306717753
0.0117481760680675
0.0097455894574522
0.0073359366506338
0.0046074828132987
0.0016782972961664
-0.0013184677809476
-0.0042512384243309
-0.0070024747401475
-0.0094759818166494
-0.011601286008954
-0.0133353723213076
-0.0146613316610455
-0.0155849829316139
-0.0161304008215665
-0.0163346342742443
-0.0162425078451633
-0.0159024633467197
-0.0153634399175643
-0.0146728856489062
-0.013875275850296
-0.013009363785386
-0.0121047236025333
-0.0111791659146547
-0.0102375615388154
-0.009273238480091
-0.0082722753286361
-0.0072191022336483
-0.0061019239947199
-0.0049166157841682
-0.0036677040625363
-0.0023665460757911
-0.0010286415927112
0.000328057911247
0.001683731097728
0.003017014125362
0.0043059014715254
0.0055295769125223
0.0066706789657473
0.0077169626019895
0.0086613576859235
0.0095008984208107
0.0102350236847996
0.0108611183241009
0.0113664977252483
0.0117213064804673
0.0118773113936185
0.0117734521627426
0.0113464836031198
0.01054397970438
0.0093368096277117
0.0077284914441406
0.0057584275491535
0.0034983721561729
0.0010447516106069
-0.0014909445308148
-0.0039927046746015
-0.0063501615077257
-0.0084674330428242
-0.0102696232497692
-0.0117061100900173
-0.0127520626410841
-0.0134085901081562
-0.013699933886528
-0.0136682502925395
-0.013367305509746
-0.0128558538854122
-0.0121920946985483
-0.0114294765517115
-0.0106122279539704
-0.0097706168889999
-0.0089193023741245
-0.008060316555202
-0.0071870661340653
-0.0062868692912161
-0.0053444281220436
-0.0043466631323099
-0.0032855530735105
-0.0021590138785541
-0.0009719266672618
0.0002637238358147
0.0015302584506571
0.0028055710718035
0.0040643257088959
0.0052806916646659
0.0064315497875213
0.0074981697835028
0.0084677506238222
0.0093350438401103
0.0100997453555464
0.0107586747035384
0.0112969242036342
0.0116817727684974
0.0118620656430721
0.0117738842964172
0.0113509278744459
0.0105375815182924
0.0093025946989655
0.0076503329910337
0.0056251687929034
0.003307354170829
0.0008038574596866
-0.0017632126109674
-0.0042700804769992
-0.0066033992916345
-0.008667966350913
-0.0103914188221097
-0.0117270592600107
-0.012654460966587
-0.0131789268925786
-0.0133296595886349
-0.0131547451019287
-0.012712956406176
-0.0120645398274064
-0.0112641248852014
-0.0103583456948399
-0.0093864221125841
-0.0083796456456184
-0.0073595866560935
-0.006337038706988
-0.005312233697623
-0.0042764078825712
-0.0032149488106369
-0.0021116025745868
-0.0009525292553007
0.000270009972155
0.0015551820397377
0.0028939419426023
0.0042705377563834
0.00566366314888
0.0070489533245563
0.0084022032096982
0.0097009455785155
0.0109250890091061
0.0120580159127712
0.0130875222384929
0.0140050901100039
0.0148017285391688
0.0154605507850646
0.0159492641687393
0.0162159688770771
0.016191404312849
0.0157998036593198
0.0149756986647844
0.0136793944984674
0.0119064953178167
0.0096925059333443
0.0071127372793853
0.0042751682922244
0.0013069577980786
-0.0016607714351266
-0.0045061558485031
-0.0071261911652982
-0.0094412127509713
-0.0113948360085487
-0.0129521135240793
-0.0140974512323737
-0.0148328933864831
-0.0151767898350954
-0.0151617601513862
-0.0148320710286498
-0.0142407938838005
-0.01344496011734
-0.0124984681606292
-0.011446027085185
-0.0103201791644096
-0.0091406852006912
-0.0079162744805216
-0.0066486932337284
-0.0053364876657724
-0.0039774440228939
-0.0025705955922603
-0.0011174278333783
0.0003778664395213
0.0019083442166447
0.0034641451202332
0.0050321226008236
0.0065957657061517
0.008135843090713
0.0096315899863839
0.0110629796981811
0.0124131524935364
0.0136690847575664
0.0148216392844915
0.0158642791211605
0.0167870949953794
0.0175677239894866
0.0181640684604644
0.0185124985873699
0.0185334384441375
0.0181433018296957
0.0172696597874164
0.0158668514341115
0.0139290634542703
0.0114968009293079
0.0086541250348091
0.0055181104689836
0.0022247708402574
-0.0010856988374143
-0.0042828992009162
-0.0072559062391519
-0.0099162384867668
-0.012197402305901
-0.0140543188899755
-0.0154622159898281
-0.0164157692342996
-0.0169288888573646
-0.0170324742794036
-0.0167700350284576
-0.0161936357617378
-0.0153600675985217
-0.0143260499462485
-0.0131430719047784
-0.0118540097028017
-0.0104919467121362
-0.0090795792639255
-0.0076296683400869
-0.0061475140973925
-0.0046333745121955
-0.003084035590291
-0.0014955196529626
0.0001335842534899
0.0018001557327806
0.0034957937896251
0.005206408444792
0.0069123664870858
0.0085899112746119
0.0102139199152588
0.0117616159841418
0.0132157085463404
0.014564536511898
0.0157999284565448
0.0169152356684207
0.0179018918424844
0.0187420230358839
0.0193997733294963
0.0198169723153114
0.0199167355895042
0.0196143947541713
0.0188326016068458
0.0175175163894891
0.0156520511955022
0.0132620995864272
0.0104156648740172
0.0072175087407231
0.003799476660788
0.000306017085677
-0.0031213592737913
-0.0063557662069797
-0.0092918882146477
-0.0118494285270571
-0.0139735201373696
-0.0156328473240137
-0.0168172735720872
-0.0175366047769784
-0.0178194399923086
-0.0177096053957939
-0.0172607526183128
-0.0165309775620698
-0.0155779523774981
-0.0144549328833818
-0.0132074654102325
-0.0118702230975031
-0.0104651218280196
-0.0090027917176485
-0.0074872351251542
-0.0059206150472164
-0.0043057650327682
-0.0026473749894648
-0.0009531565010547
0.0007659599650651
0.002496981061995
0.0042256624437868
0.0059361141175031
0.0076103694736957
0.0092291459441185
0.0107736410573124
0.0122270546853542
0.0135755911469459
0.0148095805197954
0.0159228593111038
0.0169091243296861
0.0177569910883903
0.0184436906129121
0.0189284868538379
0.0191513504832983
0.0190394651144742
0.0185190346091985
0.0175292287021875
0.0160355679690837
0.0140401544049382
0.0115863680839538
0.0087577039375901
0.0056713344529271
0.0024655656889081
-0.0007173046469688
-0.003746697679162
-0.0065135108307003
-0.0089341290295124
-0.0109508885070681
-0.0125314993783831
-0.0136685110628604
-0.0143775921314954
-0.0146941049024462
-0.0146692898124456
-0.01436572894454
-0.0138502549380064
-0.0131856994703412
-0.0124252969399094
-0.0116101121529936
-0.0107668852433562
-0.0099062910303473
-0.0090244747698307
-0.0081082349643111
-0.0071408920921385
-0.0061074895784258
-0.0049996306188404
-0.0038184165023267
-0.0025744074955582
-0.0012860121205449
2.2509600967168808e-05
0.0013237688690423
0.0025914153084158
0.0038041095249354
0.0049458490684628
0.0060035204514861
0.0069662132300436
0.0078262872993946
0.0085790604352951
0.0092198438942432
0.009737248532474
0.0101045034825801
0.0102746859192848
0.0101839425042271
0.0097616706043481
0.0089442431926727
0.0076899426057934
0.0059919292107224
0.0038849459961056
0.0014435024932026
-0.0012278500944375
-0.0040080873295664
-0.0067724422551691
-0.0094022657722234
-0.0117918048053979
-0.0138531941920518
-0.0155214462429285
-0.0167591758072376
-0.0175586622208356
-0.0179397016763687
-0.0179438013583421
-0.0176261477172374
-0.0170477610081434
-0.0162700191140174
-0.0153504721820354
-0.0143386833369731
-0.0132737513631582
-0.0121833635494112
-0.0110826734453439
-0.0099744377657771
-0.0088518867269158
