bvp
0.0090233907103538
0.0096719469875097
0.0102630285546183
0.0107857193797826
0.0112188532948493
0.0115225994959473
0.0116336727514863
0.0114678209647536
0.0109310857951641
0.0099376756697893
0.0084292134270071
0.0063901962712407
0.0038562361150979
0.0009137848392128
-0.0023076813668012
-0.0056504774838685
-0.0089489258825778
-0.0120484661310911
-0.0148176401853561
-0.0171531178057193
-0.0189818926155567
-0.020264022052288
-0.020994558930397
-0.0212017204612493
-0.0209420528262853
-0.020293628796935
-0.0193469785153865
-0.0181952361017465
-0.0169251672923564
-0.0156100643798708
-0.0143058486282825
-0.0130501305684447
-0.0118623850867152
-0.0107447439804673
-0.0096845272928476
-0.0086591923609375
-0.0076429834589362
-0.0066136331297457
-0.005557082593441
-0.0044690473005175
-0.0033546457998454
-0.0022278628312051
-0.0011100308038294
-2.627773210406304e-05
0.0009985179640352
0.0019431584514677
0.0027931220829486
0.0035418211482465
0.0041867727413773
0.0047192219644784
0.0051124822348356
0.0053173024207353
0.0052669281139969
0.0048888772726058
0.0041199983097612
0.0029215770773589
0.0012909225188195
-0.0007331692613661
-0.0030718883499503
-0.0056141698732972
-0.0082293013110756
-0.010782248340547
-0.0131482277065515
-0.0152226574718952
-0.0169249791651964
-0.0181988459080457
-0.0190125275403261
-0.0193593818694353
-0.0192553084343671
-0.0187339782714843
-0.0178429167717695
-0.0166399087756872
-0.0151887089014053
-0.013554697856307
-0.0117994742467999
-0.0099745178595185
-0.0081176748499274
-0.0062535181641578
-0.0043952967971563
-0.0025482377968728
-0.0007141856476664
0.0011047185398638
0.0029051513411104
0.0046836985275149
0.0064368806779384
0.0081591205671429
0.0098410826176404
0.0114701706916093
0.0130331423133611
0.0145192919299006
0.0159223489463329
0.0172408074140548
0.0184762366116046
0.0196293331682682
0.0206943787634372
0.0216519944369792
0.0224623419344425
0.0230632070451974
0.0233755894005298
0.0233170334249734
0.0228185970336198
0.0218399278819561
0.0203803814947605
0.0184840746223926
0.0162364747375249
0.013754054903984
0.0111714368686079
0.0086288228631019
0.0062597719952464
0.0041796150617301
0.0024751969613134
0.001197334844619
0.0003585270023904
-6.430345820263028e-05
-0.0001242556609213
0.0001031799474731
0.0005292521091178
0.0010616319486871
0.0016139128711074
0.002113196067512
0.002504211384803
0.0027506060432642
0.002834629965946
0.0027555341366678
0.0025268148165196
0.002173158340156
0.0017280154861509
0.0012305378913879
0.0007207058370113
0.0002354178577661
-0.0001925607211887
-0.0005350499413907
-0.000769973732531
-0.0008831974118947
-0.0008692438714206
-0.000730219297111
-0.0004736166447401
-0.0001097754575312
0.0003501763567328
0.0008946247398853
0.0015092715620994
0.0021721697412431
0.0028470801189541
0.003479054197669
0.0039958264678716
0.0043153148144483
0.0043571293354034
0.0040552895516157
0.003369690850377
0.0022940840572118
0.0008588461205363
-0.0008725142106413
-0.0028128325939178
-0.0048633627593517
-0.0069247549399733
-0.008905854076147
-0.0107296584174036
-0.0123361907899379
-0.0136834448203444
-0.0147473011165857
-0.0155212171375751
-0.0160167124122381
-0.0162639431655406
-0.0163094606250524
-0.016209952533245
-0.0160242393612861
-0.0158055070787668
-0.0155952479690313
-0.0154209788888692
-0.0152965039014816
-0.0152216609567403
-0.0151820108294487
-0.0151507668197155
-0.0150927705690264
-0.0149684716016054
-0.0147377680987119
-0.0143647147342562
-0.0138223553076386
-0.0130962487310171
-0.0121856527402997
-0.0111024258658289
-0.0098697021603584
-0.0085226073861122
-0.0071107610128819
-0.0057010911405086
-0.0043803411535918
-0.0032556178048253
-0.0024487569462507
-0.0020798097830265
-0.0022398422006517
-0.0029631208162754
-0.0042122616432607
-0.0058823227882385
-0.0078233424574136
-0.0098785478621721
-0.0119339041411876
-0.0139772398397326
-0.0161590911448001
-0.0188217833638191
-0.0224522687494754
-0.0275526512414217
-0.0344816185534
-0.0433437973260879
-0.0539721846580505
-0.0659927651286125
-0.0789280608296394
-0.0922915935516357
-0.1056394726037979
-0.1185637935996055
-0.13062185049057
-0.1412494033575058
-0.1497497856616974
-0.1553783565759658
-0.1574665158987045
-0.1555292457342147
-0.1493251472711563
-0.1388826817274093
-0.1245119273662567
-0.1067870035767555
-0.0864888727664947
-0.0645228624343872
-0.0418282970786094
-0.0192916840314865
0.0023353919386863
0.022511675953865
0.0409591048955917
0.0576751604676246
0.0728936493396759
0.0869913846254348
0.1003638356924057
0.1133190691471099
0.1260233670473098
0.1385005265474319
0.150683656334877
0.1625073254108429
0.173982948064804
0.1851927191019058
0.1962076127529144
0.2070081084966659
0.2174679338932037
0.2273808121681213
0.2364807426929474
0.2444546967744827
0.2509849071502685
0.2558292150497436
0.2588969469070434
0.260275661945343
0.2602048218250274
0.2590263783931732
0.2571400105953216
0.2549580037593841
0.2528359591960907
0.2509756982326507
0.2493312507867813
0.2475700229406356
0.245117574930191
0.2412630915641784
0.235287070274353
0.2265787422657013
0.2147117704153061
0.199477881193161
0.1809113323688507
0.1593185514211654
0.1352855265140533
0.1096286177635192
0.0832875967025756
0.0571916699409484
0.0321342796087265
0.008683368563652
-0.0128556489944458
-0.0324224084615707
-0.0501450300216674
-0.0662662461400032
-0.0810726732015609
-0.0948413535952568
-0.1077998802065849
-0.120092898607254
-0.1317648738622665
-0.1427710056304931
-0.1530094891786575
-0.1623494923114776
-0.1706271022558212
-0.1776143312454223
-0.183008998632431
-0.1864917427301406
-0.1878449320793151
-0.1870790868997573
-0.1845058351755142
-0.1807277202606201
-0.176553413271904
-0.1728699803352356
-0.1705045402050018
-0.1700999736785888
-0.1720241755247116
-0.1763288527727127
-0.1827635914087295
-0.1908339262008667
-0.1998845040798187
-0.2091926485300064
-0.2180606871843338
-0.2258946150541305
-0.2322598695755005
-0.2369095534086227
-0.2397830337285995
-0.2409774959087371
-0.2407011091709137
-0.2392182946205139
-0.2367962598800659
-0.2336627542972564
-0.229982241988182
-0.2258518040180206
-0.2213137149810791
-0.2163774371147155
-0.2110407203435897
-0.2053033411502838
-0.1991727948188781
-0.1926641464233398
-0.1857961565256118
-0.1785858869552612
-0.1710442006587982
-0.163174033164978
-0.1549721807241439
-0.1464339196681976
-0.1375579535961151
-0.1283491998910904
-0.1188192069530487
-0.1089859157800674
-0.0988733172416687
-0.0885104537010192
-0.0779301077127456
-0.0671685636043548
-0.0562666617333889
-0.0452695116400718
-0.0342243090271949
-0.0231781899929046
-0.0121771991252899
-0.0012654289603233
0.0095168873667716
0.0201350152492523
0.0305597335100173
0.0407668426632881
0.0507367998361587
0.0604536309838295
0.0699032321572303
0.0790727213025093
0.0879514068365097
0.096532255411148
0.1048128604888916
0.1127946600317955
0.1204800754785537
0.127868503332138
0.1349513828754425
0.1417073607444763
0.1480988711118698
0.1540714651346206
0.1595564037561416
0.1644756197929382
0.1687476634979248
0.1722952276468277
0.1750534772872924
0.1769778877496719
0.1780514121055603
0.1782901138067245
0.1777461022138595
0.1765057444572448
0.1746822297573089
0.1724045276641845
0.1698058545589447
0.1670138984918594
0.1641436368227005
0.1612910032272339
0.1585270315408706
0.155893787741661
0.1534019857645034
0.1510302424430847
0.1487281024456024
0.1464233994483947
0.1440328955650329
0.141475424170494
0.1386851519346237
0.1356205940246582
0.132267415523529
0.1286378800868988
0.1247689723968505
0.1207161098718643
0.1165423914790153
0.1123087108135223
0.1080676913261413
0.1038597077131271
0.0997099727392196
0.0956277921795845
0.0916079208254814
0.0876334905624389
0.0836806893348693
0.0797237157821655
0.0757380425930023
0.0717009976506233
0.0675899386405944
0.0633787885308265
0.0590332373976707
0.0545063391327858
0.0497386828064918
0.0446655713021755
0.039229616522789
0.0333954989910125
0.0271628312766551
0.0205735191702842
0.0137115931138396
0.0066956058144569
-0.0003340980038046
-0.0072311828844249
-0.0138590838760137
-0.0201011858880519
-0.0258643850684165
-0.0310805365443229
-0.0357077531516552
-0.0397301986813545
-0.0431563258171081
-0.0460158511996269
-0.0483550876379013
-0.0502322688698768
-0.0517144501209259
-0.0528733916580677
-0.0537785664200782
-0.0544901713728904
-0.0550548620522022
-0.055503886193037
-0.0558533817529678
-0.0561069622635841
-0.0562600567936897
-0.0563048534095287
-0.0562341772019863
-0.0560436323285102
-0.055732611566782
-0.0553043521940708
-0.0547646805644035
-0.0541212931275367
-0.0533853247761726
-0.0525724776089191
-0.0517009310424327
-0.050788439810276
-0.04985161870718
-0.048907071352005
-0.0479730144143104
-0.0470708385109901
-0.0462272204458713
-0.0454779639840126
-0.0448712222278118
-0.0444657020270824
-0.0443226844072341
-0.0444946214556694
-0.0450137704610824
-0.0458826720714569
-0.0470687709748744
-0.0485052168369293
-0.0500975623726844
-0.0517342537641525
-0.053298819810152
-0.0546812936663627
-0.0557871982455253
-0.0565431527793407
-0.0568989217281341
-0.056828461587429
-0.056330993771553
-0.0554296895861625
-0.0541672855615615
-0.0525997802615165
-0.0507891178131103
-0.0487964339554309
-0.0466771647334098
-0.0444782190024852
-0.042236678302288
-0.0399792790412902
-0.0377231799066066
-0.0354779660701751
-0.0332472622394561
-0.0310298129916191
-0.0288213361054658
-0.0266168601810932
-0.0244123730808496
-0.022206163033843
-0.0200005918741226
-0.0178030412644147
-0.0156239029020071
-0.013473717495799
-0.0113633070141077
-0.0093057733029127
-0.0073165465146303
-0.0054104067385196
-0.003598416224122
-0.0018880534917116
-0.00028558075428
0.0012020599097013
0.0025658495724201
0.0037925615906715
0.0048621166497468
0.0057461746037006
0.0064101945608854
0.0068200584501028
0.0069512259215116
0.0067963488399982
0.0063691604882478
0.0057057198137044
0.0048631895333528
0.0039149466902017
0.0029425714164972
0.0020262468606233
0.0012354776263237
0.0006233491003513
0.0002244617789983
5.420949310064316e-05
0.0001105666160583
0.0003785910084843
0.0008341139182448
0.0014461297541856
0.0021796049550175
0.0029978798702359
0.003863975405693
0.0047426940873265
0.0056042941287159
0.0064273453317582
0.0071999910287559
0.0079207140952348
0.0085967183113098
0.0092393085360527
0.0098598636686801
0.0104678003117442
0.0110692009329795
0.0116657242178916
0.0122536439448595
0.0128245130181312
0.0133687350898981
0.0138787785544991
0.0143488897010684
0.0147733390331268
0.0151463104411959
0.0154630504548549
0.0157206561416387
0.0159183070063591
0.0160568486899137
0.0161373149603605
0.0161589551717042
0.0161183532327413
0.0160094276070594
0.015822360292077
0.0155417183414101
0.0151460012421011
0.0146109657362103
0.013917040079832
0.0130564663559198
0.012036457657814
0.0108795287087559
0.0096223372966051
0.0083119934424757
0.0070001827552914
0.0057376185432076
0.0045697735622525
0.0035337225999683
0.0026563669089227
0.0019536048639565
0.001429675379768
0.0010769590735435
0.0008775950409471
0.0008068096358329
0.0008359458297491
0.000934462994337
0.0010719252750277
0.0012208046391606
0.0013595812488347
0.0014743639621883
0.0015586051158607
0.0016123296227306
0.0016410781536251
0.0016538552008569
0.0016606405843049
0.0016703570727258
0.0016891411505639
0.0017194007523357
0.0017613146919757
0.0018151747062802
0.0018806839361786
0.001954125938937
0.002027542097494
0.0020908499136567
0.002134442795068
0.0021505085751414
0.0021336989011615
0.002081895712763
0.0019969099666923
0.0018847612664103
0.0017551286146044
0.0016192549373954
0.0014859433285892
0.0013566596899181
0.0012215997558087
0.0010591116733849
0.0008395402692258
0.0005313481669872
0.0001075509935617
-0.0004477540496736
-0.0011343026999384
-0.0019341086735948
-0.0028132691513746
-0.0037263007834553
-0.0046220705844461
-0.0054492191411554
-0.0061608273535966
-0.0067195734009146
-0.0071015115827322
-0.0072969477623701
-0.0073102554306387
-0.007158501073718
-0.0068681091070175
-0.0064715174958109
-0.0060041951946914
-0.0055012572556734
-0.0049944552592933
-0.0045094573870301
-0.0040633170865476
-0.0036630826070904
-0.0033058826811611
-0.0029809661209583
-0.0026732780970633
-0.0023665749467909
-0.0020454851910471
-0.0016973860329017
-0.0013141641393303
-0.0008931474294513
-0.0004373732954263
4.39921859651804e-05
0.0005359104834496
0.0010199107928201
0.0014777625910937
0.0018946250202134
0.0022614989429712
0.0025761458091437
0.0028420272283256
0.0030664869118481
0.0032582024578005
0.0034244125708937
0.0035696877166628
0.0036962407175451
0.0038048750720918
0.0038956638891249
0.0039666863158345
0.0040102819912135
0.0040093953721225
0.0039381044916808
0.0037671879399567
0.003471139119938
0.0030341488309204
0.0024553332477808
0.0017520040273666
0.0009587735403329
0.0001230132766067
-0.000702099641785
-0.0014662202447652
-0.0021281219087541
-0.0026566423475742
-0.0030300547368824
-0.0032374826259911
-0.0032804082147777
-0.0031718416139483
-0.0029341713525354
-0.0025969380512833
-0.0021941103041172
-0.0017609489150345
-0.0013301423750817
-0.0009266436100006
-0.0005642096512019
-0.0002461993135511
3.228336572647095e-05
0.0002828044816851
0.0005204742774367
0.0007602209225296
0.0010148803703486
0.0012932769022881
0.0015978114679455
0.0019244444556534
0.0022648042067885
0.0026078969240188
0.0029415376484394
0.0032545358408242
0.003538476768881
0.0037879340816289
0.0040004081092774
0.0041769985109567
0.0043224510736763
0.004443154670298
0.0045445263385772
0.0046300115063786
0.0047015082091093
0.0047603505663573
0.0048073041252791
0.0048407418653368
0.0048545477911829
0.0048359627835452
0.0047639263793826
0.0046102348715066
0.0043441699817776
0.0039393245242536
0.0033803666010499
0.0026677385903894
0.0018192261923104
0.0008688513189554
-0.0001362692564725
-0.0011423751711845
-0.0020978143438696
-0.0029600644484162
-0.0036989469081163
-0.0042965025641024
-0.0047450270503759
-0.0050447443500161
-0.0052020936273038
-0.0052292291074991
-0.0051440154202282
-0.004969005472958
-0.0047286166809499
-0.0044460156932473
-0.0041423784568905
-0.003836955409497
-0.0035443329252302
-0.0032704737968742
-0.0030114264227449
-0.0027561471797525
-0.0024922341108322
-0.0022102533839643
-0.0019044145010411
-0.0015724417753517
-0.0012162458151578
-0.0008422336541116
-0.0004603709094226
-8.200341835618019e-05
0.0002824310213327
0.0006252457387745
0.0009433547966182
0.0012391633354127
0.0015191580168902
0.001791370101273
0.0020638303831219
0.0023437500931322
0.0026361015625298
0.0029416112229228
0.0032554008066654
0.003567318432033
0.0038622363936156
0.0041184118017554
0.0043053720146417
0.0043835579417645
0.0043075224384665
0.0040335170924663
0.003528686473146
0.0027778642252087
0.0017873113974928
0.0005864948034286
-0.0007730154320597
-0.0022234036587178
-0.0036910627968609
-0.0051074251532554
-0.0064146402291953
-0.0075662964954972
-0.0085268029943108
-0.0092716962099075
-0.0097897686064243
-0.0100847324356436
-0.0101744160056114
-0.0100876213982701
-0.009858694858849
-0.0095217265188694
-0.0091063873842358
-0.0086360266432166
-0.0081281717866659
-0.0075958399102091
-0.0070477882400155
-0.0064879236742854
-0.005915424786508
-0.0053252913057804
-0.0047080060467123
-0.0040503237396478
-0.0033395513892173
-0.0025683380663394
-0.0017362115904688
-0.0008489796891808
8.235499262809753e-05
0.0010436372831463
0.0020202128216624
0.0029993532225489
0.0039711715653538
0.0049268277361989
0.0058559672906994
0.0067461347207427
0.007583625614643
0.0083549488335847
0.0090495403856039
0.0096617694944143
0.0101888049393892
0.0106243677437305
0.0109518636018037
0.011140601709485
0.0111463628709316
0.0109166391193866
0.0104010570794343
0.0095644509419798
0.0083972997963428
0.0069200377911329
0.0051814205944538
0.0032534291967749
0.0012243324890732
-0.0008104247972369
-0.0027582673355937
-0.0045377351343631
-0.0060837510973215
-0.0073501151055097
-0.0083095729351043
-0.0089524630457162
-0.0092857871204614
-0.0093327462673187
-0.0091306697577238
-0.0087262988090515
-0.0081690903753042
-0.0075046177953481
-0.006770946085453
-0.0059981681406497
-0.0052078682929277
-0.0044115614145994
-0.0036105588078498
-0.0027980543673038
-0.0019618235528469
-0.0010868124663829
-0.0001581758260726
0.0008356068283319
0.0019002836197614
0.0030340179800987
0.0042271502315998
0.0054645864292979
0.0067290542647242
0.0080021228641271
0.0092634391039609
0.0104912407696247
0.0116644110530614
0.012764535844326
0.013777133077383
0.0146908983588218
0.0154948597773909
0.0161741655319929
0.0167042575776577
0.0170452389866113
0.0171413123607635
0.01692845672369
0.0163474511355161
0.015356533229351
0.0139407301321625
0.0121176522225141
0.0099400896579027
0.0074945343658328
0.0048931902274489
0.0022596344351768
-0.0002866126596927
-0.0026408853009343
-0.0047186259180307
-0.0064574405550956
-0.007817693054676
-0.0087829008698463
-0.0093600507825613
-0.0095776328817009
-0.0094814943149685
-0.0091305067762732
-0.0085906889289617
-0.0079274363815784
-0.0071984520182013
-0.0064482986927032
-0.0057041738182306
-0.0049731889739632
-0.0042434651404619
-0.0034910393878817
-0.0026890775188803
-0.0018140515312552
-0.0008486192673444
0.000216363929212
0.0013795439153909
0.0026269732043147
0.0039330730214715
0.005266182590276
0.006594805046916
0.007890235632658
0.0091261966153979
0.0102786496281623
0.0113276783376932
0.0122610051184892
0.0130760632455348
0.0137763526290655
0.0143618434667587
0.0148185398429632
0.0151119362562894
0.0151859363541007
0.0149679239839315
0.014380419626832
0.0133578684180974
0.0118646947667002
0.00990866497159
0.007544208317995
0.0048656477592885
0.0019947839900851
-0.0009331938927061
-0.0037833130918443
-0.0064322166144847
-0.0087764728814363
-0.0107381837442517
-0.0122682219371199
-0.013347347266972
-0.0139849064871668
-0.0142148761078715
-0.0140906618908047
-0.0136786978691816
-0.0130500281229615
-0.0122719435021281
-0.0114019997417926
-0.0104843061417341
-0.0095472764223814
-0.0086033577099442
-0.007651824504137
-0.0066835666075348
-0.0056854332797229
-0.0046438281424343
-0.0035484468098729
-0.0023952890187501
-0.0011874776100739
6.613093137275428e-05
0.001353031839244
0.0026581010315567
0.003963254392147
0.0052473708055913
0.0064876433461904
0.0076616997830569
0.0087501341477036
0.0097383167594671
0.0106152268126606
0.0113691352307796
0.0119814723730087
0.0124207716435194
0.0126394880935549
0.0125751998275518
0.0121569447219371
0.011317279189825
0.0100077763199806
0.0082129854708909
0.0059590600430965
0.0033156033605337
0.0003894129768013
-0.0026884796097874
-0.0057776630856096
-0.0087420251220464
-0.0114610753953456
-0.0138377463445067
-0.0158018246293067
-0.0173103939741849
-0.0183474086225032
-0.0189218409359455
-0.0190643779933452
-0.018823429942131
-0.0182595066726207
-0.0174383912235498
-0.0164254605770111
-0.0152816995978355
-0.0140599142760038
-0.0128002855926752
-0.0115267429500818
-0.0102466586977243
-0.008954775519669
-0.0076388586312532
-0.0062842741608619
-0.0048781693913042
-0.0034134602174162
-0.0018904691096395
-0.0003169234842061
0.0012917891144752
0.0029132119379937
0.0045198234729468
0.0060817613266408
0.0075703328475356
0.0089611858129501
0.0102358367294073
0.0113818645477294
0.0123922917991876
0.0132631734013557
0.013987049460411
0.0145425144582986
0.0148856909945607
0.0149502260610461
0.0146569199860095
0.0139286378398537
0.0127067472785711
0.0109674967825412
0.0087331421673297
0.0060724206268787
0.0030926512554287
-7.160007953643799e-05
-0.0032716756686568
-0.0063586430624127
-0.00919646397233
-0.0116728721186518
-0.0137053923681378
-0.0152425989508628
-0.0162635296583175
-0.0167760476469993
-0.0168132446706295
-0.0164288152009248
-0.015691889449954
-0.0146804861724376
-0.0134742856025695
-0.0121476184576749
-0.0107627175748348
-0.0093649076297879
-0.0079814111813902
-0.0066227568313479
-0.0052860756404697
-0.0039601251482963
-0.0026301483158022
-0.0012818970717489
9.445939213037492e-05
0.0015014745295047
0.0029334486462175
0.0043768812902271
0.0058122603222727
0.0072172586806118
0.0085701867938041
0.0098521392792463
0.0110484566539525
0.0121503546833992
0.0131546799093484
0.0140613969415426
0.0148707740008831
0.0155790196731686
0.0161708369851112
0.0166123006492853
0.0168483331799507
0.0168059580028057
0.0164030846208333
0.0155622446909546
0.0142266871407628
0.0123744225129485
0.0100268023088574
0.0072504580020904
0.0041526602581143
0.0008699623867869
-0.002448963932693
-0.0056610517203807
-0.0086405985057353
-0.011284502223134
-0.0135151203721761
-0.0152823580428957
-0.0165637284517288
-0.0173623226583004
-0.0177045781165361
-0.0176377594470977
-0.0172244701534509
-0.0165348686277866
-0.0156398303806781
-0.0146052176132798
-0.0134864235296845
-0.012324595823884
-0.0111456513404846
-0.0099615193903446
-0.0087724989280104
-0.0075703631155192
-0.0063425907865166
-0.0050769415684044
-0.0037647224962711
-0.0024022441357374
-0.0009915316477417
0.0004587369039654
0.0019330875948071
0.0034104082733392
0.0048656249418854
0.0062724794261157
0.0076068402267992
0.0088482638821005
0.0099804904311895
0.0109928464516997
0.0118814157322049
0.0126478839665651
0.0132961086928844
0.0138267716392874
0.0142300883308053
0.0144788799807429
0.0145257925614714
0.0143068069592118
0.013750965707004
0.0127944536507129
0.0113955130800604
0.0095464158803224
0.0072788363322615
0.0046612052246928
0.0017909025773406
-0.0012155408039689
-0.0042333966121077
-0.0071407631039619
-0.0098281698301434
-0.0122057162225246
-0.0142070036381483
-0.015790220350027
-0.0169382467865943
-0.0176583416759967
-0.0179800689220428
-0.0179506726562976
-0.0176280923187732
-0.0170730352401733
-0.0163421500474214
-0.0154836513102054
-0.0145355965942144
-0.0135254226624965
-0.0124695841223001
-0.0113733215257525
-0.0102325044572353
-0.0090390723198652
-0.007787303533405
-0.006477469112724
-0.0051167178899049
-0.0037182583473622
-0.0022993034217506
-0.0008785459212958
0.0005257599987089
0.0018968670628964
0.0032203374430537
0.0044845747761428
0.0056807245127856
0.0068029258400201
0.0078492071479558
0.0088209901005029
0.0097207156941294
0.0105489669367671
0.0113018900156021
0.0119692413136363
0.0125321000814437
0.0129600670188665
0.0132097993046045
0.0132261021062731
0.0129460813477635
0.0123080564662814
0.0112653747200965
0.0097995959222316
0.007927905768156
0.0057049398310482
0.0032189069315791
0.0005817301571369
-0.0020848233252763
-0.0046635339967906
-0.0070522036403417
-0.0091683380305767
-0.0109499776735901
-0.0123551804572343
-0.0133619606494903
-0.0139689026400446
-0.0141948275268077
-0.0140762906521558
-0.0136632695794105
-0.0130138639360666
-0.0121882436797022
-0.0112420497462153
-0.0102210082113742
-0.009158220142126
-0.0080737955868244
-0.0069761690683662
-0.0058644204400479
-0.0047315112315118
-0.0035689212381839
-0.0023714173585176
-0.001139675732702
0.0001199605176225
0.0013971908483654
0.0026788089890033
0.0039489497430622
0.0051900432445108
0.006384965032339
0.0075198030099272
0.0085859047248959
0.0095796333625912
0.0104998862370848
0.011345824226737
0.0121170990169048
0.0128153041005134
0.0134436562657356
0.0140039036050438
0.0144910523667931
0.0148870619013905
0.0151563994586467
0.0152470674365758
0.0150974057614803
0.0146456379443407
0.0138402916491031
0.0126506369560956
0.0110748764127492
0.009144676849246
0.0069248839281499
0.004506567493081
0.0019949870184063
-0.0005025491118431
-0.0028853835538029
-0.0050655356608331
-0.0069728465750813
-0.0085585005581378
-0.0097967330366373
-0.0106849586591124
-0.0112406043335795
-0.0114950537681579
-0.0114881303161382
-0.0112645225599408
-0.0108707528561353
-0.0103514529764652
-0.0097451042383909
-0.0090805701911449
-0.0083763813599944
-0.0076428675092756
-0.0068843187764286
-0.0060999179258942
-0.0052851671352982
-0.0044339401647448
-0.0035401517525315
-0.0025998828932642
-0.0016138153150677
-0.0005881085526198
0.0004665737506002
0.0015361420810222
0.002603534143418
0.0036498857662081
0.0046569961123168
0.0056098964996635
0.006497950758785
0.0073142675682902
0.0080547397956252
0.0087171653285622
0.0092997681349515
0.0097978012636303
0.0101977903395891
0.0104727009311318
0.0105818035081028
0.0104748960584402
0.0100991353392601
0.0094080809503793
0.0083730081096291
0.0069934427738189
0.0053012161515653
0.0033572446554899
0.0012450993526726
-0.0009370457846671
-0.0030869606416672
-0.0051097702234983
-0.0069260862655937
-0.0084756556898355
-0.0097196185961365
-0.0106420367956161
-0.0112476237118244
-0.0115568842738866
-0.0116021027788519
-0.0114233549684286
-0.0110645154491066
-0.0105704814195632
-0.0099837174639105
-0.0093394285067915
-0.0086621567606925
-0.0079654389992356
-0.0072531346231698
-0.0065213222987949
-0.0057612443342804
-0.0049631060101091
-0.0041189296171069
-0.0032235230319201
-0.002275220118463
-0.0012771794572472
-0.0002381356898695
0.0008278517052531
0.0019028794486075
0.0029681022278964
0.0040065241046249
0.005003738682717
0.0059474203735589
0.0068274224177002
0.0076360665261745
0.008367583155632
0.0090169142931699
0.0095769129693508
0.0100326472893357
0.0103553850203752
0.0105001088231801
0.0104083884507417
0.0100174257531762
0.0092738643288612
0.0081474585458636
0.0066393436864018
0.0047839498147368
0.0026465046685189
0.0003168002876918
-0.0021002495195716
-0.0044959266670048
-0.0067695747129619
-0.0088376710191369
-0.0106366742402315
-0.0121223805472254
-0.013270441442728
-0.0140762161463499
-0.014551430940628
-0.014719633385539
-0.0146122220903635
-0.0142655447125434
-0.0137192169204354
-0.0130146043375134
-0.0121920779347419
-0.0112873995676636
-0.0103285619989037
-0.0093338508158922
-0.0083113443106412
-0.0072598955594003
-0.006172327324748
-0.0050400365144014
-0.003855463117361
-0.0026117991656064
-0.0013041291385889
6.604474037885666e-05
0.0014869514852762
0.0029374798759818
0.0043917275033891
0.0058232680894434
0.0072077033109962
0.0085246814414858
0.0097594494000077
0.0109029654413461
0.0119506306946277
0.0129000563174486
0.0137472273781895
0.0144804762676358
0.0150743499398231
0.0154870124533772
0.0156617984175682
0.0155322216451168
0.0150319542735815
0.0141093451529741
0.0127414427697658
0.0109416078776121
0.0087588028982281
0.0062718675471842
0.0035814018920063
0.0007989746518433
-0.001964190043509
-0.0046055070124566
-0.0070359078235924
-0.0091821681708097
-0.0109877558425068
-0.0124138407409191
-0.0134411556646227
-0.014071375131607
-0.0143251828849315
-0.0142370481044054
-0.0138507355004549
-0.0132166109979152
-0.0123876584693789
-0.0114134484902024
-0.0103344274684786
-0.0091792521998286
-0.0079658916220068
-0.0067035872489213
-0.0053939232602715
-0.0040330998599529
-0.0026163095608353
-0.0011417837813496
0.0003873473033308
0.0019626952707767
0.0035704402253031
0.005191477946937
0.0068031316623091
0.00838178768754
0.0099046099931001
0.0113511439412832
0.0127059044316411
0.0139599619433283
0.0151093769818544
0.0161528196185827
0.0170913804322481
0.0179275926202535
0.0186602119356393
0.0192772094160318
0.0197499878704547
0.0200291853398084
0.0200441572815179
0.0197103098034858
0.0189442299306392
0.0176811218261718
0.0158893577754497
0.0135799190029501
0.0108093991875648
0.0076753417961299
0.0043045398779213
0.0008374359458684
-0.0025868718512356
-0.0058415695093572
-0.0088183227926492
-0.0114298062399029
-0.0136108007282018
-0.0153199899941682
-0.0165411215275526
-0.0172812361270189
-0.0175674278289079
-0.0174438171088695
-0.0169675257056951
-0.0162025205790996
-0.0152128050103783
-0.0140571594238281
-0.0127856526523828
-0.0114370370283722
-0.0100369965657591
-0.0085984114557504
-0.0071238297969102
-0.0056087300181388
-0.0040452647954225
-0.0024264743551611
-0.0007498227059841
0.0009804228320717
0.0027525867335498
0.0045487540774047
0.006345737259835
0.0081160673871636
0.0098309386521577
0.0114636095240712
0.0129910456016659
0.0143948718905448
0.0156632177531719
0.0167923420667648
0.0177856665104627
0.018650084733963
0.0193912386894226
0.0200077071785926
0.0204830821603536
0.0207783840596675
0.0208297632634639
0.020553920418024
0.0198603644967079
0.0186680816113948
0.0169229824095964
0.0146119594573974
0.0117698637768626
0.0084772696718573
0.0048510171473026
0.0010317179840058
-0.0028295435477048
-0.006584099959582
-0.0100975465029478
-0.0132584422826766
-0.0159812420606613
-0.0182065069675445
-0.0199012551456689
-0.0210577454417943
-0.0216909870505332
-0.0218360312283039
-0.0215438939630985
-0.0208770353347063
-0.0199060905724763
-0.01870559155941
-0.0173465870320796
-0.0158886834979057
-0.0143747702240943
-0.0128292320296168
-0.0112596321851015
-0.0096619250252842
-0.0080272490158677
-0.0063475812785327
-0.0046196421608328
-0.0028469727840274
-0.0010401252657175
0.0007841620827093
0.0026044282130897
0.0043970835395157
0.006140065845102
0.0078155510127544
0.009409861639142
0.0109122022986412
0.0123144928365945
0.0136115085333585
0.0148002989590168
0.0158795416355133
0.0168488286435604
0.0177070461213588
0.0184481758624315
0.0190534703433513
0.0194834731519222
0.0196754094213247
0.0195478796958923
0.0190117359161376
0.0179852712899446
0.0164110474288463
0.0142706017941236
0.011592405848205
0.0084515241906046
0.0049633793532848
0.0012722201645374
-0.0024652490392327
-0.0060964184813201
-0.0094855139032006
-0.0125223062932491
-0.0151266222819685
-0.0172482468187809
-0.0188638493418693
-0.019973125308752
-0.0205954797565937
-0.0207680128514766
-0.0205446183681488
-0.019993856549263
-0.0191923305392265
-0.0182140674442052
-0.0171202700585126
-0.0159533470869064
-0.014736657962203
-0.013478728942573
-0.0121788829565048
-0.0108322240412235
-0.0094337742775678
-0.0079810572788119
-0.0064751203171908
-0.0049213757738471
-0.0033301478251814
-0.0017162743024528
-9.797373786568642e-05
0.001504398882389
0.0030694585293531
0.0045765051618218
0.0060078068636357
0.0073500107973814
0.0085942894220352
0.0097361449152231
0.010775152593851
0.0117137851193547
0.0125544052571058
0.0132953701540827
0.0139270946383476
0.0144260404631495
0.0147482324391603
0.0148289995267987
0.0145913688465952
0.0139590194448828
0.0128699988126754
0.0112904906272888
0.0092260334640741
0.0067248120903968
0.0038722800090909
0.0007815612480044
-0.002417080104351
-0.0055876038968563
-0.0086002880707383
-0.0113421333953738
-0.013723200187087
-0.0156794153153896
-0.0171738024801015
-0.0181966926902532
-0.0187639817595481
-0.018913634121418
-0.0187008678913116
-0.0181909576058387
-0.017450863495469
-0.0165433958172798
-0.0155240437015891
-0.01443712413311
-0.0133116599172353
-0.0121610090136528
-0.0109869707375764
-0.0097851697355508
-0.0085491202771663
-0.0072729922831058
-0.0059536434710025
-0.0045915963128209
-0.0031910282559692
-0.0017597423866391
-0.0003101639449596
0.0011396445333957
0.00256761116907
0.0039512855000793
0.0052703907713294
0.0065084462985396
0.0076545076444745
0.0087035950273275
0.0096552586182951
0.010510180145502
0.0112639535218477
0.0119004715234041
0.012387684546411
0.0126752983778715
0.0126964785158634
0.0123766139149665
0.0116470418870449
0.0104602091014385
0.0088029997423291
0.0067034931853413
0.0042294999584555
0.0014809360727667
-0.0014220685698091
-0.0043523362837731
-0.0071869161911308
-0.0098152970895171
-0.0121442843228578
-0.0141008961945772
-0.0156350173056125
-0.016721274703741
-0.0173585005104541
-0.0175670068711042
-0.017385508865118
-0.0168676357716321
-0.0160763747990131
-0.0150767974555492
-0.0139289069920778
-0.0126825515180826
-0.0113760661333799
-0.0100376419723033
-0.008685746230185
-0.007327816914767
-0.0059609990566968
-0.0045768609270453
-0.0031666103750467
-0.0017231854144483
-0.0002419902011752
0.0012773226480931
0.0028290697373449
0.0044005066156387
0.0059724049642682
0.0075220549479126
0.0090268440544605
0.0104663148522377
0.0118225393816828
0.0130800586193799
0.0142267690971493
0.0152556914836168
0.0161652751266956
0.0169554073363542
0.0176197495311498
0.0181385558098554
0.01847530528903
0.0185775719583034
0.0183813460171222
0.0178192444145679
0.0168335139751434
0.0153905544430017
0.0134913483634591
0.0111747272312641
0.008513537235558
0.0056068510748445
0.0025706444866955
-0.00047328020446
-0.0034084767103195
-0.0061326334252953
-0.0085630062967538
-0.0106381317600607
-0.012316814623773
-0.0135763427242636
-0.0144117092713713
-0.0148359229788184
-0.0148785151541233
-0.0145811885595321
-0.0139932967722415
-0.0131686646491289
-0.0121629405766725
-0.0110303303226828
-0.0098188277333974
-0.0085648475214838
-0.0072904387488961
-0.0060046757571399
-0.0047071781009435
-0.0033917417749762
-0.002050198148936
-0.0006760959513485
0.0007329550571739
0.0021742756944149
0.0036396286450326
0.0051146321929991
0.006578748114407
0.0080070681869983
0.0093733733519911
0.0106535805389285
0.0118293324485421
0.0128898210823535
0.0138305556029081
0.0146517381072044
0.0153576266020536
0.0159538201987743
0.016441348940134
0.0168100353330373
0.0170330423861742
0.0170641671866178
0.0168399419635534
0.0162876341491937
0.0153388818725943
0.0139462118968367
0.0120967356488108
0.0098185651004314
0.0071790679357945
0.0042763990350067
0.0012275401968508
-0.0018441663123667
-0.0048203831538558
-0.007596687413752
-0.0100877387449145
-0.0122282523661851
-0.0139721594750881
-0.0152928018942475
-0.0161839369684457
-0.016660364344716
-0.0167561825364828
-0.0165193416178226
-0.0160051379352808
-0.0152707556262612
-0.0143701238557696
-0.0133487349376082
-0.0122404731810092
-0.0110680637881159
-0.0098451552912592
-0.0085783479735255
-0.0072696497663855
-0.0059191556647419
-0.0045275473967194
-0.0030977115966379
-0.0016351649537682
-0.0001481811050325
0.0013518125051632
0.0028499588370323
0.0043288776651024
0.0057706572115421
0.0071577858179807
0.0084726149216294
0.0096981665119528
0.0108207026496529
0.011831447482109
0.012726804241538
0.0135073196142911
0.0141745069995522
0.0147252669557929
0.0151453679427504
0.0154046937823295
0.0154562685638666
0.0152393849566578
0.0146877709776163
0.013742871582508
0.0123681714758276
0.0105594098567962
0.0083493646234273
0.0058075543493032
0.0030336186755448
0.0001450553536415
-0.0027367945294827
-0.0054983245208859
-0.0080409031361341
-0.0102851269766688
-0.0121730901300907
-0.0136685818433761
-0.0147563200443983
-0.0154405804350972
-0.015742965042591
-0.0156996268779039
-0.0153577821329236
-0.0147714205086231
-0.0139965703710913
-0.013086462393403
-0.01208705175668
-0.0110335648059844
-0.0099487043917179
-0.0088430102914571
-0.0077171623706817
-0.0065653203055262
-0.0053788707591593
-0.0041501959785819
-0.0028756980318576
-0.0015573240816593
-0.0002028042217716
0.0011747652897611
0.0025578932836651
0.0039262194186449
0.0052582011558115
0.0065329344943165
0.0077323270961642
0.0088432431221008
0.0098592564463615
0.0107809631153941
0.0116131557151675
0.0123596712946891
0.0130173405632376
0.0135687813162803
0.0139767257496714
0.0141843548044562
0.0141223305836319
0.0137205542996525
0.0129219563677906
0.0116951083764433
0.0100429058074951
0.008005604147911
0.0056585394777357
0.0031051971018314
0.000464912969619
-0.0021419343538582
-0.0046048569492995
-0.0068292506039142
-0.0087410155683755
-0.0102900387719273
-0.0114516746252775
-0.0122269596904516
-0.0126405116170644
-0.0127351442351937
-0.0125644281506538
-0.0121848424896597
-0.0116489706560969
-0.0110011976212263
-0.0102765979245305
-0.0095015056431293
-0.0086929332464933
-0.0078572994098067
-0.0069919303059577
-0.0060897124931216
-0.0051436210051178
-0.0041488450951874
-0.0031036743894219
-0.0020108700264245
-0.0008785446407273
0.0002802722738124
0.0014488571323454
0.002608987269923
0.0037431600503623
0.0048351818695664
0.0058699799701571
0.0068340236321091
0.0077160550281405
0.0085069006308913
0.0091961892321705
0.0097656985744833
0.010184047743678
0.0104067558422684
0.010380221530795
0.0100483335554599
0.0093623008579015
0.0082918629050254
0.0068344697356224
0.0050199832767248
0.0029093106277287
0.0005872473120689
-0.0018474326934665
-0.0042913192883133
-0.0066445567645132
-0.0088177472352981
-0.010735984891653
-0.0123404785990715
-0.0135893858969211
-0.0144578581675887
-0.0149387614801526
-0.0150452312082052
-0.0148114152252674
-0.01428824942559
-0.0135359978303313
-0.0126164183020591
-0.0115859191864728
-0.0104904863983392
-0.0093626640737056
-0.0082208914682269
-0.0070718033239245
-0.0059139127843081
-0.0047402763739228
-0.0035414537414908
-0.0023097265511751
-0.0010415699798613
0.0002623908221721
0.0015966969076544
0.0029493358451873
0.0043025026097893
0.0056361183524131
0.0069305291399359
0.0081671681255102
0.0093289129436016
0.0104014417156577
0.0113753890618681
0.0122473966330289
0.0130176525563001
0.013683401979506
0.0142304273322224
0.0146262776106596
0.0148189738392829
0.0147427348420023
0.0143296672031283
0.0135236205533146
0.0122919743880629
0.0106344195082783
0.0085874442011117
0.0062215700745582
0.0036327019333839
0.000931415008381
-0.0017679852899163
-0.0043570534326136
-0.0067400685511529
-0.0088379960507154
-0.0105903577059507
-0.011956337839365
-0.0129158003255724
-0.0134694930166006
-0.0136377420276403
-0.0134583748877048
-0.0129832550883293
-0.0122719565406441
-0.0113847320899367
-0.0103770121932029
-0.0092952093109488
-0.0081747490912675
-0.0070403572171926
-0.005906518548727
-0.0047776480205357
-0.0036490987986326
-0.0025100009515881
-0.0013473918661475
-0.0001499387435615
0.0010891461279243
0.0023697505239397
0.0036837412044405
0.005015910603106
0.0063463887199759
0.0076520619913935
0.0089070918038487
0.0100856972858309
0.011166950687766
0.0121378675103187
0.0129927368834614
0.0137304561212658
