bvp
-0.0711388289928436
-0.0737847462296485
-0.0756081119179725
-0.0764921978116035
-0.0763687118887901
-0.075217381119728
-0.0730682015419006
-0.0699982494115829
-0.066121719777584
-0.0615777820348739
-0.0565146505832672
-0.0510683581233024
-0.045346450060606
-0.039427887648344
-0.0333743467926979
-0.0272400826215744
-0.0210770964622497
-0.0149399545043706
-0.0088912975043058
-0.0030055567622184
0.0026314221322536
0.0079287644475698
0.0128022339195013
0.0171855799853801
0.0210357457399368
0.024331796914339
0.0270713567733764
0.0292670838534832
0.0309440419077873
0.0321398340165615
0.0329083129763603
0.0333240143954753
0.0334829203784465
0.0334963835775852
0.0334784127771854
0.0335312932729721
0.033734805881977
0.0341399833559989
0.0347665846347808
0.0356050804257392
0.0366237238049507
0.0377775803208351
0.0390158332884311
0.0402863658964633
0.0415385030210018
0.0427265428006649
0.0438138172030448
0.0447736904025077
0.0455878935754299
0.046244740486145
0.0467377118766307
0.0470636785030365
0.0472208671271801
0.0472085550427436
0.0470286309719085
0.0466872006654739
0.0461955443024635
0.0455709919333457
0.0448374710977077
0.0440238639712333
0.0431603714823722
0.0422755479812622
0.0413942150771617
0.040534570813179
0.0397041961550712
0.0388969890773296
0.0380921550095081
0.0372540764510631
0.0363322161138057
0.0352619402110576
0.0339684598147869
0.0323755405843257
0.0304172877222299
0.0280499048531055
0.0252617727965116
0.0220801867544651
0.0185726564377546
0.0148422997444868
0.011017145588994
0.007233515381813
0.0036182422190904
0.0002764965174719
-0.0027118269354104
-0.0052908156067132
-0.0074280025437474
-0.0091156680136919
-0.0103723825886845
-0.0112426923587918
-0.0117937363684177
-0.0121090346947312
-0.0122794155031442
-0.0123930824920535
-0.0125278048217296
-0.012744789943099
-0.0130835315212607
-0.0135598592460155
-0.0141683695837855
-0.0148870851844549
-0.0156822372227907
-0.0165128894150257
-0.017335407435894
-0.0181074365973472
-0.0187917333096265
-0.0193597376346588
-0.019793240353465
-0.0200843699276447
-0.0202354043722152
-0.0202580094337463
-0.0201714299619197
-0.020000671967864
-0.0197754316031932
-0.0195293650031089
-0.019300490617752
-0.0191342532634735
-0.0190872941166162
-0.0192277301102876
-0.0196313001215457
-0.0203754715621471
-0.0215311925858259
-0.0231511779129505
-0.0252564363181591
-0.0278247408568859
-0.0307852365076541
-0.0340211689472198
-0.0373785570263862
-0.0406785458326339
-0.0437336973845958
-0.0463673174381256
-0.0484309569001197
-0.0498164072632789
-0.0504641495645046
-0.0503667891025543
-0.0495620295405387
-0.0481175668537616
-0.0461145229637622
-0.0436333268880844
-0.0407455787062644
-0.0375110134482383
-0.0339762978255748
-0.0301753748208284
-0.0261319018900394
-0.0218633506447076
-0.0173851121217012
-0.0127120874822139
-0.0078567340970039
-0.0028245579451322
0.0023904033005237
0.0078061390668153
0.0134473731741309
0.0193342752754688
0.0254646968096494
0.0317945927381515
0.0382259935140609
0.0446077361702919
0.0507486574351787
0.0564406551420688
0.0614860206842422
0.0657200664281845
0.0690224841237068
0.0713179558515548
0.0725702345371246
0.0727748125791549
0.0719547122716903
0.0701594427227974
0.0674644857645034
0.0639702975749969
0.0598009899258613
0.0551012754440307
0.0500294044613838
0.0447473041713237
0.0394107326865196
0.0341598354279994
0.0291107334196567
0.0243505276739597
0.019937228411436
0.0159028489142656
0.0122567946091294
0.008988993242383
0.0060728834941983
0.0034682098776102
0.0011252602562308
-0.0010086558759212
-0.0029822890646755
-0.0048346761614084
-0.006591108161956
-0.0082619646564126
-0.0098436912521719
-0.0113207325339317
-0.0126700829714536
-0.0138679193332791
-0.0148951131850481
-0.0157401878386735
-0.0163994636386632
-0.0168757382780313
-0.0171781834214925
-0.0173228494822978
-0.0173308309167623
-0.0172250382602214
-0.0170283522456884
-0.0167620815336704
-0.0164444167166948
-0.0160918775945901
-0.0157249737530946
-0.0153758823871612
-0.0150941023603081
-0.0149460034444928
-0.015006598085165
-0.0153464265167713
-0.016018196940422
-0.0170447919517755
-0.0184103604406118
-0.0200579352676868
-0.0218945406377315
-0.0238027777522802
-0.025656210258603
-0.0273339040577411
-0.0287318751215934
-0.0297715459018945
-0.0304044187068939
-0.0306127332150936
-0.0304071381688117
-0.0298225190490484
-0.028913116082549
-0.0277468971908092
-0.0263977497816085
-0.0249365083873271
-0.0234238170087337
-0.0219060145318508
-0.0204137600958347
-0.018962824717164
-0.0175562314689159
-0.0161865651607513
-0.0148376766592264
-0.0134866191074252
-0.0121078770607709
-0.01068024802953
-0.0091927601024508
-0.0076454547233879
-0.006045950576663
-0.0044065527617931
-0.0027436260133981
-0.0010768282227218
0.0005731456913053
0.0021862140856683
0.0037406920455396
0.0052067274227738
0.006539087742567
0.0076743294484913
0.0085349846631288
0.0090403528884053
0.0091218277812004
0.0087387971580028
0.0078897001221776
0.0066159833222627
0.0050006387755274
0.0031609251163899
0.0012341775000095
-0.0006395652890205
-0.0023330366238951
-0.0037426128983497
-0.0047933291643857
-0.005439574830234
-0.0056645181030035
-0.0054785441607236
-0.0049154674634337
-0.0040269363671541
-0.0028763562440872
-0.0015331823378801
-6.744824349880219e-05
0.0014558658003807
0.0029821144416928
0.0044703669846057
0.0058940770104527
0.0072409510612487
0.0085130278021097
0.0097247855737805
0.0108988406136631
0.0120604652911424
0.0132312094792723
0.014423556625843
0.0156393926590681
0.0168718751519918
0.0181082412600517
0.0193321760743856
0.0205256082117557
0.0216703657060861
0.0227495077997446
0.0237468834966421
0.0246440283954143
0.0254147015511989
0.0260182470083236
0.0263948030769824
0.0264661442488431
0.0261440798640251
0.0253454763442277
0.0240104235708713
0.0221185609698295
0.019699515774846
0.0168352480977773
0.0136531824246048
0.010311254300177
0.0069785672239959
0.0038159433752298
0.0009597726166248
-0.0014882637187838
-0.0034647257998585
-0.0049429479986429
-0.0059284837916493
-0.0064523946493864
-0.0065644308924674
-0.0063277231529355
-0.0058135138824582
-0.0050950339064002
-0.0042426418513059
-0.0033203894272446
-0.0023817643523216
-0.0014660451561212
-0.0005977526307106
0.0002126032486557
0.000967897940427
0.0016818195581436
0.0023737233132123
0.003063267096877
0.0037664247211068
0.0044929087162017
0.0052450844086706
0.0060181366279721
0.0068009458482265
0.0075776856392621
0.0083302399143576
0.0090410728007555
0.0096953567117452
0.0102816801518201
0.0107919164001941
0.0112193077802658
0.0115528004243969
0.0117681743577122
0.0118196830153465
0.0116382539272308
0.0111399628221988
0.0102418521419167
0.0088795870542526
0.0070235431194305
0.0046901060268282
0.0019448227249085
-0.0011029844172298
-0.004312609322369
-0.007529241964221
-0.0106008937582373
-0.0133906472474336
-0.0157857425510883
-0.0177054740488529
-0.0191057547926902
-0.019977631047368
-0.0203414596617221
-0.020240755751729
-0.0197363123297691
-0.0189005639404058
-0.0178134255111217
-0.0165571421384811
-0.0152081418782472
-0.013829993084073
-0.01246955152601
-0.0111543927341699
-0.0098924878984689
-0.0086766965687274
-0.0074923736974596
-0.0063229575753211
-0.0051519889384508
-0.0039648618549108
-0.0027522707823663
-0.0015127956867218
-0.0002518706023693
0.0010201325640082
0.0022871200926601
0.0035268762148916
0.0047145881690084
0.0058276639319956
0.0068491273559629
0.0077696205116808
0.0085864206776022
0.0092987678945064
0.0099013671278953
0.0103768799453973
0.0106889931485056
0.0107797365635633
0.0105743259191513
0.0099943280220031
0.0089755170047283
0.0074840225279331
0.0055271694436669
0.0031588710844516
0.000478534027934
-0.0023782672360539
-0.005256398115307
-0.008000467903912
-0.0104717323556542
-0.0125602791085839
-0.0141917392611503
-0.015328299254179
-0.0159653704613447
-0.0161262564361095
-0.015856659039855
-0.0152186267077922
-0.0142836263403296
-0.0131265539675951
-0.0118209589272737
-0.010434903204441
-0.0090280678123235
-0.0076485006138682
-0.0063288970850408
-0.0050859013572335
-0.0039220680482685
-0.002827521180734
-0.0017824682872742
-0.0007630595937371
0.0002513886429369
0.0012743696570396
0.0023115631192922
0.0033607934601604
0.0044127842411398
0.0054527958855032
0.0064621311612427
0.0074206152930855
0.0083097526803612
0.0091146938502788
0.0098249120637774
0.0104338582605123
0.0109370276331901
0.0113273225724697
0.01158750616014
0.0116828661412
0.0115591492503881
0.0111482962965965
0.0103815849870443
0.0092076389119029
0.007609006948769
0.0056112259626388
0.0032832995057106
0.0007307166233658
-0.0019174427725374
-0.0045238030143082
-0.0069565195590257
-0.0091006141155958
-0.0108670564368367
-0.0121982535347342
-0.0130693335086107
-0.0134867895394563
-0.0134855154901742
-0.0131235979497432
-0.0124747352674603
-0.0116191217675805
-0.0106335021555423
-0.0095831658691167
-0.0085191400721669
-0.0074783330783247
-0.0064829587936401
-0.0055399206466972
-0.0046425452455878
-0.0037747789174318
-0.0029151863418519
-0.0020404243841767
-0.0011306088417768
-0.0001749810762703
0.0008263066411018
0.0018645492382347
0.0029255806002765
0.0039911214262247
0.0050393543206155
0.0060463640838861
0.0069883926771581
0.0078450366854667
0.008602543734014
0.0092528313398361
0.0097851920872926
0.0101758185774087
0.0103831086307764
0.0103501360863447
0.0100117661058902
0.0093064028769731
0.0081923678517341
0.0066635375842452
0.0047578774392604
0.002557132858783
0.0001783119514584
-0.0022415667772293
-0.0045637395232915
-0.0066642984747886
-0.0084463814273476
-0.0098462384194135
-0.0108329625800251
-0.0114050051197409
-0.0115859936922788
-0.0114201456308364
-0.0109672369435429
-0.0102961352095007
-0.0094771161675453
-0.0085754320025444
-0.007646863348782
-0.0067343628033995
-0.0058665433898568
-0.0050582699477672
-0.0043109953403472
-0.0036125695332884
-0.0029400372877717
-0.0022660279646515
-0.0015647551044821
-0.0008156705880537
-6.509013473987579e-06
0.0008641429012641
0.0017868645954877
0.0027438944671303
0.0037120699416846
0.0046657714992761
0.0055805328302085
0.0064364597201347
0.0072193988598883
0.0079196318984031
0.0085294321179389
0.0090382955968379
0.0094246007502079
0.0096480036154389
0.0096487505361437
0.0093562360852956
0.008704837411642
0.0076515628024935
0.0061895698308944
0.0043544969521462
0.0022230485919862
-9.584124200046062e-05
-0.0024747126735746
-0.0047818208113312
-0.006894439458847
-0.0087109496816992
-0.0101594468578696
-0.0112010817974805
-0.0118278199806809
-0.0120570370927453
-0.0119264163076877
-0.0114890960976481
-0.0108080608770251
-0.0099500017240643
-0.0089788166806101
-0.0079497564584016
-0.0069056362845003
-0.0058753788471221
-0.0048741772770881
-0.0039046967867761
-0.0029601322021335
-0.0020286722574383
-0.0010966712143272
-0.0001505562104284
0.0008209545630961
0.001824393402785
0.0028595705516636
0.0039193630218505
0.0049914405681192
0.006060916930437
0.0071125705726444
0.0081313792616128
0.0091024963185191
0.0100113805383443
0.0108435209840536
0.0115850083529949
0.0122221689671278
0.012735828757286
0.0130928475409746
0.0132423117756843
0.0131189860403537
0.0126533834263682
0.0117869572713971
0.0104878274723887
0.0087620075792074
0.0066572590731084
0.0042589735239744
0.0016808357322588
-0.0009471630910411
-0.003493049647659
-0.005837875418365
-0.0078870467841625
-0.009574657306075
-0.0108627825975418
-0.0117396041750907
-0.0122165065258741
-0.012323260307312
-0.0121030891314148
-0.0116094639524817
-0.0109028704464435
-0.0100449388846755
-0.0090914843603968
-0.0080881705507636
-0.0070693069137632
-0.0060574328526854
-0.0050630872137844
-0.0040861954912543
-0.003118434920907
-0.0021456507965922
-0.0011516958475112
-0.000123081728816
0.0009479308500885
0.0020612450316548
0.0032082316465675
0.0043747574090957
0.0055454256944358
0.0067047425545752
0.0078363744542002
0.0089238630607724
0.0099524315446615
0.0109095871448516
0.0117847546935081
0.0125687345862388
0.0132505875080823
0.0138106141239404
0.0142133068293333
0.0144043061882257
0.014313269406557
0.0138644129037857
0.0129936169832944
0.0116660762578248
0.0098876124247908
0.0077075622975826
0.0052149835973978
0.0025291729252785
-0.0002143629826605
-0.0028797131963074
-0.0053447121754288
-0.0075105754658579
-0.0093060536310076
-0.0106876855716109
-0.0116389244794845
-0.0121684065088629
-0.0123063810169696
-0.0121005121618509
-0.0116113629192113
-0.010906521230936
-0.0100539764389395
-0.0091153783723711
-0.0081396913155913
-0.0071589280851185
-0.0061873611994087
-0.0052246078848838
-0.0042617544531822
-0.003287408966571
-0.0022909468971192
-0.0012636287137866
-0.0001998064108192
0.0009012073278427
0.0020336064044386
0.0031847378704696
0.0043367315083742
0.0054699000902473
0.0065654795616865
0.0076067438349127
0.0085801146924495
0.0094763841480016
0.0102905677631497
0.0110205840319395
0.0116662075743079
0.0122264754027128
0.0126922763884067
0.0130365807563066
0.0132088456302881
0.0131379179656505
0.0127432541921734
0.0119508160278201
0.0107099618762731
0.0090082474052906
0.0068794358521699
0.0044013643637299
0.0016858206363394
-0.0011354929301887
-0.0039257439784705
-0.0065559018403291
-0.0089154001325368
-0.0109204016625881
-0.0125175081193447
-0.0136827304959297
-0.0144189111888408
-0.014752703718841
-0.0147299077361822
-0.0144092896953225
-0.0138559769839048
-0.0131354462355375
-0.01230856962502
-0.0114273922517895
-0.0105314385145902
-0.0096454145386815
-0.008778715506196
-0.0079264398664236
-0.0070727551355957
-0.0061962860636413
-0.0052750976756215
-0.0042906417511403
-0.0032314013224095
-0.0020957055967301
-0.0008923867717385
0.0003609862178564
0.0016409058589488
0.0029209812637418
0.0041754152625799
0.0053824540227651
0.0065265418961644
0.0075981649570167
0.0085922814905643
0.0095048304647207
0.0103245293721556
0.0110222175717353
0.0115455370396375
0.0118235703557729
0.0117787420749664
0.0113412840291857
0.0104639381170272
0.0091350423172116
0.0073871854692697
0.005297633819282
0.0029787402600049
0.0005627748905681
-0.0018130748067051
-0.0040199472568929
-0.0059483051300048
-0.007515363395214
-0.0086691817268729
-0.009390297345817
-0.0096897073090076
-0.0096036121249198
-0.009188731200993
-0.0085181230679154
-0.0076730139553546
-0.0067312065511941
-0.0057576857507228
-0.0047998335212469
-0.0038861103821545
-0.0030270316638052
-0.0022175058256834
-0.0014400996733456
-0.0006696146447211
0.0001206118613481
0.0009523818735033
0.0018396667437627
0.0027891411446034
0.0038006419781595
0.0048658000305294
0.0059671266935765
0.0070801391266286
0.0081773661077022
0.0092321429401636
0.0102222887799143
0.0111323073506355
0.0119516383856534
0.0126689178869128
0.0132637927308678
0.013698648661375
0.0139143569394946
0.0138346320018172
0.0133789973333477
0.0124796405434608
0.0110977403819561
0.0092353969812393
0.0069406959228217
0.0043052798137068
0.0014536634553223
-0.0014732379931956
-0.0043343775905668
-0.0070017096586525
-0.0093699619174003
-0.011362200602889
-0.0129312220960855
-0.014057582244277
-0.0147453490644693
-0.0150181632488965
-0.0149167263880372
-0.0144955487921834
-0.0138180125504732
-0.012951610609889
-0.0119631942361593
-0.0109117804095149
-0.0098407557234168
-0.0087748058140277
-0.0077227442525327
-0.0066823102533817
-0.0056430771946907
-0.0045882454141974
-0.0034980161581188
-0.0023538647219538
-0.0011425194097682
0.0001402267371304
0.001487067900598
0.0028795856051146
0.0042913258075714
0.0056919199414551
0.0070507521741092
0.0083401380106806
0.0095383124426007
0.0106301754713058
0.0116034336388111
0.0124412719160318
0.0131139298900961
0.0135725364089012
0.0137497950345277
0.0135684898123145
0.0129544734954833
0.0118510257452726
0.0102334432303905
0.0081209484487771
0.0055807558819651
0.0027215187437832
-0.0003214091993868
-0.0034025036729872
-0.0063799698837101
-0.0091271232813596
-0.0115410462021827
-0.0135470330715179
-0.0150988567620515
-0.0161768309772014
-0.0167859941720962
-0.0169542841613292
-0.0167287047952413
-0.0161690153181552
-0.0153413172811269
-0.0143136037513613
-0.013151055201888
-0.0119097055867314
-0.0106315156444907
-0.009343241341412
-0.0080582657828927
-0.0067792725749313
-0.0055008507333695
-0.0042126257903873
-0.0029029319994151
-0.0015623231884092
-0.0001867476385086
0.0012208577245473
0.0026520639657974
0.0040949517861008
0.0055336654186248
0.0069481832906603
0.008317538537085
0.0096234921365976
0.0108503624796867
0.0119840521365404
0.0130132604390382
0.0139279002323746
0.0147127620875835
0.0153407491743564
0.0157683119177818
0.015934582799673
0.0157663598656654
0.0151890786364674
0.0141412410885095
0.0125890532508492
0.0105379913002252
0.0080383773893117
0.0051837167702615
0.0021022777073085
-0.0010572099126875
-0.0041439775377511
-0.0070230131968855
-0.0095865000039339
-0.0117564974352717
-0.0134817436337471
-0.0147346220910549
-0.0155111141502857
-0.0158305056393146
-0.015731630846858
-0.0152677437290549
-0.0145022487267851
-0.0135036380961537
-0.0123394485563039
-0.0110712805762887
-0.0097513329237699
-0.0084201730787754
-0.0071052047424018
-0.0058192783035337
-0.0045609176158905
-0.0033175558783113
-0.0020708262454718
-0.0008026296272873
0.0004996308125555
0.0018400753615424
0.0032137832604348
0.0046082427725195
0.0060051744803786
0.0073824105784296
0.0087176654487848
0.0099922772496938
0.0111911566928029
0.0123005462810397
0.0133077912032604
0.0142031926661729
0.0149803077802062
0.0156319141387939
0.0161421932280063
0.0164785459637641
0.0165877658873796
0.0163995381444692
0.0158364381641149
0.0148281222209334
0.0133269922807812
0.0113219777122139
0.0088473735377192
0.0059842295013368
0.0028523821383714
-0.0004053646698594
-0.0036408968735486
-0.0067151417024433
-0.0095075853168964
-0.0119220791384577
-0.0138910710811614
-0.0153772607445716
-0.0163710229098796
-0.0168864820152521
-0.0169596467167139
-0.0166470892727375
-0.0160212907940149
-0.0151622062548995
-0.0141473300755023
-0.0130424052476882
-0.011895845644176
-0.0107381688430905
-0.0095833428204059
-0.0084306141361594
-0.007268235553056
-0.0060787457041442
-0.0048444271087646
-0.0035519150551408
-0.0021950569935142
-0.0007763095200061
0.0006924436893314
0.002191089792177
0.0036961955484002
0.0051863892003893
0.0066436943598091
0.0080515844747424
0.0093941250815987
0.0106581542640924
0.0118356123566627
0.0129221510142087
0.0139107704162597
0.0147823374718427
0.0154977459460496
0.0159960314631462
0.0161988995969295
0.0160212107002735
0.015387357212603
0.0142497457563877
0.0126036861911416
0.0104939546436071
0.0080101890489459
0.0052740857936441
0.0024240508209913
-0.0003999497275799
-0.0030691516585648
-0.0054744542576372
-0.0075313351117074
-0.0091825295239686
-0.010399168357253
-0.0111809829249978
-0.0115548223257064
-0.0115695847198367
-0.0112876696512103
-0.0107762105762958
-0.0101003553718328
-0.0093184625729918
-0.0084790680557489
-0.0076187178492546
-0.006760555319488
-0.0059148278087377
-0.0050803595222532
-0.004246954806149
-0.0034000447485595
-0.0025251880288124
-0.0016097542829811
-0.0006432651425711
0.000380938174203
0.0014623702736571
0.0025917687453329
0.0037532853893935
0.0049271481111645
0.0060908505693078
0.007221165113151
0.0082969106733798
0.0093006249517202
0.0102187627926468
0.0110385846346616
0.0117395129054784
0.0122825354337692
0.0126046817749738
0.0126224886626005
0.0122451074421405
0.0113938804715871
0.0100210979580879
0.0081221144646406
0.0057396120391786
0.0029609552584588
-9.054876863956451e-05
-0.0032693785615265
-0.0064236978068947
-0.0094100963324308
-0.0121054919436573
-0.0144155155867338
-0.0162785537540912
-0.0176651589572429
-0.0185740664601326
-0.0190273076295852
-0.0190662909299135
-0.018748065456748
-0.0181395169347524
-0.0173094999045133
-0.0163220483809709
-0.0152326384559273
-0.0140859214588999
-0.012912455946207
-0.0117253139615058
-0.0105204675346612
-0.0092828031629323
-0.0079944171011447
-0.0066407658159732
-0.0052136932499706
-0.0037124217487871
-0.0021436503157019
-0.0005215143319219
0.0011332125868648
0.0027956611011177
0.0044403662905097
0.0060441214591264
0.0075870677828788
0.0090518109500408
0.0104225277900695
0.0116857402026653
0.0128307901322841
0.0138467941433191
0.0147145800292491
0.0153963696211576
0.0158308688551187
0.0159386154264211
0.0156353749334812
0.0148484846577048
0.0135318906977772
0.0116779888048768
0.0093251476064324
0.0065582720562815
0.0035003335215151
0.0002967293839901
-0.002902059815824
-0.005954542197287
-0.0087379552423954
-0.0111546916887164
-0.0131353856995701
-0.014638939872384
-0.015651186928153
-0.0161826740950346
-0.0162650179117918
-0.0159469880163669
-0.015290574170649
-0.014364993199706
-0.013239188119769
-0.011975665576756
-0.0106263682246208
-0.0092304237186908
-0.0078144175931811
-0.0063936910592019
-0.0049728765152394
-0.003547366708517
-0.00210717972368
-0.000642254948616
0.0008529154583811
0.0023771496489644
0.0039227809756994
0.0054774601012468
0.007026394829154
0.0085530364885926
0.0100384857505559
0.0114617515355348
0.0128015773370862
0.0140393981710076
0.0151624903082847
0.0161646194756031
0.0170418825000524
0.01778544485569
0.0183736849576234
0.0187646150588989
0.0188923981040716
0.0186730977147817
0.0180193930864334
0.0168592538684606
0.0151535803452134
0.0129088759422302
0.0101812230423092
0.0070707406848669
0.0037105730734765
0.0002539978886488
-0.0031403806060552
-0.0063243899494409
-0.0091730589047074
-0.011591862887144
-0.0135194351896643
-0.0149272987619042
-0.0158172454684972
-0.0162173807621002
-0.0161776896566152
-0.0157646685838699
-0.0150542985647916
-0.0141240330412983
-0.0130462013185024
-0.0118838734924793
-0.010687400586903
-0.009491067379713
-0.0083114244043827
-0.0071479748003184
-0.0059870108962059
-0.0048088016919791
-0.0035943458788096
-0.0023284838534891
-0.0010014777071774
0.0003889738582074
0.0018366193398833
0.0033270164858549
0.0048388270661234
0.0063462420366704
0.0078221429139375
0.00924071110785
0.0105789313092827
0.0118173360824584
0.0129412850365042
0.0139428609982132
0.0148199116811156
0.0155695611611008
0.0161777697503566
0.0166091360151767
0.016802217811346
0.0166741665452718
0.0161341074854135
0.015101108700037
0.0135217895731329
0.0113845840096473
0.008728758431971
0.0056448695249855
0.0022649716120213
-0.001254319329746
-0.0047501944936811
-0.0080693066120147
-0.0110798897221684
-0.0136797660961747
-0.0157991852611303
-0.0174002572894096
-0.018475828692317
-0.0190470796078443
-0.0191585980355739
-0.0188730042427778
-0.0182651951909065
-0.0174136031419038
-0.0163904428482055
-0.0152554269880056
-0.0140535896643996
-0.0128149650990962
-0.0115544591099023
-0.0102721638977527
-0.0089571196585893
-0.0075948918238282
-0.0061736893840134
-0.0046863774769008
-0.0031307092867791
-0.001509690657258
0.0001681232824921
0.0018891706131398
0.0036350702866911
0.0053824326023459
0.0071046585217118
0.0087753068655729
0.010371534153819
0.0118770487606525
0.0132821965962648
0.014579651877284
0.015756782144308
0.0167856998741626
0.0176141839474439
0.0181639697402715
0.0183390863239765
0.0180414970964193
0.0171913150697946
0.0157469417899847
0.0137184029445052
0.0111715849488973
0.0082238856703042
0.0050315014086663
0.0017711372347548
-0.0013798301806673
-0.0042608636431396
-0.0067404592409729
-0.0087240915745496
-0.0101592512801289
-0.0110358940437436
-0.0113821532577276
-0.0112573206424713
-0.0107429744675755
-0.0099321827292442
-0.0089183822274208
-0.0077866115607321
-0.00660733692348
-0.0054321456700563
-0.0042918524704873
-0.0031971470452845
-0.0021412211935967
-0.0011044866405427
-6.147823296487331e-05
0.0010118095669895
0.0021327461581677
0.0033100445289164
0.0045446460135281
0.0058315116912126
0.0071593262255191
0.0085097020491957
0.009858950972557
0.0111801279708743
0.0124437501654028
0.0136200468987226
0.0146832484751939
0.0156139247119426
0.016395216807723
0.0170029737055301
0.0173954274505376
0.017508765682578
0.0172609686851501
0.0165638979524374
0.0153413712978363
0.0135477315634489
0.0111820306628942
0.0082952165976166
0.0049890070222318
0.0014064479619264
-0.0022842297330498
-0.005909189581871
-0.0093074515461921
-0.0123440269380807
-0.0149165717884898
-0.0169575996696949
-0.0184343196451663
-0.0193465985357761
-0.0197232365608215
-0.019617173820734
-0.019099373370409
-0.0182510018348693
-0.0171553697437047
-0.0158913694322109
-0.0145281925797462
-0.013120237737894
-0.0117031866684556
-0.0102940015494823
-0.0088946353644132
-0.007496599573642
-0.0060853669419884
-0.0046445052139461
-0.0031601449009031
-0.0016271254280582
-5.377596244215965e-05
0.0015394419897347
0.0031257839873433
0.0046776300296187
0.0061692902818322
0.007577670738101
0.0088825337588787
0.0100675802677869
0.0111216753721237
0.0120377112179994
0.0128074595704674
0.0134137663990259
0.0138216372579336
0.013971259817481
0.0137804523110389
0.0131585616618394
0.0120245013386011
0.0103239733725786
0.0080446600914001
0.0052255243062973
0.0019567040726542
-0.0016284962184727
-0.0053667509928345
-0.009081533178687
-0.012600814923644
-0.0157714653760194
-0.0184690095484256
-0.0206041112542152
-0.0221262723207473
-0.0230241902172565
-0.023321907967329
-0.0230713170021772
-0.0223446693271398
-0.0212280265986919
-0.0198134332895278
-0.0181903876364231
-0.0164386797696352
-0.0146229527890682
-0.0127892075106501
-0.0109641775488853
-0.0091576930135488
-0.0073670181445777
-0.0055822390131652
-0.0037915026769042
-0.0019841790199279
-0.000152172986418
0.001708103227429
0.0035932115279138
0.005492016673088
0.0073869144544005
0.0092556020244956
0.0110727539286017
0.0128111597150564
0.0144426748156547
0.0159404780715703
0.0172824431210756
0.0184520259499549
0.0194339323788881
0.0202060285955667
0.0207306928932666
0.0209496524184942
0.0207870453596115
0.0201616566628217
0.0190038625150918
0.0172722097486257
0.0149665959179401
0.0121351080015301
0.0088728182017803
0.0053131245076656
0.0016136127524077
-0.0020604054443538
-0.0055520152673125
-0.0087259002029895
-0.0114765474572777
-0.0137317702174186
-0.0154523327946662
-0.0166289657354354
-0.0172789599746465
-0.0174425989389419
-0.0171783994883298
-0.0165571216493845
-0.0156550258398056
-0.0145474560558795
-0.0133035825565457
-0.0119819687679409
-0.0106270899996161
-0.0092677734792232
-0.0079179918393492
-0.00657923752442
-0.0052436431869864
-0.003897821297869
-0.0025274434592574
-0.0011217490537092
0.0003236535703763
0.0018060321453958
0.0033155190758407
0.0048353821039199
0.0063435891643166
0.00781618244946
0.0092310663312673
0.010569822974503
0.0118170883506536
0.0129594402387738
0.0139843076467514
0.0148775521665811
0.0156185729429125
0.016172943636775
0.0164863299578428
0.0164850912988185
0.0160848293453454
0.0152048720046877
0.0137857738882303
0.0118049718439579
0.0092868544161319
0.0063057169318199
0.0029798201285302
-0.0005418092478066
-0.0040949056856334
-0.00751559343189
-0.0106553025543689
-0.0133923068642616
-0.0156382955610752
-0.0173414088785648
-0.0184864848852157
-0.0190919768065214
-0.0192045364528894
-0.0188922472298145
-0.0182364638894796
-0.01732306368649
-0.0162341892719268
-0.0150406155735254
-0.0137963434681296
-0.0125372959300875
-0.0112820239737629
-0.010032377205789
-0.0087756859138607
-0.007489426061511
-0.0061477851122617
-0.0047288360074162
-0.0032197618857026
-0.0016192002221941
6.241211667656898e-05
0.0018039369024336
0.0035759257152676
0.0053442167118191
0.0070741479285061
0.0087347365915775
0.0103017566725611
0.0117576988413929
0.0130872884765267
0.0142692532390356
0.0152671234682202
0.0160233918577432
0.0164606571197509
0.0164912156760692
0.01603396050632
0.0150335524231195
0.0134764220565557
0.0114007629454135
0.0088966470211744
0.0060947807505726
0.0031498693861067
0.0002244020579382
-0.002526361728087
-0.0049672583118081
-0.0069921752437949
-0.0085294423624873
-0.009543846361339
-0.0100338002666831
-0.0100258477032184
-0.0095711797475814
-0.0087429955601692
-0.0076301228255033
-0.0063263922929763
-0.0049185273237526
-0.0034769386984407
-0.0020525781437754
-0.000677490606904
0.0006341421976685
0.0018842262215912
0.0030872826464474
0.0042650247924029
0.0054402258247137
0.0066319205798208
0.0078519508242607
0.0091024711728096
0.0103755183517932
0.0116554563865065
0.0129232723265886
0.0141597362235188
0.0153457419946789
0.0164610631763935
0.0174813997000455
0.0183722656220197
0.0190819352865219
0.0195384863764047
0.019653920084238
0.0193347670137882
0.0184972453862428
0.0170838460326194
0.0150778032839298
0.0125131392851471
0.0094766356050968
0.0060995654202997
0.0025415942072868
-0.0010282904841005
-0.0044486168771982
-0.0075787394307553
-0.0103094447404146
-0.0125682894140481
-0.0143187195062637
-0.0155563782900571
-0.01630474999547
-0.0166098177433013
-0.0165340881794691
-0.0161505937576293
-0.0155357420444488
-0.0147612895816564
-0.0138881634920835
-0.0129626356065273
-0.0120143014937639
-0.0110567416995763
-0.0100901685655117
-0.0091050928458571
-0.008086685091257
-0.0070182187482714
-0.005883723963052
-0.0046713203191757
-0.003377113956958
-0.0020084416028112
-0.0005839182995259
0.0008703116327524
0.0023249690420925
0.0037508886307477
0.0051209586672484
0.0064088427461683
0.0075842896476387
0.0086078448221087
0.0094258366152644
0.0099664768204092
0.0101419212296605
0.0098596755415201
0.0090405046939849
0.0076374285854399
0.0056500639766454
0.0031298240646719
0.0001767156645655
-0.0030699255876243
-0.0064464593306183
-0.009782699868083
-0.0129180718213319
-0.0157144702970981
-0.0180646646767854
-0.0198959112167358
-0.021170500665903
-0.0218844413757324
-0.0220631677657365
-0.0217545013874769
-0.0210224017500877
-0.0199425537139177
-0.0185972638428211
-0.0170686896890401
-0.0154312495142221
-0.0137451207265257
-0.0120528740808367
-0.0103787910193204
-0.0087300678715109
-0.0071008242666721
-0.0054778922349214
-0.0038458697963505
-0.002190544269979
-0.0005007940344512
0.0012296573258936
0.0029992635827511
0.0047962046228349
0.0065992572344839
0.0083814030513167
0.0101135186851024
0.0117672933265566
0.0133174806833267
0.0147425457835197
0.0160215012729167
0.0171259641647338
0.018010975793004
0.0186103656888008
0.0188404452055692
0.0186120141297578
0.017847329378128
0.01649721711874
0.0145542919635772
0.0120601151138544
0.0091045778244733
0.0058166068047285
0.0023489631712436
-0.0011383250821381
-0.0044927513226866
-0.0075803846120834
-0.0102917458862066
-0.0125427320599555
-0.0142741343006491
-0.0154529241845011
-0.0160739608108997
-0.0161598436534404
-0.0157590210437774
-0.0149415293708443
-0.0137913934886455
-0.0123975239694118
-0.0108447829261422
-0.0092054363340139
-0.0075329160317778
-0.0058600390329957
-0.0042010056786239
-0.0025549926795065
-0.0009104683995246
0.0007493710145354
0.0024406262673437
0.0041735749691724
0.0059497077018022
0.0077617457136511
0.0095954900607466
0.0114310188218951
0.0132427811622619
0.0150006711483001
0.0166732296347618
0.0182316005229949
0.0196521840989589
0.0209163874387741
0.022006556391716
0.0228987820446491
0.023555152118206
0.0239186752587556
0.0239146817475557
0.0234607383608818
0.0224826745688915
0.0209316220134496
0.0187969580292701
0.0161128379404544
0.0129586709663271
0.0094533925876021
0.0057439068332314
0.0019898610189557
-0.0016524719540029
-0.0050433576107025
-0.0080680074170231
-0.0106417145580053
-0.012711807154119
-0.0142564959824085
-0.0152825098484754
-0.0158216543495655
-0.0159251987934112
-0.0156566929072141
-0.015085682272911
-0.0142830712720751
-0.0133162532001733
-0.0122437598183751
-0.0111109567806124
-0.0099474294111132
-0.0087661212310194
-0.0075652757659554
-0.0063338954932987
-0.0050585395656526
-0.0037289669271558
-0.0023416350595653
-0.0009005949832499
0.0005828174762427
0.0020904219709336
0.003598881419748
0.0050821122713387
0.0065130814909935
0.0078656375408172
0.0091164819896221
0.0102463280782103
0.0112402150407433
0.0120868040248751
0.0127749098464846
0.0132860848680138
0.0135863218456506
0.0136220026761293
0.0133226672187447
0.0126110296696424
0.0114197395741939
0.0097101684659719
0.0074854418635368
0.0047947694547474
0.0017307382076978
-0.0015791459009051
-0.0049861427396535
-0.0083372863009572
-0.0114906411617994
-0.0143244862556457
-0.0167419575154781
-0.0186743400990962
-0.0200828723609447
-0.0209580343216657
-0.0213170200586318
-0.0212000086903572
-0.0206653121858835
-0.0197841990739107
-0.0186350625008344
-0.0172962304204702
-0.0158392507582902
-0.0143238240852952
-0.0127928964793682
-0.0112687787041068
-0.0097542218863964
-0.0082388818264007
-0.006707131396979
-0.0051439413800835
-0.0035381936468183
-0.0018844975857064
-0.0001840790791902
0.0015557130100205
0.003321764525026
0.0050945379771292
0.0068491902202367
0.0085596796125173
0.010202876292169
0.0117599833756685
0.0132152466103434
0.0145517233759164
0.0157431364059448
0.016744690015912
0.0174888987094163
0.0178908053785562
0.0178621634840965
0.0173293203115463
0.0162497218698263
0.0146239828318357
0.0125010954216122
0.0099760051816701
0.0071791997179389
0.0042595323175191
0.0013669948093593
-0.0013590401504188
-0.0037987316027283
-0.0058600096963346
-0.0074827028438448
-0.0086380578577518
-0.0093272719532251
-0.0095788827165961
-0.0094436760991811
-0.0089889150112867
-0.0082923676818609
-0.00743527431041
-0.0064941504970192
-0.005532163195312
-0.0045932722277939
-0.0037014835979789
-0.0028633826877921
-0.0020720241591334
-0.0013114807661622
-0.0005605332553386
0.0002048208843916
0.0010079941712319
0.0018665443640202
0.0027871814090758
0.0037640579976141
0.0047809109091758
0.0058146524243056
0.0068380692973732
0.0078220330178737
0.0087387831881642
0.0095649305731058
0.0102804340422153
0.0108631728217005
0.011282118037343
0.0114920390769839
0.0114325638860464
0.0110333617776632
0.0102251265197992
0.0089544700458645
0.0071995975449681
0.0049820905551314
0.0023697922006249
-0.0005298191681504
-0.0035820654593408
-0.0066409953869879
-0.0095662092790007
-0.0122350016608834
-0.0145479664206504
-0.0164320133626461
-0.0178423412144184
-0.018761770799756
-0.0191982723772525
-0.0191820040345191
-0.0187617596238851
-0.0180006232112646
-0.0169696882367134
-0.0157398283481597
-0.0143747199326753
-0.0129276188090443
-0.0114406673237681
-0.00994473695755
-0.0084593780338764
-0.0069930413737893
-0.0055446177721023
-0.0041069299913942
-0.0026709148660302
-0.0012295068008825
0.0002189158694818
0.0016682426212355
0.0031048567034304
0.004511100705713
0.0058695152401924
0.0071643171831965
0.0083809969946742
0.0095066353678703
0.0105304475873708
0.0114427767693996
0.0122321266680955
0.0128804268315434
0.0133567648008465
0.013612407259643
0.0135810561478137
0.0131857804954051
0.0123519487679004
0.0110236722975969
0.0091791488230228
0.0068404385820031
0.0040756436064839
0.0009932084940373
-0.0022701136767864
-0.005564622581005
-0.0087434891611337
-0.0116753838956356
-0.0142519921064376
-0.0163916740566492
-0.018040731549263
-0.0191737599670887
-0.0197927225381135
-0.0199232138693332
-0.0196096841245889
-0.0189115162938833
-0.0178979374468326
-0.0166405048221349
-0.0152061730623245
-0.0136533482000231
-0.0120291616767644
-0.0103674316778779
-0.008689853362739
-0.0070092752575874
-0.0053312862291932
-0.0036540441215038
-0.0019693467766046
-0.0002670646645128
0.0014589638449251
0.0032079587690532
0.0049726646393537
0.0067398692481219
0.0084897382184863
0.0101960357278585
0.0118293743580579
0.0133625622838735
0.014774240553379
0.0160490088164806
0.0171756483614444
0.0181439369916915
0.0189392678439617
0.0195356681942939
0.0198896285146474
0.0199389979243278
0.0196099709719419
0.0188307706266641
0.0175483394414186
0.0157435834407806
0.0134408194571733
0.0107094505801796
0.0076584219932556
0.0044249165803194
0.0011589431669563
-0.0019930389244109
-0.0049009444192051
-0.0074588083662092
-0.0095892706885933
-0.0112450113520026
-0.0124064590781927
-0.0130780022591352
-0.0132852029055356
-0.0130726248025894
-0.0125003987923264
-0.0116387587040662
-0.0105620753020048
-0.0093435272574424
-0.0080492235720157
-0.006731694098562
-0.0054255998693406
-0.0041477121412754
-0.0029004095122218
-0.0016769557259976
-0.0004666750319302
0.00074112880975
0.0019542737863957
0.003175891470164
0.0044046165421605
0.0056358529254794
0.0068622473627328
0.0080734426155686
0.0092558758333325
0.0103934500366449
0.0114693501964211
0.0124680325388908
0.0133771002292633
0.0141885802149772
0.0148979015648365
0.0154998935759067
0.0159822460263967
0.0163178667426109
0.0164598319679498
0.0163424964994192
0.0158894881606102
0.0150271439924836
0.0137003986164927
0.0118867913261055
0.0096055595204234
0.0069208238273859
0.0039370371960103
0.0007862562779337
-0.002388016320765
-0.0054458999074995
-0.0082644820213317
-0.0107467770576477
-0.0128231104463338
-0.0144490972161293
-0.0156059870496392
-0.0163014680147171
-0.0165663957595825
-0.0164488032460212
-0.0160086024552583
-0.0153129342943429
-0.0144310183823108
-0.0134281404316425
-0.0123598761856555
-0.0112683838233351
-0.0101809632033109
-0.0091103846207261
-0.0080565810203552
-0.0070091262459754
-0.0059506525285542
-0.0048611802048981
-0.0037230944726616
-0.002525873016566
-0.0012684103567153
4.157004877924919e-05
0.0013891058042645
0.0027531078085303
0.0041082599200308
0.0054290769621729
0.0066942670382559
0.0078892251476645
0.0090058846399188
0.0100395092740654
0.0109823951497673
0.0118152052164077
0.0124996416270732
0.0129771064966917
0.0131735317409038
0.0130088720470666
0.012411518022418
0.011335639283061
0.0097756870090961
0.0077730868943035
0.0054136575199663
0.0028169923461973
0.0001212639035657
-0.0025324402377009
-0.005013714544475
