bvp
0.0100198704749345
0.0096984263509511
0.0090864300727844
0.0081709716469049
0.006965285167098
0.0055092386901378
0.0038656874094158
0.0021139890886843
0.000341969076544
-0.0013628485612571
-0.0029209712520241
-0.0042664161883294
-0.0053498949855566
-0.0061401007696986
-0.0066253915429115
-0.0068155573680996
-0.0067385155707597
-0.0064319064840674
-0.0059368042275309
-0.0052960691973567
-0.0045534772798419
-0.0037515868898481
-0.0029290176462382
-0.0021176375448703
-0.0013396228896453
-0.0006059714360162
8.161235018633306e-05
0.0007272169459611
0.0013383830664679
0.0019242517882958
0.0024931468069553
0.0030517787672579
0.0036070724017918
0.004167684353888
0.0047426717355847
0.0053385058417916
0.0059577161446213
0.0065993349999189
0.0072586592286825
0.0079262219369411
0.0085869003087282
0.0092190885916352
0.0097943823784589
0.010277877561748
0.0106280855834484
0.0107966726645827
0.0107303531840443
0.0103771314024925
0.0096962209790945
0.0086681190878152
0.0073010609485208
0.0056322454474866
0.0037244791164994
0.0016594947082921
-0.0004712311783805
-0.0025764310266822
-0.0045727686956524
-0.006388702429831
-0.0079656634479761
-0.0092594707384705
-0.0102428123354911
-0.0109054436907172
-0.011251357384026
-0.0112969679757952
-0.0110700670629739
-0.0106062293052673
-0.0099441306665539
-0.0091223428025841
-0.0081773735582828
-0.0071425423957407
-0.0060477769002318
-0.0049195447936654
-0.0037800604477524
-0.0026462906971573
-0.0015296863857656
-0.0004368647933006
0.0006294255144894
0.0016695070080459
0.0026858311612159
0.0036818827502429
0.0046611316502094
0.0056263292208313
0.0065792379900813
0.0075198877602815
0.0084447255358099
0.0093451850116252
0.0102084577083587
0.0110188368707895
0.0117578683421015
0.0124042406678199
0.012932838872075
0.0133116841316223
0.0134992059320211
0.0134460553526878
0.0131025370210409
0.0124283572658896
0.0114005869254469
0.0100195556879043
0.0083139492198824
0.0063426061533391
0.0041896598413586
0.0019540376961231
-0.0002624464686959
-0.0023647989146411
-0.0042722555808722
-0.0059242118149995
-0.0072820163331925
-0.0083260871469974
-0.0090534016489982
-0.009476400911808
-0.0096205854788422
-0.0095218606293201
-0.0092234658077359
-0.0087711429223418
-0.0082089910283684
-0.0075764926150441
-0.0069052316248416
-0.0062165628187358
-0.0055205770768225
-0.0048158951103687
-0.0040914206765592
-0.0033302672673016
-0.0025153991300612
-0.0016359838191419
-0.0006919849547557
0.0003044263576157
0.0013305959291756
0.0023568728938698
0.0033497235272079
0.0042747021652758
0.0051002902910113
0.0058013908565044
0.0063622579909861
0.0067799063399434
0.0070658242329955
0.0072429589927196
0.0073385294526815
0.0073759746737778
0.0073683327063918
0.0073114987462759
0.0071779661811888
0.0069175167009234
0.0064672082662582
0.0057656751014292
0.004767236765474
0.0034521624911576
0.0018297214992344
-6.320234388113022e-05
-0.002163603901863
-0.0043859081342816
-0.0066299438476562
-0.0087916869670152
-0.0107748489826917
-0.0125001203268766
-0.0139094460755586
-0.014967530965805
-0.0156618412584066
-0.0160000473260879
-0.0160063281655311
-0.0157182030379772
-0.0151831917464733
-0.0144545268267393
-0.0135864987969398
-0.0126298107206821
-0.0116265285760164
-0.0106057990342378
-0.009582694619894
-0.008560562506318
-0.0075350394472479
-0.0064976150169968
-0.0054380763322114
-0.004347191657871
-0.0032207209151238
-0.0020626042969524
-0.0008836942724883
0.0003024940378963
0.0014818536583334
0.0026396431494504
0.0037612887099385
0.0048335823230445
0.0058450372889637
0.0067856637760996
0.0076464917510747
0.0084183951839804
0.0090896394103765
0.0096427397802472
0.010051891207695
0.010282227769494
0.0102926176041364
0.0100420527160167
0.0094986427575349
0.0086498791351914
0.0075097121298313
0.0061190617270767
0.0045409095473587
0.0028525381349027
0.0011374042369425
-0.0005225939676165
-0.0020538507960736
-0.0033947089686989
-0.0044971420429646
-0.0053292321972548
-0.005877586081624
-0.0061479420401155
-0.0061636106111109
-0.0059614414349198
-0.0055859792046248
-0.005083480849862
-0.0044967997819185
-0.0038615819066762
-0.0032043424434959
-0.0025422195903956
-0.0018827416934072
-0.0012239380739629
-0.0005573537200689
0.0001271553337574
0.0008384711109101
0.0015833936631679
0.0023656776174902
0.0031845266930758
0.0040341294370591
0.0049045868217945
0.0057826470583677
0.0066517312079668
0.0074937362223863
0.0082933763042092
0.0090409629046916
0.0097306994721293
0.0103561505675315
0.0109057016670703
0.0113586075603961
0.0116812586784362
0.0118259694427251
0.0117353089153766
0.0113520724698901
0.0106322625651955
0.0095569174736738
0.0081389490514993
0.0064237150363624
0.0044842455536127
0.0024128600489348
0.0003110489342361
-0.0017212550155818
-0.0035951060708612
-0.0052379220724105
-0.0065954932942986
-0.0076329763978719
-0.008335537277162
-0.0087088216096162
-0.0087781026959419
-0.0085846614092588
-0.0081803258508443
-0.0076212841086089
-0.0069617806002497
-0.0062494478188455
-0.0055226306430995
-0.0048078852705657
-0.0041179088875651
-0.0034525338560342
-0.0028025466017425
-0.0021532927639782
-0.0014876103959977
-0.0007893159054219
-4.657171666622162e-05
0.0007457137107849
0.0015848693437874
0.0024610226973891
0.0033587776124477
0.0042593795806169
0.0051424712873995
0.0059879496693611
0.0067784395068883
0.0075005167163908
0.0081433141604065
0.0086937416344881
0.0091283684596419
0.0094064651057124
0.0094704497605562
0.0092550981789827
0.0087008941918611
0.0077663557603955
0.0064376569353044
0.0047347666695714
0.0027127405628561
0.0004571644822135
-0.0019263160647824
-0.0043250978924334
-0.0066308402456343
-0.0087474770843982
-0.0105969794094562
-0.0121228396892547
-0.013290817849338
-0.014088250696659
-0.0145220896229147
-0.0146148856729269
-0.0144004700705409
-0.0139205250889062
-0.013220963999629
-0.0123479841277003
-0.0113444728776812
-0.0102474279701709
-0.0090864971280097
-0.0078829117119312
-0.0066488157026469
-0.0053881970234215
-0.0040998901240527
-0.0027813077904284
-0.0014315601438283
-5.362136289477348e-05
0.0013447925448417
0.0027517741546034
0.0041523100808262
0.0055290069431066
0.0068633267655968
0.0081383707001805
0.0093417335301637
0.0104657132178545
0.0115047385916113
0.0124525669962167
0.0133006768301129
0.0140365334227681
0.0146391969174146
0.0150720728561282
0.0152782183140516
0.015185167081654
0.0147197917103767
0.0138265462592244
0.0124815450981259
0.0106987729668617
0.008529451675713
0.0060583720915019
0.0033981339074671
0.0006781141273677
-0.0019713318906724
-0.0044331382960081
-0.0066124042496085
-0.0084402905777096
-0.0098742581903934
-0.0108967442065477
-0.0115130618214607
-0.0117474282160401
-0.0116376457735896
-0.0112303476780653
-0.0105774067342281
-0.0097330156713724
-0.0087505914270877
-0.0076796635985374
-0.0065633095800876
-0.0054353666491806
-0.0043177749030292
-0.0032200361602008
-0.00214130198583
-0.0010737949050962
-6.454996764659882e-06
0.0010716489050537
0.0021681373473256
0.0032843621447682
0.0044139185920357
0.0055435299873352
0.0066553717479109
0.0077301394194364
0.0087507963180542
0.0097054531797766
0.010586854070425
0.011389534920454
0.0121088819578289
0.0127419391646981
0.0132862608879804
0.0137363076210021
0.014078295789659
0.0142833599820733
0.0143024250864982
0.0140692135319113
0.0135119557380676
0.0125676449388265
0.0111951753497123
0.0093868123367428
0.0071753030642867
0.0046339067630469
0.0018694289028644
-0.0009904648177325
-0.0038131207693368
-0.006474956870079
-0.0088696395978331
-0.0109112337231636
-0.0125364866107702
-0.01370813511312
-0.0144163072109222
-0.0146759049966931
-0.0145229855552315
-0.0140123171731829
-0.0132132256403565
-0.0122018083930015
-0.0110524091869592
-0.0098315421491861
-0.0085945902392268
-0.0073843789286911
-0.0062303515151143
-0.0051474785432219
-0.0041362172923982
-0.0031848838552832
-0.0022738468833267
-0.0013808873482048
-0.0004871303681284
0.0004183026030659
0.0013371112290769
0.0022639941889792
0.003189330920577
0.0041007152758538
0.0049844742752611
0.0058280508965253
0.00662198709324
0.0073599955067038
0.0080380477011203
0.0086537301540374
0.0092048160731792
0.0096871824935078
0.0100945327430963
0.0104182735085487
0.0106430519372224
0.010739792138338
0.0106620490550994
0.0103487884625792
0.0097336256876587
0.0087578101083636
0.0073841353878378
0.0056093474850058
0.0034708296880126
0.0010439967736601
-0.0015677772462368
-0.0042452844791114
-0.0068656164221465
-0.0093144606798887
-0.0114962728694081
-0.0133403120562434
-0.0148022379726171
-0.0158615615218877
-0.0165180973708629
-0.0167905483394861
-0.0167150683701038
-0.0163412727415561
-0.0157275386154651
-0.0149364322423934
-0.0140282735228538
-0.0130543513223528
-0.0120535250753164
-0.011051625944674
-0.0100616086274385
-0.0090843550860881
-0.0081108324229717
-0.0071275737136602
-0.0061243046075105
-0.0050973165780305
-0.0040470622479915
-0.0029759167227894
-0.001888629514724
-0.0007924491073936
0.0003040325827896
0.0013910918496549
0.0024570277892053
0.0034885494969785
0.004472445230931
0.0053972909227013
0.0062549775466322
0.0070407539606094
0.0077518736943602
0.0083870887756347
0.0089459177106618
0.0094252415001392
0.009813972748816
0.0100876307114958
0.0102050714194774
0.0101110786199569
0.0097452104091644
0.0090534538030624
0.0080012381076812
0.0065858880989253
0.0048429439775645
0.0028427937068045
0.0006802058778703
-0.0015375153161585
-0.0037017478607594
-0.0057139904238283
-0.0074945972301065
-0.0089854346588253
-0.0101485196501016
-0.0109652876853942
-0.0114374449476599
-0.0115857739001512
-0.0114455558359622
-0.0110616013407707
-0.0104836113750934
-0.0097610540688037
-0.0089399646967649
-0.0080626439303159
-0.0071662697009742
-0.0062784263864159
-0.0054137646220624
-0.0045753642916679
-0.00375906098634
-0.0029572227504104
-0.0021608746610581
-0.001361408852972
-0.0005524157895706
0.0002686239313334
0.0010992297902703
0.0019323534797877
0.0027585229836404
0.003567929379642
0.0043510533869266
0.0050992565229535
0.0058057839050889
0.0064663006924092
0.0070797745138406
0.0076482398435473
0.0081730196252465
0.0086494935676455
0.0090629998594522
0.0093855476006865
0.0095735639333724
0.0095694065093994
0.0093094715848565
0.0087373033165931
0.007815689779818
0.0065349144861102
0.0049177734181284
0.0030201133340597
0.0009264748077839
-0.0012578382156789
-0.0034179715439677
-0.0054422784596681
-0.0072331763803958
-0.0087147448211908
-0.0098369922488927
-0.0105767231434583
-0.0109364986419677
-0.0109423203393816
-0.010638965293765
-0.0100837545469403
-0.0093398997560143
-0.0084698060527443
-0.0075298221781849
-0.0065672891214489
-0.0056179021485149
-0.0047023859806358
-0.0038255867548286
-0.0029801290947943
-0.0021524445619434
-0.0013279216364026
-0.0004936000332236
0.0003605217207223
0.0012391351629048
0.0021391829941421
0.0030505743343383
0.0039592515677213
0.0048502059653401
0.0057099536061286
0.0065281535498797
0.0072981538251042
0.008016625419259
0.0086827976629138
0.0092975245788693
0.0098614795133471
0.0103729702532291
0.0108270701020956
0.0112152658402919
0.0115225473418831
0.0117214955389499
0.011768895201385
0.0116104520857334
0.0111912386491894
0.0104660047218203
0.0094079375267028
0.0080164270475506
0.006321691442281
0.0043838885612785
0.002286632079631
0.0001260820426978
-0.0020014361944049
-0.0040093092247843
-0.0058264508843421
-0.0073995296843349
-0.0086920754984021
-0.0096826087683439
-0.0103643182665109
-0.0107447449117898
-0.0108433086425066
-0.0106884520500898
-0.0103163346648216
-0.0097699090838432
-0.0090959314256906
-0.008339543826878
-0.0075388075783848
-0.0067210886627435
-0.0059017138555645
-0.0050853630527853
-0.0042696697637438
-0.0034488497767597
-0.002616204554215
-0.0017657168209552
-0.0008928244933485
4.712492227554321e-06
0.0009251832962036
0.0018614260479807
0.0028010937385261
0.0037291862536221
0.0046304618008434
0.0054900543764233
0.006293760612607
0.0070294272154569
0.0076886666938662
0.0082672433927655
0.0087651601061224
0.009187189862132
0.0095406435430049
0.0098292678594589
0.0100463293492794
0.0101694203913211
0.0101590482518076
0.0099634882062673
0.0095291836187243
0.0088119693100452
0.007785792928189
0.006448748987168
0.0048263054341077
0.0029709718655794
0.0009572280105203
-0.0011284406064078
-0.0031982329674065
-0.0051702945493161
-0.0069737578742206
-0.0085525317117571
-0.0098662748932838
-0.0108893765136599
-0.0116100804880261
-0.0120296273380517
-0.0121604297310113
-0.0120245479047298
-0.0116532547399401
-0.0110853342339396
-0.0103630600497126
-0.0095276730135083
-0.008616030216217
-0.0076590795069932
-0.0066814706660807
-0.0057006124407052
-0.0047253253869712
-0.0037567953113466
-0.0027922727167606
-0.0018278777133673
-0.0008596356492489
0.0001139550004154
0.0010887957178056
0.0020557511597871
0.0030036591924726
0.003921000752598
0.0047973738983273
0.0056261820718646
0.0064053600654006
0.0071348389610648
0.0078133391216397
0.0084366016089916
0.0089983493089675
0.0094927130267024
0.009915336035192
0.0102635808289051
0.0105359349399805
0.0107277696952223
0.0108240731060504
0.0107949506491422
0.0105971610173583
0.0101802228018641
0.0094963600859045
0.0085126077756285
0.0072201108559966
0.0056381379254162
0.0038140949327498
0.0018191161798313
-0.0002603315515443
-0.0023312128614634
-0.0043029747903347
-0.0060973409563302
-0.0076546352356672
-0.0089344140142202
-0.0099129024893045
-0.0105803869664669
-0.0109402686357498
-0.0110089182853698
-0.0108149591833353
-0.0103980768471956
-0.0098064839839935
-0.0090919081121683
-0.0083034550771117
-0.0074822856113314
-0.0066578304395079
-0.0058461828157305
-0.0050513762980699
-0.0042685368098318
-0.0034869690425693
-0.002693616785109
-0.0018776737852022
-0.0010342040332034
-0.0001652736682444
0.0007212776690721
0.0016147317364811
0.002502973889932
0.0033712715376168
0.0042020878754556
0.004978391341865
0.0056876088492572
0.0063233636319637
0.0068854228593409
0.0073784529231488
0.007810041308403
0.008189233019948
0.0085249962285161
0.0088233882561326
0.0090850517153739
0.0093039227649569
0.0094653414562344
0.0095431767404079
0.0094972578808665
0.0092737488448619
0.0088120633736252
0.0080578280612826
0.0069768484681844
0.0055652959272265
0.0038533858023583
0.0019024002831429
-0.0002023025881499
-0.0023603974841535
-0.0044677848927676
-0.0064281662926077
-0.0081621538847684
-0.0096128359436988
-0.010747673921287
-0.0115565061569213
-0.012047154828906
-0.0122422520071268
-0.0121777057647705
-0.0118992514908313
-0.0114564578980207
-0.0108971130102872
-0.0102636478841304
-0.0095909051597118
-0.0089035425335168
-0.0082134585827589
-0.0075204432941973
-0.0068165226839482
-0.006090351846069
-0.0053303698077797
-0.0045280531048774
-0.0036804343108087
-0.0027907209005206
-0.0018682514782994
-0.0009280322119593
1.1680065654218195e-05
0.0009329376043751
0.0018210909329354
0.002667186781764
0.0034685404971241
0.004226354882121
0.0049432637169957
0.0056228465400636
0.0062691592611372
0.0068852063268423
0.0074712163768708
0.0080236187204718
0.0085356058552861
0.0089979255571961
0.009396475739777
0.0097071705386042
0.0098928194493055
0.0099053550511598
0.0096932053565979
0.0092114843428134
0.0084326639771461
0.0073556355200707
0.0060101291164755
0.0044541819952428
0.0027660685591399
0.0010337721323594
-0.0006564366049133
-0.0022293638903647
-0.0036246292293071
-0.0047969971783459
-0.0057177920825779
-0.0063768858090043
-0.0067824451252818
-0.0069581004790961
-0.0069390023127198
-0.0067672617733478
-0.006486679892987
-0.0061384467408061
-0.005758065264672
-0.0053712748922407
-0.0049902936443686
-0.0046143024228513
-0.0042340653017163
-0.0038365120999515
-0.0034072047565132
-0.0029325913637876
-0.0024030096828937
-0.0018150947289541
-0.001172654912807
-0.0004861645284108
0.0002285041846334
0.0009522348991595
0.0016661417903378
0.0023549278266727
0.0030083623714745
0.0036205537617206
0.0041878130286931
0.004707739688456
0.0051803910173475
0.0056085726246237
0.0059957285411655
0.0063409470021724
0.006630387622863
0.0068296324461698
0.0068832603283226
0.0067220125347375
0.0062754233367741
0.0054883575066924
0.0043364064767956
0.0028336415998637
0.0010310662910342
-0.0009911182569339
-0.0031333451624959
-0.0052867596969008
-0.0073437970131635
-0.0092078624293208
-0.0107994768768548
-0.0120595907792449
-0.0129533866420388
-0.0134740052744746
-0.0136418063193559
-0.0134980427101254
-0.0130959535017609
-0.0124925840646028
-0.0117435241118073
-0.0109003065153956
-0.0100083518773317
-0.009104523807764
-0.0082143489271402
-0.0073495251126587
-0.0065085566602647
-0.0056818095035851
-0.0048564216122031
-0.0040176939219236
-0.0031500500626862
-0.00223981263116
-0.0012781955301761
-0.0002633943222463
0.0007986151613295
0.0018950458616018
0.0030089966021478
0.0041223438456654
0.0052170674316585
0.0062759350985288
0.0072835329920053
0.0082267364487051
0.009094288572669
0.0098760239779949
0.0105622308328747
0.0111416168510913
0.0115951998159289
0.0118881668895483
0.0119662601500749
0.0117600187659263
0.0111960982903838
0.0102146249264478
0.0087872929871082
0.0069286720827221
0.0046983691863715
0.0021946595516055
-0.0004585478454828
-0.0031277164816856
-0.0056854360736906
-0.0080226361751556
-0.0100545277819037
-0.0117218131199479
-0.012990279123187
-0.0138486605137586
-0.0143050979822874
-0.0143841691315174
-0.0141243245452642
-0.0135749941691756
-0.0127928033471107
-0.0118358256295323
-0.0107572730630636
-0.0096020642668008
-0.0084060663357377
-0.0071944240480661
-0.0059788953512907
-0.0047574583441019
-0.0035174181684851
-0.0022411895915865
-0.0009138854220509
0.0004703681915998
0.0019074594601988
0.003386115655303
0.004889846779406
0.0063973562791943
0.0078834407031536
0.0093223359435796
0.0106921177357435
0.0119764655828475
0.0131644550710916
0.0142503790557384
0.0152324233204126
0.0161112174391746
0.0168902240693569
0.0175746064633131
0.0181649941951036
0.0186484195291996
0.018990620970726
0.0191332567483186
0.0189993251115083
0.0185055378824472
0.0175775568932294
0.016166016459465
0.0142595563083887
0.0118904374539852
0.0091325715184211
0.0060937590897083
0.0029036274645477
-0.0003004330210387
-0.003386256750673
-0.0062368549406528
-0.008757047355175
-0.0108770215883851
-0.012553097680211
-0.0137658398598432
-0.014517162926495
-0.014828709885478
-0.0147396083921194
-0.0143016427755355
-0.0135740675032138
-0.012618807144463
-0.0114953815937042
-0.0102568119764328
-0.0089469980448484
-0.0075984485447406
-0.0062302164733409
-0.0048477202653884
-0.0034459931775927
-0.002015315927565
-0.0005465084686875
0.0009646862745285
0.0025140144862234
0.0040877498686313
0.005664833355695
0.0072203297168016
0.0087286131456494
0.0101661765947937
0.0115141458809375
0.0127594685181975
0.0138939265161752
0.0149121209979057
0.0158114396035671
0.0165937729179859
0.0172652937471866
0.0178344212472438
0.0183100160211324
0.0186976883560419
0.0189919229596853
0.0191675182431936
0.019175624474883
0.018945787101984
0.0183941703289747
0.0174373965710401
0.0160085372626781
0.0140713471919298
0.0116307102143764
0.0087379980832338
0.0054893204942345
0.0020152381621301
-0.0015362305566668
-0.0050178980454802
-0.0082975225523114
-0.0112656410783529
-0.0138385063037276
-0.0159590113908052
-0.0175969712436199
-0.0187476780265569
-0.0194282047450542
-0.0196729525923728
-0.0195302385836839
-0.0190596505999565
-0.0183276515454053
-0.0174006149172782
-0.0163380689918994
-0.0151883587241172
-0.0139865335077047
-0.0127544859424233
-0.0115035325288772
-0.010236931964755
-0.0089507307857275
-0.007635427173227
-0.0062792235985398
-0.0048717986792325
-0.0034089921973645
-0.001896473695524
-0.0003498499281704
0.0012076816055923
0.0027483196463435
0.004242337308824
0.0056601483374834
0.0069752051495015
0.0081679914146661
0.0092281680554151
0.0101533820852637
0.0109472572803497
0.0116187538951635
0.0121808424592018
0.0126460185274481
0.0130200069397687
0.0132957026362419
0.0134476935490965
0.0134293790906667
0.0131757836788892
0.0126124694943428
0.0116697223857045
0.0102991871535778
0.0084864795207977
0.0062554627656936
0.0036653764545917
0.0008046273142099
-0.0022167777642607
-0.0052760653197765
-0.0082471519708633
-0.0110108312219381
-0.0134650422260165
-0.0155321257188916
-0.0171614903956651
-0.018329095095396
-0.019035892561078
-0.0193057525902986
-0.0191819574683904
-0.0187223833054304
-0.0179938990622758
-0.0170658826828002
-0.016004279255867
-0.0148674761876463
-0.0137025658041238
-0.0125413052737712
-0.0113980630412697
-0.0102718463167548
-0.0091514326632022
-0.0080213425680994
-0.006867192685604
-0.0056790998205542
-0.0044531016610562
-0.0031916256994009
-0.0019031884148716
-0.0006017917767167
0.00069394800812
0.0019627450965344
0.0031834794208407
0.0043385773897171
0.0054171551018953
0.0064157689921557
0.0073356586508452
0.0081781838089227
0.0089420201256871
0.0096237165853381
0.0102180028334259
0.0107132829725742
0.0110841412097215
0.01128701120615
0.011262584477663
0.0109453294426202
0.01027846429497
0.0092284884303808
0.0077931806445121
0.0060038426890969
0.0039249118417501
0.0016494039446115
-0.0007115267217159
-0.0030418280512094
-0.0052328389137983
-0.0071926587261259
-0.0088509274646639
-0.0101600987836718
-0.0110962176695466
-0.0116591705009341
-0.0118703925982117
-0.0117679806426167
-0.0114009520038962
-0.0108238793909549
-0.0100920302793383
-0.0092567019164562
-0.0083610117435455
-0.0074376221746206
-0.0065084467642009
-0.0055848914198577
-0.0046686907298862
-0.0037539664190262
-0.0028308141045272
-0.0018895315006375
-0.0009230412542819
7.1751419454813e-05
0.0010919575579464
0.0021285815164446
0.0031689493916928
0.0041978657245635
0.0051969131454825
0.0061453944072127
0.0070237247273325
0.0078170429915189
0.0085173808038234
0.0091236755251884
0.0096401534974575
0.0100742001086473
0.0104331187903881
0.0107192210853099
0.0109240217134356
0.0110229086130857
0.0109730148687958
0.0107164336368441
0.0101885804906487
0.0093305502086877
0.0081031695008277
0.0064990003593266
0.0045484621077775
0.0023173680528998
-0.0001028832048177
-0.0026068282313644
-0.0050852303393185
-0.0074352449737489
-0.0095687545835971
-0.0114164995029568
-0.01292937528342
-0.0140779726207256
-0.0148509880527853
-0.0152540290728211
-0.0153086576610803
-0.0150504298508167
-0.0145256761461496
-0.0137874204665422
-0.0128906210884451
-0.0118876490741968
-0.010824916884303
-0.0097396988421678
-0.0086571183055639
-0.0075892275199294
-0.0065365526825189
-0.00549112027511
-0.0044404156506061
-0.0033716775942593
-0.0022752801887691
-0.0011464096605777
1.3873213902115822e-05
0.0011975928209722
0.0023898291401565
0.0035700136795639
0.0047142305411398
0.0057987333275377
0.0068042697384953
0.0077191349118947
0.0085399635136127
0.0092706708237528
0.0099195810034871
0.0104960482567548
0.0110079869627952
0.0114596616476774
0.0118486173450946
0.0121613275259733
0.0123679777607321
0.0124196419492363
0.0122527759522199
0.0118011478334665
0.0110100358724594
0.0098480191081762
0.00831457413733
0.0064430297352373
0.004297723993659
0.0019655416253954
-0.000454674474895
-0.0028625756967812
-0.0051656551659107
-0.0072848079726099
-0.0091561321169137
-0.010731128975749
-0.011975709348917
-0.0128697026520967
-0.0134082520380616
-0.0136032216250896
-0.0134826991707086
-0.0130878305062651
-0.0124678732827305
-0.0116752590984106
-0.0107606938108801
-0.0097686322405934
-0.0087347738444805
-0.0076853996142745
-0.0066366819664835
-0.0055937236174941
-0.0045514935627579
-0.0034984259400516
-0.0024210382252931
-0.0013079326599836
-0.0001527559943497
0.0010438566096127
0.0022738892585039
0.0035229446366429
0.0047715655528008
0.0059976177290081
0.0071800239384174
0.0083007421344518
0.0093437880277633
0.0102949440479278
0.0111441696062684
0.011887839064002
0.0125283887609839
0.013072295114398
0.0135278515517711
0.0139026269316673
0.0141990100964903
0.0144074093550443
0.0145006049424409
0.0144341187551617
0.0141528472304344
0.013600124977529
0.0127270426601171
0.0115019902586936
0.0099192289635539
0.0080037312582135
0.0058113825507462
0.0034251078031957
0.0009462010930292
-0.0015175431035459
-0.0038625951856374
-0.0059976172633469
-0.0078485598787665
-0.0093610687181353
-0.0105011127889156
-0.0112540749832987
-0.0116231469437479
-0.0116285039111971
-0.011306257918477
-0.0107059404253959
-0.0098866056650877
-0.0089115425944328
-0.0078431451693177
-0.0067388894967734
-0.0056470902636647
-0.0046033435501158
-0.0036287978291511
-0.0027296599000692
-0.0018994900165125
-0.001124725677073
-0.000390219502151
0.0003178367624059
0.001011349610053
0.0016996485646814
0.0023880582302808
0.0030782176181674
0.0037701744586229
0.0044633215293288
0.0051553305238485
0.0058406121097505
0.0065094591118395
0.0071486099623143
0.0077440463937819
0.0082847895100712
0.0087645631283521
0.0091807004064321
0.009532131254673
0.0098160719498991
0.0100227147340774
0.0101299379020929
0.0100999707356095
0.0098805706948041
0.0094132125377655
0.0086459927260875
0.0075467927381396
0.0061132023110985
0.0043763741850852
0.0023988387547433
0.0002683070488274
-0.0019130527507513
-0.00404361076653
-0.0060347081162035
-0.0078150480985641
-0.0093309227377176
-0.010547250509262
-0.0114485910162329
-0.0120375342667102
-0.0123308654874563
-0.0123562514781951
-0.0121502680703997
-0.0117561062797904
-0.0112199801951646
-0.0105867963284254
-0.0098952343687415
-0.0091735050082206
-0.0084390789270401
-0.0077015506103634
-0.0069646127521991
-0.0062266769818961
-0.0054816622287034
-0.0047211037017405
-0.0039373701438307
-0.0031255346257239
-0.0022839666344225
-0.0014164546737447
-0.0005340511561371
0.0003472780226729
0.0012112068943679
0.0020437992643564
0.0028347445186227
0.0035781499464064
0.0042721857316792
0.0049177319742739
0.0055172946304082
0.0060741188935935
0.0065894778817892
0.0070575675927102
0.0074604894034564
0.0077653406187891
0.0079241599887609
0.0078786564990878
0.0075703002512454
0.0069528738968074
0.0060037458315491
0.0047311726957559
0.0031765694729983
0.0014113532379269
-0.0004714938113465
-0.0023687672801315
-0.0041788141243159
-0.0058128824457526
-0.0072032562457025
-0.0083050280809402
-0.0090941153466701
-0.0095656951889395
-0.0097332373261451
-0.0096269315108656
-0.0092897675931453
-0.0087714977562427
-0.0081238280981779
-0.0073969424702227
-0.0066347499378025
-0.0058695143088698
-0.0051195323467254
-0.0043913004919886
-0.0036832506302744
-0.0029881340451538
-0.0022949553094804
-0.0015923115424811
-0.0008718087337911
-0.0001291460357606
0.0006371673662215
0.0014270395040512
0.002237461740151
0.0030598675366491
0.0038802977651357
0.004683188162744
0.005455226637423
0.0061867185868322
0.0068705584853887
0.0075002228841185
0.0080696335062384
0.008574167266488
0.009006967768073
0.0093507282435894
0.009572435170412
0.0096237873658537
0.0094454996287822
0.0089761298149824
0.0081650633364915
0.0069856336340308
0.0054445331916213
0.0035852212458848
0.0014843590324744
-0.0007578997174277
-0.0030315693002194
-0.0052302684634923
-0.0072602666914463
-0.0090451519936323
-0.0105285989120602
-0.0116756781935691
-0.012472340837121
-0.012924188748002
-0.0130548747256398
-0.0129028633236885
-0.0125160533934831
-0.0119455829262733
-0.0112406890839338
-0.01044537499547
-0.0095964558422565
-0.0087224086746573
-0.0078425575047731
-0.0069664441980421
-0.0060938335955142
-0.0052159251645207
-0.0043186079710721
-0.003386937547475
-0.002408439759165
-0.0013755317777395
-0.0002876678481698
0.0008484125137329
0.0020198435522615
0.0032082335092127
0.0043903565965592
0.0055412463843822
0.0066394638270139
0.0076707028783857
0.008627651259303
0.009507986716926
0.0103125451132655
0.0110438680276274
0.0117028094828128
0.0122812911868095
0.0127543052658438
0.0130760557949543
0.0131824277341365
0.0129997860640287
0.0124584501609206
0.011507760733366
0.0101284915581345
0.0083391396328806
0.0061965323984622
0.003791322465986
0.0012370077893137
-0.0013449853286147
-0.0038385172374546
-0.0061420802958309
-0.008175428956747
-0.0098827667534351
-0.0112313795834779
-0.0122076869010925
-0.012812971137464
-0.0130602438002824
-0.0129735972732305
-0.0125889610499143
-0.011952712200582
-0.0111167272552847
-0.0101320566609501
-0.0090439282357692
-0.0078894309699535
-0.006696730852127
-0.0054846201092004
-0.0042634103447198
-0.0030367951840162
-0.001803227700293
-0.0005576657131314
0.0007054740563035
0.0019895993173122
0.0032941736280918
0.0046134409494698
0.0059371720999479
0.0072529874742031
0.0085468841716647
0.0098026739433407
0.0110031934455037
0.0121325012296438
0.0131773995235562
0.0141280433163046
0.0149776637554168
0.0157222431153059
0.0163598284125328
0.016886793076992
0.0172904841601848
0.0175412632524967
0.0175886303186416
0.0173651669174432
0.0167975164949893
0.0158199463039636
0.0143871176987886
0.0124847590923309
0.0101359169930219
0.0073999781161546
0.0043667806312441
0.0011493931524455
-0.0021261244546622
-0.0053338166326284
-0.0083584720268845
-0.0111004011705517
-0.0134766669943928
-0.0154231954365968
-0.0168980285525321
-0.0178832430392503
-0.018384663388133
-0.0184297431260347
-0.0180640872567892
-0.0173463355749845
-0.0163415987044572
-0.0151157360523939
-0.0137314796447753
-0.0122448578476905
-0.0107019022107124
-0.0091364551335573
-0.007569242734462
-0.0060084853321313
-0.0044525088742375
-0.0028942609205842
-0.001325991936028
0.0002571400254964
0.0018540224991738
0.0034558437764644
0.0050472244620323
0.0066097415983676
0.0081259803846478
0.0095816757529973
0.0109648173674941
0.0122644212096929
0.0134710911661386
0.0145778153091669
0.0155800711363554
0.0164754316210746
0.0172620378434658
0.0179356485605239
0.0184844378381967
0.0188814029097557
0.0190785750746727
0.019008282572031
0.0185925103724002
0.0177580453455448
0.0164530873298645
0.0146600054576992
0.0124010853469371
0.009738091379404
0.0067671546712517
0.0036088488996028
0.0003950141835957
-0.0027444919105619
-0.0056930999271571
-0.0083545558154582
-0.0106547158211469
-0.0125416265800595
-0.0139862243086099
-0.0149815334007143
-0.0155402179807424
-0.0156925674527883
-0.0154841765761375
-0.0149717768654227
-0.0142173916101455
-0.0132823688909411
-0.0122231217101216
-0.0110882800072431
-0.0099161360412836
-0.0087331477552652
-0.0075538819655776
-0.0063816178590059
-0.0052097272127866
-0.004024610389024
-0.0028109627310186
-0.0015586296794936
-0.0002669135574251
0.001056499662809
0.0023983702994883
0.0037406589835882
0.0050609363242983
0.0063350414857268
0.0075412131845951
0.0086627136915922
0.0096874479204416
0.01060670055449
0.0114152450114488
0.0121107604354619
0.0126893883571028
0.0131383370608091
0.0134288100525736
0.013512946665287
0.0133276879787445
0.0128048108890652
0.0118843195959925
0.0105283167213201
0.008731335401535
0.0065248114988207
0.0039764251559972
0.0011848593130707
-0.0017297798767685
-0.0046387775801122
-0.0074176294729113
-0.0099551379680633
-0.0121595794335007
-0.0139636434614658
-0.0153265390545129
-0.0162326768040657
-0.0166893359273672
-0.0167252197861671
-0.0163887999951839
-0.0157445669174194
-0.0148663483560085
-0.0138279367238283
-0.012693990021944
-0.0115149598568677
-0.0103258471935987
-0.0091462805867195
-0.007982107810676
-0.0068294904194772
-0.0056799724698066
-0.004524253308773
-0.0033545659389346
-0.0021669236011803
-0.0009629358537495
0.0002504680305719
0.0014631077647209
0.0026628035120666
0.0038350485265254
0.0049628824926912
0.0060279862955212
0.0070131374523043
0.0079053910449147
0.0086978413164615
0.0093885771930217
0.0099776973947882
0.0104628251865506
0.0108321802690625
0.0110566848888993
0.0110862040892243
0.0108541026711463
0.0102892788127064
0.0093306023627519
0.0079394206404685
0.0061086313799023
0.0038672601804137
0.0012797722592949
-0.0015591317787766
-0.0045330310240387
-0.0075147952884435
-0.0103788310661911
-0.0130118560045957
-0.0153206679970026
-0.0172369703650474
-0.0187185630202293
-0.0197478402405977
-0.0203287824988365
-0.0204826220870018
-0.0202446319162845
-0.0196633040904998
-0.0187987815588712
-0.0177179351449012
-0.0164869055151939
-0.015163566917181
-0.0137920249253511
-0.012400222942233
-0.0110009480267763
-0.0095951985567808
-0.0081756245344877
-0.0067297304049134
-0.0052442951127886
-0.0037106871604919
-0.0021288956049829
-0.0005077628884464
0.0011382247321307
0.002791195642203
0.0044294386170804
0.0060275858268141
0.0075593059882521
0.0090007418766617
0.0103333257138729
0.0115459989756345
0.0126359285786747
0.0136059336364269
0.0144597087055444
0.0151973478496074
0.0158106070011854
0.0162776540964841
0.0165602266788482
0.0166048482060432
0.0163473132997751
0.0157208815217018
0.0146687664091587
0.0131572522222995
0.0111853703856468
0.0087903048843145
0.0060475314967334
0.0030652261339128
-2.705119550228119e-05
-0.0030941143631935
-0.0060095251537859
-0.0086641134694218
-0.0109695587307214
-0.0128593249246478
-0.0142893064767122
-0.0152390077710151
-0.0157120265066623
-0.0157356411218643
-0.0153588494285941
-0.0146473450586199
-0.0136764980852603
-0.0125236148014664
-0.0112595669925212
-0.0099414894357323
-0.0086087835952639
-0.0072829416021704
-0.0059696808457374
-0.0046625910326838
-0.003348738187924
-0.0020142383873462
-0.0006480459123849
0.0007549873553216
0.0021917270496487
0.0036494371015578
0.0051063196733593
0.0065358090214431
0.0079125119373202
0.0092153325676918
0.010427813977003
0.0115382373332977
0.0125399660319089
0.0134315118193626
0.0142160579562187
0.0148997316136956
0.0154890129342675
0.0159885976463556
0.0163997169584035
0.0167181137949228
0.0169299971312284
0.0170057564973831
0.0168964341282844
0.0165370553731918
0.0158550273627042
0.0147819900885224
0.0132691487669944
0.0113024907186627
0.0089110620319843
0.0061650383286178
0.0031664811540395
3.7804245948791504e-05
-0.0030900135170668
-0.0060897534713149
-0.0088484501466155
-0.0112737398594617
-0.0132973473519086
-0.0148767512291669
-0.0159941036254167
-0.016653012484312
-0.0168760679662227
-0.0167034454643726
-0.0161897856742143
-0.0153984194621443
-0.0143947480246424
-0.0132410069927573
-0.0119930217042565
-0.0106977503746747
-0.0093904249370098
-0.0080921407788991
-0.0068102688528597
-0.0055417888797819
-0.0042773564346134
-0.0030060878489166
-0.0017207311466336
-0.0004202619893476
0.0008901765686459
0.002199332928285
0.0034902330953627
0.004742887802422
0.0059379627928137
0.0070588206872344
0.0080923624336719
0.0090302340686321
0.0098702805116772
0.0106161469593644
0.0112744960933923
0.0118528325110673
0.012358876876533
0.0127991111949086
0.0131746530532836
0.0134748313575983
0.0136716123670339
0.0137182166799902
0.0135535318404436
0.0131120635196566
0.0123363360762596
0.0111884251236915
0.0096600037068128
0.0077792610973119
0.0056101093068718
0.0032428014092147
0.000781500712037
-0.0016663689166307
-0.0039989436045289
-0.0061280918307602
-0.0079854670912027
-0.0095241172239184
-0.0107171963900327
-0.0115564968436956
-0.0120507609099149
-0.012223950587213
-0.0121140014380216
-0.0117704207077622
-0.0112490551546216
-0.0106049980968236
-0.0098860040307044
-0.0091278674080967
-0.0083523616194725
-0.0075678774155676
-0.0067726587876677
-0.0059598525986075
-0.0051219779998064
-0.0042533953674137
-0.0033514976967126
-0.0024172863923013
-0.0014559591654688
-0.0004771435633301
0.0005061998963356
0.0014791414141654
0.0024259884376078
0.0033322111703455
0.0041863741353154
0.0049807829782366
0.0057104649022221
0.0063710790127515
0.0069574252702295
0.0074635120108723
0.0078827440738677
0.0082068098708987
0.0084221391007304
0.008504182100296
0.0084145264700055
0.0081042312085628
0.0075222472660243
0.0066281887702643
0.0054059429094195
0.0038712862879037
0.0020710611715912
7.68294557929039e-05
-0.0020243036560714
-0.0041394308209419
-0.0061774980276823
-0.0080550797283649
-0.0097007602453231
-0.0110572203993797
-0.0120831998065114
-0.0127574047073721
-0.0130814658477902
-0.0130789205431938
-0.0127906585112214
-0.0122681390494108
-0.0115665178745985
-0.0107397697865962
-0.0098366281017661
-0.0088963694870471
-0.0079465368762612
-0.0070031601935625
-0.0060719694010913
-0.0051510594785213
-0.0042350534349679
-0.0033184406347572
-0.0023971735499799
-0.0014699150342494
-0.0005393219762481
0.0003883159952238
0.0013043157523497
0.0021978337317705
0.0030567143112421
0.0038691258523613
0.0046248198486864
0.0053173275664448
0.005945942364633
0.006514842621982
0.0070306695997715
0.0074998908676207
0.0079249432310462
0.00830047018826
0.0086116511374711
0.0088329119607806
0.0089263506233692
0.0088433288037776
0.0085304286330938
0.0079371947795152
0.0070243272930383
0.0057723224163055
0.0041882265359163
0.0023077055811882
0.0001927451230585
-0.0020734295248985
-0.004393994808197
-0.0066685201600193
-0.0088029820472002
-0.0107168294489383
-0.012346371077001
-0.0136460959911346
-0.0145893190056085
-0.0151681266725063
-0.0153924226760864
-0.0152882551774382
-0.0148951523005962
-0.0142613518983125
-0.0134374415501952
-0.0124715529382228
-0.0114069608971476
-0.010279918089509
-0.0091175073757767
-0.0079372506588697
-0.0067488057538867
-0.0055561517365276
-0.0043591698631644
-0.0031549925915896
-0.001939917448908
-0.0007117218337953
0.0005291565321385
0.0017799492925405
0.0030356561765074
0.0042881937697529
0.005525947548449
0.0067350035533308
0.0079011004418134
0.0090105822309851
0.0100513398647308
0.0110145788639783
0.0118951024487614
0.0126897627487778
0.0133957285434007
0.0140074156224727
0.0145109994336962
0.0148787107318639
0.015066297724843
0.0150162456557154
0.0146669782698154
0.0139649305492639
0.0128752095624804
0.0113896559923887
0.0095325112342834
