bvp
0.0002949798945337
0.0012917744461447
0.0023468693252652
0.0034409493673592
0.0045507177710533
0.0056516611948609
0.0067195920273661
0.0077315815724432
0.008663821965456
0.0094860475510358
0.0101557653397321
0.0106164570897817
0.0108033334836363
0.0106547195464372
0.0101230777800083
0.0091835977509617
0.0078413244336843
0.006134514696896
0.0041313329711556
0.0019215438514947
-0.0003944085910916
-0.0027171624824404
-0.0049568247050046
-0.0070375092327594
-0.0089017087593674
-0.010514092631638
-0.0118616735562682
-0.012949600815773
-0.0137946074828505
-0.014418882317841
-0.0148464106023311
-0.0151019487529993
-0.0152103276923298
-0.0151949636638164
-0.015076108276844
-0.0148688433691859
-0.0145820826292037
-0.0142193809151649
-0.0137795079499483
-0.0132564213126897
-0.0126405581831932
-0.0119213238358497
-0.0110898669809103
-0.0101418662816286
-0.0090800914913415
-0.0079163992777466
-0.0066717071458697
-0.0053730616346001
-0.0040491777472198
-0.00272704847157
-0.0014311115955933
-0.00018415087834
0.0009912936948239
0.0020709782838821
0.0030254628509283
0.0038150432519614
0.0043869973160326
0.0046793958172202
0.0046308692544698
0.0041927839629352
0.0033402536064386
0.0020797529723495
0.0004526178818196
-0.0014666641363874
-0.0035777245648205
-0.0057638608850538
-0.00790143199265
-0.0098701361566782
-0.011564084328711
-0.0129010267555713
-0.0138264037668704
-0.0143125997856259
-0.0143572483211755
-0.013981893658638
-0.013230032287538
-0.0121634025126695
-0.0108556058257818
-0.0093834921717643
-0.0078181754797697
-0.0062186103314161
-0.0046294517815113
-0.0030814437195658
-0.0015927944332361
-0.0001720525324344
0.0011786613613367
0.0024620918557047
0.0036858171224594
0.0048619280569255
0.0060049216262996
0.0071291723288595
0.0082474313676357
0.0093684494495391
0.0104935178533196
0.011615284718573
0.0127194235101342
0.013786650262773
0.0147945629432797
0.0157193429768085
0.0165349747985601
0.0172090083360672
0.0176978185772895
0.0179450772702693
0.0178860574960708
0.0174580309540033
0.0166129581630229
0.015327924862504
0.0136116482317447
0.0115074068307876
0.0090917758643627
0.0064683482050895
0.003758383449167
0.0010900059714913
-0.0014142645522952
-0.0036486033350229
-0.0055299494415521
-0.0070006838068366
-0.0080299554392695
-0.0086123719811439
-0.0087641524150967
-0.008518511429429
-0.0079213930293917
-0.0070285080000758
-0.0059030698612332
-0.0046124532818794
-0.003223611973226
-0.0017969654873013
-0.0003784261643886
0.0010063350200653
0.0023504933342337
0.0036592273972928
0.0049431915394961
0.006215386558324
0.0074896560981869
0.0087784025818109
0.0100904526188969
0.0114290723577141
0.0127897690981626
0.0141607169061899
0.0155259501188993
0.0168678984045982
0.0181682184338569
0.0194083042442798
0.0205701328814029
0.0216361451894044
0.0225865878164768
0.0233948621898889
0.0240225866436958
0.024416483938694
0.0245102159678936
0.0242325793951749
0.0235206242650747
0.0223348513245582
0.0206711515784263
0.0185649432241916
0.0160884112119674
0.0133441463112831
0.0104557257145643
0.0075543690472841
0.0047647692263126
0.0021949615329504
-6.900541484355927e-05
-0.0019656587392091
-0.0034593166783452
-0.0045391088351607
-0.0052152471616864
-0.005514939315617
-0.0054787429980933
-0.0051557514816522
-0.0045991325750947
-0.0038634296506643
-0.003000964410603
-0.0020558703690767
-0.0010585375130176
-2.3854896426200867e-05
0.0010461714118719
0.0021576359868049
0.0033203177154064
0.0045437440276145
0.0058328602463006
0.0071836281567811
0.0085794180631637
0.009991105645895
0.011383032426238
0.0127203203737735
0.0139727592468261
0.0151167195290327
0.0161364115774631
0.0170224402099847
0.0177659187465906
0.0183491930365562
0.0187368765473365
0.0188723988831043
0.0186825394630432
0.0180870443582534
0.0170107372105121
0.015397373586893
0.0132226273417472
0.0105014666914939
0.0072877816855907
0.0036684833467006
-0.0002457275986671
-0.0043327994644641
-0.0084721483290195
-0.0125535950064659
-0.0164828561246395
-0.0201857555657625
-0.0236107483506202
-0.0267295036464929
-0.0295357778668403
-0.0320423319935798
-0.0342772901058197
-0.0362810082733631
-0.0381024368107318
-0.0397943519055843
-0.0414066947996616
-0.0429781042039394
-0.044529028236866
-0.046058639883995
-0.0475450605154037
-0.0489479154348373
-0.0502127781510353
-0.051278781145811
-0.0520887039601802
-0.0525965839624404
-0.0527703575789928
-0.0525929145514965
-0.0520634762942791
-0.0511967651546001
-0.0500200390815734
-0.0485711693763732
-0.0468977093696594
-0.0450562164187431
-0.0431125164031982
-0.0411408171057701
-0.0392187088727951
-0.0374178513884544
-0.0357922054827213
-0.0343684665858745
-0.0331419892609119
-0.0320775993168354
-0.0311142429709434
-0.0301727913320064
-0.0291656032204628
-0.0280063934624195
-0.0266190916299819
-0.0249442104250192
-0.0229423530399799
-0.0205963738262653
-0.0179136041551828
-0.0149270426481962
-0.0116928396746516
-0.0082838162779808
-0.0047812275588512
-0.0012656729668378
0.0021924246102571
0.0055398186668753
0.0087428009137511
0.0117867942899465
0.0146749094128608
0.0174241587519645
0.0200588312000036
0.0226020831614732
0.0250679720193147
0.0274582672864198
0.0297645069658756
0.0319709181785583
0.0340570621192455
0.0360012911260128
0.037784207612276
0.0393907316029071
0.0408089645206928
0.042024977505207
0.0430168807506561
0.0437530390918254
0.0441958270967006
0.044308565557003
0.0440625548362731
0.0434436872601509
0.0424594022333622
0.041143100708723
0.0395531244575977
0.0377671271562576
0.0358730852603912
0.0339591093361377
0.0321050472557544
0.0303770806640386
0.0288250185549259
0.0274812001734972
0.0263609979301691
0.0254648029804229
0.0247793663293123
0.0242784079164266
0.0239244811236858
0.0236722994595766
0.0234727561473846
0.0232776291668415
0.0230448246002197
0.0227431487292051
0.0223552118986845
0.021878458559513
0.0213238503783941
0.0207112208008766
0.020063018426299
0.019399244338274
0.01873479783535
0.0180784277617931
0.0174323339015245
0.0167927648872137
0.0161513984203338
0.0154970772564411
0.0148174203932285
0.0140981571748852
0.0133197484537959
0.0124541688710451
0.0114646703004837
0.0103095285594463
0.008948422037065
0.0073495525866746
0.0054971608333289
0.0033977413550019
0.0010823598131537
-0.001394887920469
-0.0039617670699954
-0.0065368446521461
-0.0090404106304049
-0.0114016905426979
-0.0135607533156871
-0.01546963583678
-0.0170944258570671
-0.0184159055352211
-0.0194285549223423
-0.0201394073665142
-0.020567012950778
-0.0207397826015949
-0.0206932295113801
-0.0204666368663311
-0.0201000086963176
-0.019631627947092
-0.019095804542303
-0.0185206048190593
-0.0179258100688457
-0.0173210408538579
-0.0167052000761032
-0.0160692799836397
-0.0154013689607381
-0.0146907549351453
-0.0139306392520666
-0.0131207648664712
-0.0122692016884684
-0.0113913677632808
-0.0105072036385536
-0.0096382461488246
-0.0088046034798026
-0.008023140951991
-0.0073089338839054
-0.0066795917227864
-0.0061596250161528
-0.0057817008346319
-0.0055838730186223
-0.0056034834124147
-0.0058686174452304
-0.0063895215280354
-0.0071532092988491
-0.0081224730238318
-0.009238863363862
-0.0104293031617999
-0.011615365743637
-0.0127228703349828
-0.0136895850300788
-0.0144691048189997
-0.0150306476280093
-0.0153578408062458
-0.0154478456825017
-0.0153089892119169
-0.0149570181965827
-0.0144128268584609
-0.0137025965377688
-0.012856962159276
-0.0119074890390038
-0.0108834756538271
-0.0098109384998679
-0.0087124239653348
-0.007606538478285
-0.0065080747008323
-0.0054292143322527
-0.0043798205442726
-0.0033656212035566
-0.0023866032715886
-0.001437300350517
-0.0005080350674688
0.0004130168817937
0.0013364078477025
0.0022679716348648
0.0032072435133159
0.0041472697630524
0.0050746230408549
0.0059707066975533
0.0068158470094203
0.0075943465344607
0.0082962876185774
0.0089140860363841
0.0094359582290053
0.0098407994955778
0.0100973397493362
0.0101679163053631
0.0100166713818907
0.0096206646412611
0.0089791184291243
0.0081164985895156
0.0070799537934362
0.0059326756745576
0.0047447178512811
0.0035851467400789
0.0025169937871396
0.0015928926877677
0.0008519869297742
0.0003191605210304
4.122033715248108e-06
-9.96636226773262e-05
-1.2711621820926666e-05
0.000236315652728
0.0006166389212012
0.0010989475995302
0.0016559259966015
0.0022614407353103
0.0028911493718624
0.0035247108899056
0.0041473601013422
0.0047498964704573
0.0053281970322132
0.0058826874010264
0.0064173117280006
0.0069381361827254
0.007451819255948
0.0079634254798293
0.0084740873426198
0.0089804157614707
0.0094750123098492
0.0099471025168895
0.0103846099227666
0.0107763605192303
0.0111125633120536
0.0113852676004171
0.0115897189825773
0.0117256212979555
0.0117973163723945
0.0118112675845623
0.0117706032469868
0.0116699384525418
0.0114931566640734
0.0112139303237199
0.0107994340360164
0.0102173294872045
0.0094437934458255
0.0084712766110897
0.0073135592974722
0.0060054915957152
0.0045996876433491
0.0031611833255738
0.0017585731111466
0.0004541729285847
-0.0007033230504021
-0.0016819392330944
-0.0024653556756675
-0.0030505903996527
-0.0034459955058991
-0.0036693050060421
-0.0037455011624842
-0.003703812835738
-0.0035745759960263
-0.0033866728190332
-0.0031652378384023
-0.0029303589835762
-0.0026971299666911
-0.0024759897496551
-0.0022726047318428
-0.0020880559459328
-0.0019195092609152
-0.0017611372750252
-0.0016062154900282
-0.0014496054500341
-0.0012889034114778
-0.0011244425550103
-0.0009587432723492
-0.0007957397028803
-0.0006404928863048
-0.0004991367459297
-0.0003782245330512
-0.0002840207889676
-0.0002220161259174
-0.0001955083571374
-0.0002035992220044
-0.0002415641210973
-0.0003038574941456
-0.0003860406577587
-0.0004854053258895
-0.0006032814271748
-0.0007489025592803
-0.0009421161375939
-0.001211907248944
-0.0015897722914814
-0.002100923564285
-0.0027562752366065
-0.0035469061695039
-0.0044436762109398
-0.005401553120464
-0.0063648447394371
-0.0072736367583274
-0.0080736810341477
-0.0087256981059908
-0.0092081371694803
-0.0095143113285303
-0.0096486182883381
-0.0096236765384674
-0.0094583416357636
-0.0091765094548463
-0.0088057424873113
-0.0083746118471026
-0.0079096760600805
-0.0074348035268485
-0.0069721546024084
-0.0065403245389461
-0.0061495071277022
-0.0057988665066659
-0.0054785315878689
-0.0051736128516495
-0.0048680459149181
-0.00454828934744
-0.0042060948908329
-0.00383917754516
-0.0034506220836192
-0.003048320300877
-0.0026437533088028
-0.0022493558935821
-0.0018755476921796
-0.0015287932474166
-0.0012111938558518
-0.0009217842016369
-0.0006589933764189
-0.0004222618881613
-0.0002116984687745
-2.690451219677925e-05
0.0001337500289082
0.0002726975362747
0.0003914409317076
0.0004882893990725
0.0005567320622503
0.0005848703440278
0.0005555069074034
0.0004473904846236
0.0002391018206253
-8.456397335976362e-05
-0.0005265425425022
-0.0010743096936494
-0.001699995715171
-0.0023632603697478
-0.0030152599792927
-0.003603515215218
-0.0040794075466692
-0.0044059697538614
-0.0045618675649166
-0.0045419405214488
-0.0043555721640586
-0.0040227039717137
-0.0035698059946298
-0.0030276547186076
-0.0024287707637995
-0.0018044188618659
-0.0011830814182758
-0.0005898408126085
-4.527694545686245e-05
0.0004368454683572
0.0008516751695424
0.0012029935605823
0.0015011854702606
0.0017612016526982
0.0020007025450468
0.0022373306564986
0.0024852165952324
0.0027526365593075
0.0030417863745242
0.0033499256242066
0.003670758800581
0.0039949212223291
0.0043096579611301
0.0045999279245734
0.004852183163166
0.0050579607486724
0.0052141621708869
0.0053216037340462
0.0053841420449316
0.0054074549116194
0.00539704086259
0.0053567830473184
0.0052887117490172
0.0051930677145719
0.0050670308992266
0.0049017174169421
0.0046799969859421
0.004378605633974
0.0039742831140756
0.0034503899514675
0.0028023312333971
0.0020416467450559
0.0011973842047154
0.0003143092617392
-0.000551865203306
-0.0013431531842797
-0.0020096350926905
-0.0025161080993711
-0.002843361115083
-0.0029871794395148
-0.0029580835253
-0.0027802642434835
-0.0024863807484507
-0.0021108388900756
-0.0016873525455594
-0.0012491038069128
-0.0008260859176516
-0.0004412098787724
-0.0001086322590708
0.0001665041781961
0.0003871852532029
0.0005619851872324
0.0007029022090137
0.0008246200159192
0.0009426632896065
0.0010699778795242
0.001214527990669
0.0013791341334581
0.0015638882759958
0.0017687533982098
0.001992410281673
0.002229084726423
0.0024673636071383
0.0026919688098132
0.0028876068536192
0.003042337950319
0.003149093594402
0.0032062069512903
0.0032169953919947
0.003188376314938
0.0031290645711123
0.0030479154083877
0.0029523747507482
0.0028457841835916
0.0027243280783295
0.002575647085905
0.0023794891312718
0.0021110251545906
0.0017461177194491
0.0012668268755078
0.0006671238224953
-4.258193075656891e-05
-0.0008349588606506
-0.0016695908270776
-0.0024991212412714
-0.0032759481109678
-0.0039580911397933
-0.0045131864026188
-0.0049205869436264
-0.0051717008464038
-0.0052684443071484
-0.0052211661823093
-0.0050481660291552
-0.0047760847955942
-0.0044377245940268
-0.0040665110573172
-0.0036910972557961
-0.0033326242119073
-0.0030038226395845
-0.0027087009511888
-0.0024429936893284
-0.0021961615420877
-0.0019545052200555
-0.0017040972597897
-0.0014331531710922
-0.0011335178278386
-0.0008009104058146
-0.0004350370727479
-4.026154056191445e-05
0.0003743236884474
0.0007965005934238
0.0012133377604186
0.001612467225641
0.0019820667803287
0.0023119463585317
0.0025961261708289
0.0028333677910268
0.0030257478356361
0.0031783755403012
0.0032985510770231
0.003392377635464
0.0034606824629008
0.0034953244030475
0.0034766197204589
0.0033746438566595
0.0031554389279335
0.0027893860824406
0.0022579543292522
0.0015568695962429
0.0006971224211156
-0.0002931412309408
-0.0013672304339706
-0.0024647051468491
-0.0035218130797147
-0.004480801988393
-0.0052955667488276
-0.0059349355287849
-0.0063837808556854
-0.0066420310176908
-0.0067227967083454
-0.006649550050497
-0.0064514097757637
-0.0061589693650603
-0.0058023235760629
-0.0054093552753329
-0.0050036702305078
-0.0046025561168789
-0.0042152684181928
-0.003842668607831
-0.0034782011061906
-0.0031094923615455
-0.0027202097699046
-0.0022924728691577
-0.0018104845657944
-0.0012636967003345
-0.0006473837420344
3.716815263032913e-05
0.0007810341194272
0.0015676347538828
0.0023762891069054
0.0031861690804362
0.0039772000163793
0.004730453249067
0.0054318639449775
0.0060759298503398
0.0066654374822974
0.0072074732743203
0.0077049052342772
0.0081448256969451
0.0084918718785047
0.0086917551234364
0.0086806518957018
0.0083958972245454
0.0077888714149594
0.0068369098007678
0.0055483388714492
0.0039612539112567
0.0021392093040049
0.0001643998548388
-0.0018711425364017
-0.0038744388148188
-0.0057589961215853
-0.0074503934010863
-0.0088902208954095
-0.0100385807454586
-0.0108744595199823
-0.011393928900361
-0.0116086136549711
-0.0115452799946069
-0.0112439105287194
-0.010753083974123
-0.0101235983893275
-0.0094015598297119
-0.0086229937151074
-0.0078112939372658
-0.0069774435833096
-0.0061228135600686
-0.005242409184575
-0.004326781257987
-0.0033639501780271
-0.0023423284292221
-0.0012535080313682
-9.368918836116792e-05
0.0011353511363267
0.0024244748055934
0.0037558786571025
0.0051040491089224
0.0064385300502181
0.0077277831733226
0.0089440690353512
0.0100674834102392
0.0110858995467424
0.011990888044238
0.0127717945724725
0.0134082101285457
0.0138631472364068
0.0140818245708942
0.0139971654862165
0.0135407857596874
0.0126572242006659
0.0113170370459556
0.0095261503010988
0.0073309848085045
0.004817702807486
0.0021036053076386
-0.0006780503317713
-0.0033943820744752
-0.0059254448860883
-0.008172052912414
-0.0100596696138381
-0.0115392683073878
-0.0125861829146742
-0.0131980953738093
-0.0133928190916776
-0.0132052972912788
-0.012683805078268
-0.0118863154202699
-0.0108759626746177
-0.0097148437052965
-0.0084583759307861
-0.007151648402214
-0.0058267004787921
-0.0045009478926658
-0.0031781420111656
-0.001851450651884
-0.0005078110843896
0.0008670631796121
0.0022845920175313
0.0037509873509407
0.0052663329988718
0.0068245492875576
0.008413297124207
0.0100140236318111
0.0116030192002654
0.0131534207612276
0.0146376518532633
0.016030091792345
0.017309483140707
0.0184594430029392
0.0194648876786232
0.0203038677573204
0.0209388844668865
0.021313389763236
0.0213544256985187
0.0209794510155916
0.0201080180704593
0.0186783038079738
0.0166635252535343
0.0140829430893063
0.0110060758888721
0.0075495867058634
0.0038659768179059
0.0001263050362467
-0.0034986175596714
-0.0068546505644917
-0.0098152440041303
-0.0122861117124557
-0.0142059149220585
-0.0155454874038696
-0.0163068789988756
-0.0165216214954853
-0.0162455886602401
-0.0155505621805787
-0.0145172085613012
-0.0132303014397621
-0.01177235879004
-0.0102160405367612
-0.0086182998493313
-0.0070181032642722
-0.0054370956495404
-0.0038814172148704
-0.0023451028391718
-0.0008153542876243
0.0007223607972264
0.002280680462718
0.003868137486279
0.0054876739159226
0.0071350713260471
0.0087972255423665
0.0104515124112367
0.0120682567358016
0.0136157935485243
0.0150645794346928
0.0163894444704055
0.017571834847331
0.0186002403497695
0.019466133788228
0.0201566740870475
0.0206450261175632
0.020880265161395
0.0207840353250503
0.0202586539089679
0.0192039832472801
0.0175381563603878
0.0152182336896657
0.0122558800503611
0.0087232366204261
0.0047483425587415
0.0005018641240894
-0.0038224321324378
-0.0080287363380193
-0.0119373369961977
-0.015398365445435
-0.0183005407452583
-0.0205741748213768
-0.0221890956163406
-0.0231505129486322
-0.0234953854233026
-0.023287272080779
-0.0226076021790504
-0.0215461459010839
-0.020193263888359
-0.0186336226761341
-0.0169417262077331
-0.0151796303689479
-0.0133949723094701
-0.0116187967360019
-0.0098653892055153
-0.0081349648535251
-0.0064185671508312
-0.0047039194032549
-0.0029794755391776
-0.001235726987943
0.0005334544111974
0.0023273332044482
0.0041354619897902
0.005939083173871
0.0077146152034401
0.0094354674220085
0.0110737215727567
0.012603829614818
0.0140060130506753
0.0152670796960592
0.0163798108696937
0.0173409227281808
0.0181447733193635
0.0187727808952331
0.0191824547946453
0.0193011239171028
0.019029002636671
0.0182531792670488
0.0168703291565179
0.014812191016972
0.0120657244697213
0.0086836228147149
0.0047837477177381
0.00053664855659
-0.0038550961762666
-0.0081794923171401
-0.0122356507927179
-0.0158506669104099
-0.0188920721411705
-0.0212741140276193
-0.0229573268443346
-0.0239437632262706
-0.0242700465023517
-0.0240000672638416
-0.0232190489768981
-0.0220277290791273
-0.0205342415720224
-0.0188438426703214
-0.0170490704476833
-0.0152235552668571
-0.0134200463071465
-0.0116701480001211
-0.00998514611274
-0.0083589479327201
-0.0067728175781667
-0.0052018966525793
-0.0036224408540874
-0.0020171497017145
-0.0003779181279242
0.0012938571162521
0.002988607622683
0.0046901884488761
0.0063782441429793
0.0080307461321353
0.0096247373148798
0.0111362598836421
0.0125420596450567
0.0138228153809905
0.0149651197716593
0.0159609168767929
0.0168041884899139
0.0174837373197078
0.0179728008806705
0.0182200223207473
0.0181470829993486
0.0176556445658206
0.0166428126394748
0.0150224091485142
0.0127472523599863
0.0098258275538682
0.0063289711251854
0.0023857215419411
-0.0018306635320186
-0.0061233006417751
-0.0102929091081023
-0.0141552872955799
-0.0175544414669275
-0.0203716903924942
-0.0225311107933521
-0.0240008309483528
-0.0247899182140827
-0.0249431021511554
-0.0245347842574119
-0.0236611180007457
-0.0224298499524593
-0.020948976278305
-0.0193156786262989
-0.0176079850643873
-0.0158805102109909
-0.0141640286892652
-0.012468859553337
-0.0107903340831398
-0.0091136982664465
-0.0074181864038109
-0.0056815166026353
-0.0038854284211993
-0.0020211683586239
-9.278487414121628e-05
0.0018826103769242
0.0038774851709604
0.0058587910607457
0.0077923727221786
0.0096454825252294
0.0113887581974267
0.0129980808123946
0.0144563931971788
0.0157549101859331
0.0168909393250942
0.0178605318069458
0.0186475738883018
0.0192135293036699
0.0194929260760545
0.0193985309451818
0.0188364312052726
0.0177262872457504
0.0160208623856306
0.0137212416157126
0.0108848568052053
0.0076242052018642
0.0040963683277368
0.0004857927560806
-0.0030161617323756
-0.0062311822548508
-0.0090100523084402
-0.0112434979528188
-0.0128680486232042
-0.0138670708984136
-0.0142671456560492
-0.0141303138807415
-0.0135433059185743
-0.0126060582697391
-0.0114211663603782
-0.0100844800472259
-0.0086781429126858
-0.0072665829211473
-0.0058934483677148
-0.0045795310288667
-0.0033240937627851
-0.0021100305020809
-0.0009116251021623
0.0002973293885588
0.001537905074656
0.0028229225426912
0.004155240021646
0.0055281221866607
0.0069269333034753
0.0083303777500987
0.009712278842926
0.0110446065664291
0.012300063855946
0.0134540777653455
0.0144867580384016
0.015382457524538
0.0161243379116058
0.0166859216988086
0.0170241743326187
0.0170765873044729
0.0167644433677196
0.0160044208168983
0.0147254364565014
0.012885196134448
0.0104838777333498
0.0075722206383943
0.0042508132755756
0.0006609242409467
-0.0030304966494441
-0.0066491812467575
-0.0100319264456629
-0.013040842488408
-0.0155715635046362
-0.0175563897937536
-0.0189644508063793
-0.0198005177080631
-0.020101660862565
-0.0199304204434156
-0.019366156309843
-0.018496636301279
-0.0174103043973445
-0.0161892063915729
-0.014902695082128
-0.0136026693508028
-0.0123214181512594
-0.0110726524144411
-0.0098549677059054
-0.0086559373885393
-0.0074562313966453
-0.0062344609759747
-0.0049722520634531
-0.0036575975827872
-0.002286129631102
-0.0008615422993898
0.0006047999486327
0.0020943982526659
0.0035817297175526
0.0050358511507511
0.0064247641712427
0.0077206194400787
0.0089021436870098
0.0099525181576609
0.0108530176803469
0.0115736685693264
0.0120656685903668
0.0122604006901383
0.0120755024254322
0.0114275915548205
0.0102507341653108
0.008514073677361
0.0062318285927176
0.0034668622538447
0.0003288630396127
-0.0030358750373125
-0.0064608277752995
-0.0097769051790237
-0.0128292199224233
-0.0154897533357143
-0.0176646709442138
-0.0192973986268043
-0.020366758108139
-0.0208817906677722
-0.0208774209022521
-0.0204111337661743
-0.0195578895509243
-0.0184025056660175
-0.0170312318950891
-0.0155244590714573
-0.0139508266001939
-0.0123619809746742
-0.0107887703925371
-0.0092412391677498
-0.0077135991305112
-0.0061918762512505
-0.0046604359522461
-0.0031055242288857
-0.0015167696401476
0.0001113665057346
0.0017780157504603
0.0034748832695186
0.0051854052580893
0.0068848463706672
0.0085430592298507
0.0101297385990619
0.0116198547184467
0.0129960691556334
0.0142475767061114
0.0153673691675066
0.0163471028208732
0.0171685460954904
0.0177948474884033
0.0181662235409021
0.0182028878480196
0.0178166665136814
0.0169300623238086
0.0154962437227368
0.0135120544582605
0.011022332124412
0.0081183761358261
0.0049311509355902
0.0016176741337403
-0.0016570376465097
-0.0047367480583488
-0.0074876681901514
-0.0098088067024946
-0.011635847389698
-0.0129388393834233
-0.0137185957282781
-0.0140032358467578
-0.0138423983007669
-0.0132996775209903
-0.0124463522806763
-0.0113559961318969
-0.0100986659526824
-0.0087358709424734
-0.0073169306851923
-0.0058768959715962
-0.0044372915290296
-0.0030086091719567
-0.0015922491438686
-0.0001830570399761
0.0012265448458492
0.0026428354904055
0.0040683532133698
0.0055002039298415
0.0069292858242988
0.0083404360339045
0.009713732637465
0.0110276248306036
0.0122627150267362
0.0134040098637342
0.0144408289343118
0.0153652178123593
0.0161711312830448
0.0168550051748752
0.0174137223511934
0.0178364980965852
0.0180943943560123
0.0181350689381361
0.0178869068622589
0.0172707941383123
0.0162144526839256
0.0146667631343007
0.012611674144864
0.010077397339046
0.0071372250095009
0.0039037824608385
0.0005184380570426
-0.002863593166694
-0.0060897041112184
-0.0090240510180592
-0.011557625606656
-0.0136142699047923
-0.0151529069989919
-0.0161669068038463
-0.0166806522756814
-0.0167422462254762
-0.0164147615432739
-0.015769449993968
-0.0148800574243068
-0.0138170300051569
-0.0126426024362444
-0.0114071471616625
-0.0101468497887253
-0.0088839922100305
-0.0076294159516692
-0.006384149659425
-0.0051402007229626
-0.0038829622790217
-0.0025948979891836
-0.001259762328118
0.0001329258084297
0.0015842309221625
0.0030842116102576
0.0046132402494549
0.006144942715764
0.0076498920097947
0.00910010561347
0.010472547262907
0.0117504512891173
0.0129209989681839
0.01396787725389
0.0148627404123544
0.0155604034662246
0.0159979537129402
0.0160987265408039
0.0157838519662618
0.0149896806105971
0.0136849889531731
0.0118823479861021
0.0096411658450961
0.0070629636757075
0.0042799492366611
0.0014394097961485
-0.0013113560853525
-0.0038373358547687
-0.0060265269130468
-0.0077982628718018
-0.0091062933206558
-0.0099373776465654
-0.0103076072409749
-0.010257389396429
-0.0098463594913482
-0.0091479234397411
-0.0082423985004425
-0.0072091352194547
-0.0061186584644019
-0.0050264624878764
-0.0039691827259957
-0.0029633748345077
-0.0020076846703886
-0.0010876369196921
-0.0001816487638279
0.0007325190817937
0.0016726497560739
0.0026496495120227
0.0036672889254987
0.0047230515629053
0.0058090826496481
0.0069125895388424
0.0080160852521657
0.0090983221307396
0.0101366406306624
0.0111102862283587
0.0120016168802976
0.0127924662083387
0.0134570123627781
0.0139547074213624
0.0142256310209631
0.0141912410035729
0.013765474781394
0.0128746032714843
0.011475802399218
0.0095689753070473
0.0072022406384348
0.0044693183153867
0.0014982591383159
-0.001564142294228
-0.004568020813167
-0.0073741916567087
-0.0098646115511655
-0.01194928586483
-0.0135701522231101
-0.0147024951875209
-0.015354037284851
-0.0155609101057052
-0.0153805911540985
-0.0148838963359594
-0.0141480267047882
-0.0132497809827327
-0.012257782742381
-0.0112263429909944
-0.0101930005475878
-0.0091786673292517
-0.0081894258037209
-0.0072196554392576
-0.0062559461221098
-0.0052812825888395
-0.0042789690196514
-0.003236332675442
-0.0021478803828358
-0.001016391441226
0.0001484118402004
0.0013320497237145
0.0025170086883008
0.00368421850726
0.0048152841627597
0.0058946060016751
0.0069081122055649
0.0078383013606071
0.0086590107530355
0.0093312198296189
0.0097993314266204
0.0099902106449007
0.0098193623125553
0.0092053599655628
0.0080881807953119
0.0064449245110154
0.0042988434433937
0.0017207972705364
-0.0011769738048315
-0.0042541148141026
-0.0073592481203377
-0.0103457234799861
-0.0130830127745866
-0.0154646355658769
-0.0174131318926811
-0.0188813675194978
-0.0198512859642505
-0.0203309021890163
-0.020349521189928
-0.0199529714882373
-0.0191994048655033
-0.0181546155363321
-0.0168874636292457
-0.0154652250930666
-0.0139476619660854
-0.0123815573751926
-0.0107987876981496
-0.0092175658792257
-0.0076444307342171
-0.0060766641981899
-0.0045056450180709
-0.0029204867314547
-0.0013120654039084
0.0003222753293812
0.0019759940914809
0.0036350674927234
0.0052813319489359
0.0068941386416554
0.0084523316472768
0.0099375508725643
0.0113354260101914
0.0126340072602033
0.0138213876634836
0.0148821175098419
0.0157912019640207
0.0165070202201604
0.0169675964862108
0.0170944184064865
0.0168036557734012
0.0160215441137552
0.0147011168301105
0.0128368502482771
0.0104723256081342
0.0076982928439974
0.0046430299989879
0.0014582774601876
-0.0016975349280983
-0.0046762535348534
-0.007352634333074
-0.0096308942884206
-0.0114469928666949
-0.0127677451819181
-0.0135875027626752
-0.0139248222112655
-0.013819545507431
-0.0133284786716103
-0.0125198885798454
-0.011467806994915
-0.0102461259812116
-0.0089225182309746
-0.0075522228144109
-0.0061733671464025
-0.0048068170435726
-0.003459682688117
-0.0021287756972014
-0.0008035930804908
0.0005294135771691
0.001881469041109
0.0032578874379396
0.0046577150933444
0.0060735363513231
0.0074903797358274
0.0088871400803327
0.0102407783269882
0.0115299010649323
0.01273650303483
0.0138471908867359
0.0148540781810879
0.0157543998211622
0.0165479015558958
0.0172298625111579
0.0177807547152042
0.0181588511914014
0.0182997323572635
0.0181227289140224
0.0175440348684787
0.0164942536503076
0.0149358063936233
0.0128751443699002
0.0103665459901094
0.0075072632171213
0.0044258264824748
0.0012665200047194
-0.001826629275456
-0.0047235870733857
-0.007317962590605
-0.0095320716500282
-0.0113176433369517
-0.0126527501270174
-0.0135369757190346
-0.0139874443411827
-0.0140368491411209
-0.0137321641668677
-0.0131317572668194
-0.0123007073998451
-0.0113047584891319
-0.0102031594142317
-0.0090428525581955
-0.0078560337424278
-0.0066607184708118
-0.0054637431167066
-0.0042641414329409
-0.0030557438731193
-0.0018308504950255
-0.0005847590509802
0.0006812611827626
0.0019596859347075
0.0032386051025241
0.0045038135722279
0.0057397196069359
0.0069297533482313
0.008057695813477
0.0091097950935363
0.0100759714841842
0.0109490305185318
0.011723137460649
0.0123934615403413
0.0129564963281154
0.0134084764868021
0.0137390624731779
0.013921302743256
0.0139051713049411
0.0136216720566153
0.0129958558827638
0.0119620375335216
0.0104782097041606
0.0085382107645273
0.0061783017590641
0.0034761824645102
0.0005421759560704
-0.0024948366917669
-0.0055017210543155
-0.0083538182079792
-0.0109452167525887
-0.0131937395781278
-0.0150415217503905
-0.0164550188928842
-0.0174250621348619
-0.0179649330675601
-0.0181064512580633
-0.0178957879543304
-0.0173893310129642
-0.0166490674018859
-0.0157373324036598
-0.0147115420550107
-0.0136197227984666
-0.0124972602352499
-0.0113663421943783
-0.0102380001917481
-0.0091139078140258
-0.0079876910895109
-0.006847258657217
-0.0056781694293022
-0.0044678379781544
-0.0032090616878122
-0.0019014280987903
-0.0005516767851077
0.0008263443596661
0.0022129814606159
0.0035850529093295
0.0049177673645317
0.0061860717833042
0.0073663149960339
0.0084389867261052
0.0093921432271599
0.0102230384945869
0.0109350690618157
0.0115296635776758
0.0119961537420749
0.0123046915978193
0.0124056665226817
0.012236064299941
0.0117314048111438
0.0108401644974946
0.0095369629561901
0.0078316908329725
0.0057728271931409
0.003444057656452
0.0009553094860166
-0.001569484360516
-0.0040063546039164
-0.0062444489449262
-0.0081949848681688
-0.0097952736541628
-0.0110095767304301
-0.0118282120674848
-0.0122653590515255
-0.0123557969927787
-0.0121504198759794
-0.011710095219314
-0.0110980290919542
-0.0103722047060728
-0.0095802554860711
-0.008757178671658
-0.0079240864142775
-0.0070880325511097
-0.006244130898267
-0.0053794952109456
-0.004477921873331
-0.003523935098201
-0.0025055226869881
-0.0014161872677505
-0.0002561898436397
0.0009671143488958
0.002239343477413
0.0035395792219787
0.0048420373350381
0.0061197141185402
0.007348476909101
0.0085086654871702
0.009585166350007
0.0105682369321584
0.0114532560110092
0.0122368140146136
0.0129091097041964
0.0134457387030124
0.0138034196570515
0.0139221949502825
0.013734046369791
0.0131757715716958
0.0122030982747673
0.0108034815639257
0.0090043004602193
0.0068729761987924
0.0045088613405823
0.0020302846096456
-0.0004390168469399
-0.0027820107061415
-0.0048986552283167
-0.0067127901129424
-0.0081745069473981
-0.0092594884335994
-0.0099669396877288
-0.0103173330426216
-0.0103496955707669
-0.0101157650351524
-0.0096721854060888
-0.0090751098468899
-0.0083766328170895
-0.0076204952783882
-0.0068389871157705
-0.0060529080219566
-0.0052721258252859
-0.0044962586835026
-0.0037178753409534
-0.0029269577935338
-0.0021137902513146
-0.0012697037309408
-0.0003875609254464
0.0005360265495255
0.0014988186303526
0.0024931686930358
0.0035068795550614
0.0045242374762892
0.0055268439464271
0.0064938417635858
0.0074032703414559
0.0082351984456181
0.0089744990691542
0.0096110459417104
0.0101355519145727
0.0105304317548871
0.0107599822804331
0.0107678482308983
0.0104856910184025
0.0098486449569463
0.0088103152811527
0.0073534362018108
0.005495817400515
0.0032921766396611
0.0008304514922201
-0.0017783624352887
-0.0044139730744063
-0.0069598434492945
-0.0093123679980635
-0.0113865854218602
-0.0131201716139912
-0.0144747663289308
-0.0154343862086534
-0.0160030759871006
-0.0162025354802608
-0.0160685926675796
-0.0156472567468881
-0.0149918915703892
-0.0141593776643276
-0.0132038360461592
-0.0121708586812019
-0.0110946297645568
-0.009997634217143
-0.0088923079892992
-0.007783762179315
-0.0066717364825308
-0.0055515076965093
-0.0044156340882182
-0.0032571412157267
-0.0020724437199532
-0.0008623045869171
0.0003682463429868
0.0016096273902803
0.0028482768684625
0.0040690703317523
0.0052571734413504
0.006398094817996
0.007478242740035
0.0084865260869264
0.009415179491043
0.0102585237473249
0.0110086807981133
0.011648379266262
0.012143624946475
0.0124408593401312
0.0124721275642514
0.0121672917157411
0.0114687662571668
0.0103452559560537
0.0088015012443065
0.0068810111843049
0.0046616517938673
0.0022462958004325
-0.0002489110920578
-0.0027069034986197
-0.0050204801373183
-0.007098670117557
-0.0088694784790277
-0.0102817267179489
-0.0113056721165776
-0.0119317546486854
-0.0121685238555073
-0.0120405424386262
-0.0115865757688879
-0.0108574768528342
-0.009912060573697
-0.0088114719837903
-0.00761393411085
-0.0063696489669382
-0.0051164054311811
-0.0038784770295023
-0.0026680789887905
-0.0014863610267639
-0.0003252476453781
0.0008273953571915
0.0019825669005513
0.0031484551727771
0.0043302266858518
0.0055288691073656
0.0067399404942989
0.007953398860991
0.0091542564332485
0.0103238234296441
0.0114419236779212
0.0124894278123974
0.0134499287232756
0.0143105182796716
0.0150624420493841
0.0157018676400184
0.0162282288074493
0.0166367571800947
0.0169072765856981
0.0169966220855712
0.0168400127440691
0.0163613948971033
0.0154891097918152
0.0141715612262487
0.0123893218114972
0.0101624336093664
0.0075519951060414
0.004655716009438
0.0015976640861481
-0.0014861447270959
-0.0044629122130572
-0.0072159301489591
-0.0096529917791485
-0.0117097729817032
-0.0133503405377268
-0.0145652499049901
-0.0153655540198087
-0.0157762710005044
-0.0158336255699396
-0.0155831985175609
-0.0150763550773262
-0.0143663669005036
-0.0135040637105703
-0.0125332409515976
-0.0114880902692675
-0.0103929694741964
-0.0092631075531244
-0.008105169981718
-0.0069183171726763
-0.005697313696146
-0.0044370107352733
-0.0031359228305518
-0.0017972448840737
-0.0004274696111679
0.0009646625258028
0.0023670913651585
0.003763347165659
0.0051341047510504
0.0064604138024151
0.0077256769873201
0.0089165493845939
0.0100238490849733
0.0110421050339937
0.0119677875190973
0.0127977700904011
0.0135277388617396
0.0141488406807184
0.0146415652707219
0.0149689810350537
0.0150734791532158
0.0148805631324648
0.014310703612864
0.0132959792390465
0.0117963580414652
0.009811338968575
0.0073840343393385
0.004598366562277
0.0015715062618255
-0.0015583273489028
-0.0046471017412841
-0.0075598619878292
-0.0101835308596491
-0.0124353198334574
-0.0142645463347435
-0.0156499315053224
-0.016595846042037
-0.0171273816376924
-0.0172839220613241
-0.0171138867735862
-0.0166710633784532
-0.0160110685974359
-0.0151884816586971
-0.0142538668587803
-0.0132495258003473
-0.0122055355459451
-0.0111372098326683
-0.0100448969751596
-0.0089178476482629
-0.0077410200610756
-0.0065011973492801
-0.0051902164705097
-0.0038062781095504
-0.0023544519208371
-0.0008458122611045
0.0007040314376354
0.0022750836797058
0.0038430981803685
0.0053824968636035
0.0068708811886608
0.0082917539402842
0.0096345795318484
0.0108932834118604
0.0120636979117989
0.0131384497508406
0.0140993278473615
0.0149106439203023
0.0155159421265125
0.0158398505300283
0.0157975777983665
0.0153103917837142
0.014322830364108
0.012817995622754
0.0108266342431306
0.0084272101521492
0.0057370187714695
0.0028966483660042
5.260179750621319e-05
-0.0026569543406367
-0.0051118317060172
-0.0072163958102464
-0.0089037120342254
-0.0101367924362421
-0.0109073594212532
-0.0112331751734018
-0.0111544793471694
-0.0107287634164094
-0.0100238313898444
-0.0091104228049516
-0.008055780082941
-0.0069193402305245
-0.0057497397065162
-0.004581669345498
-0.0034333891235291
-0.0023068822920322
-0.0011921063996851
-7.3977280408144e-05
0.0010622576810419
0.0022284616716206
0.0034312079660594
0.0046693542972207
0.0059332214295864
0.0072056613862514
0.0084644639864563
0.0096855284646153
0.0108464732766151
0.0119288247078657
0.0129175800830125
0.0138005306944251
0.0145683558657765
0.015212339349091
0.0157172530889511
0.0160514917224645
0.0161601398140192
0.0159662645310163
0.015382039360702
0.0143269225955009
0.0127468761056661
0.0106284907087683
0.0080052828416228
0.0049564847722649
0.001600035931915
-0.0019191857427358
-0.0054448116570711
-0.0088247498497366
-0.0119237955659627
-0.0146313551813364
-0.0168652907013893
-0.0185744147747755
-0.0197393558919429
-0.0203703269362449
-0.0205029044300317
-0.0201935898512601
-0.0195150412619113
-0.0185492001473903
-0.0173781812191009
-0.0160762779414653
-0.0147048933431506
-0.0133088892325758
-0.0119146192446351
-0.0105320429429411
-0.0091596283018589
-0.0077877803705632
-0.0064012464135885
-0.0049835406243801
-0.0035218826960772
-0.0020106255542486
-0.000453787506558
0.0011342188809067
0.0027313018217682
0.004312259145081
0.005851945374161
0.0073261242359876
0.0087116938084363
0.0099881682544946
0.0111395679414272
0.0121533740311861
0.0130148120224475
0.0136983674019575
0.0141604142263531
0.0143368234857916
0.0141487447544932
0.0135162435472011
0.0123748490586876
0.0106901545077562
0.0084681957960128
0.0057608801871538
0.0026660079602152
